
0001;-1.864;14.641;1.864;0.994;0.000;-1.861;14.584;1.861;0.994;0.000;-1.863;14.581;1.863;0.994;0.000;-1.866;14.601;1.866;0.994;0.000
0002;-1.852;14.326;1.852;0.994;0.000;-1.855;14.349;1.855;0.994;0.000;-1.858;14.331;1.858;0.994;0.000;-1.859;14.313;1.859;0.994;0.000
0003;-1.878;14.069;1.878;0.993;0.000;-1.874;14.037;1.874;0.993;0.000;-1.876;14.046;1.876;0.993;0.000;-1.873;14.031;1.873;0.993;0.000
0004;-1.842;14.449;1.842;0.993;0.000;-1.840;14.445;1.840;0.993;0.000;-1.838;14.427;1.838;0.993;0.000;-1.837;14.405;1.837;0.993;0.000
0005;-1.835;14.336;1.835;0.992;0.000;-1.835;14.329;1.835;0.992;0.000;-1.835;14.330;1.835;0.992;0.000;-1.836;14.342;1.836;0.992;0.000
0006;-1.847;14.524;1.847;0.993;0.000;-1.847;14.529;1.847;0.993;0.000;-1.845;14.523;1.845;0.993;0.000;-1.845;14.515;1.845;0.993;0.000
0007;-1.868;15.203;1.868;0.994;0.000;-1.869;15.225;1.869;0.994;0.000;-1.870;15.232;1.870;0.994;0.000;-1.866;15.199;1.866;0.994;0.000
0008;-1.819;14.549;1.819;0.992;0.000;-1.819;14.544;1.819;0.992;0.000;-1.822;14.545;1.822;0.992;0.000;-1.822;14.529;1.822;0.992;0.000
0009;-1.840;14.107;1.840;0.993;0.000;-1.840;14.128;1.840;0.993;0.000;-1.840;14.117;1.840;0.993;0.000;-1.840;14.097;1.840;0.993;0.000
0010;-1.847;14.405;1.847;0.993;0.000;-1.847;14.409;1.847;0.993;0.000;-1.849;14.402;1.849;0.993;0.000;-1.847;14.358;1.847;0.993;0.000
0011;-1.847;14.549;1.847;0.993;0.000;-1.848;14.558;1.848;0.993;0.000;-1.847;14.565;1.847;0.993;0.000;-1.845;14.543;1.845;0.993;0.000
0013;-1.858;14.135;1.858;0.993;0.000;-1.856;14.134;1.856;0.993;0.000;-1.857;14.135;1.857;0.993;0.000;-1.859;14.143;1.859;0.993;0.000
0014;-1.825;14.641;1.825;0.992;0.000;-1.822;14.599;1.822;0.991;0.000;-1.820;14.579;1.820;0.991;0.000;-1.821;14.576;1.821;0.991;0.000
0015;-1.842;14.346;1.842;0.992;0.000;-1.844;14.347;1.844;0.992;0.000;-1.843;14.354;1.843;0.992;0.000;-1.842;14.327;1.842;0.992;0.000
0016;-1.853;14.575;1.853;0.994;0.000;-1.854;14.576;1.854;0.994;0.000;-1.851;14.560;1.851;0.994;0.000;-1.850;14.553;1.850;0.994;0.000
0017;-1.874;14.352;1.874;0.995;0.000;-1.871;14.370;1.871;0.995;0.000;-1.870;14.377;1.870;0.995;0.000;-1.870;14.360;1.870;0.994;0.000
0018;-1.852;14.604;1.852;0.994;0.000;-1.852;14.602;1.852;0.994;0.000;-1.852;14.586;1.852;0.994;0.000;-1.856;14.594;1.856;0.994;0.000
0019;-1.842;14.377;1.842;0.993;0.000;-1.841;14.374;1.841;0.993;0.000;-1.841;14.385;1.841;0.993;0.000;-1.842;14.385;1.842;0.993;0.000
0020;-1.827;14.412;1.827;0.991;0.000;-1.826;14.417;1.826;0.991;0.000;-1.828;14.424;1.828;0.991;0.000;-1.829;14.416;1.829;0.991;0.000
0021;-1.847;14.855;1.847;0.993;0.000;-1.850;14.806;1.850;0.993;0.000;-1.849;14.792;1.849;0.993;0.000;-1.849;14.824;1.849;0.993;0.000
0022;-1.849;14.271;1.849;0.993;0.000;-1.847;14.245;1.847;0.993;0.000;-1.845;14.221;1.845;0.993;0.000;-1.846;14.219;1.846;0.993;0.000
0023;-1.823;14.502;1.823;0.992;0.000;-1.822;14.503;1.822;0.992;0.000;-1.820;14.494;1.820;0.992;0.000;-1.819;14.501;1.819;0.992;0.000
0024;-1.821;14.379;1.821;0.992;0.000;-1.822;14.391;1.822;0.991;0.000;-1.821;14.395;1.821;0.991;0.000;-1.818;14.362;1.818;0.991;0.000
0025;-1.891;14.574;1.891;0.996;0.000;-1.887;14.540;1.887;0.996;0.000;-1.886;14.525;1.886;0.996;0.000;-1.884;14.522;1.884;0.995;0.000
0026;-1.848;14.482;1.848;0.994;0.000;-1.848;14.480;1.848;0.994;0.000;-1.847;14.474;1.847;0.994;0.000;-1.848;14.481;1.848;0.994;0.000
0027;-1.864;14.357;1.864;0.994;0.000;-1.865;14.361;1.865;0.994;0.000;-1.865;14.358;1.865;0.994;0.000;-1.865;14.348;1.865;0.994;0.000
0028;-1.858;14.463;1.858;0.994;0.000;-1.857;14.460;1.857;0.994;0.000;-1.856;14.462;1.856;0.993;0.000;-1.855;14.455;1.855;0.993;0.000
0029;-1.861;14.393;1.861;0.994;0.000;-1.864;14.407;1.864;0.994;0.000;-1.863;14.407;1.863;0.994;0.000;-1.862;14.398;1.862;0.994;0.000
0030;-1.880;14.073;1.880;0.994;0.000;-1.879;14.073;1.879;0.994;0.000;-1.879;14.068;1.879;0.994;0.000;-1.880;14.071;1.880;0.994;0.000
0032;-1.856;14.236;1.856;0.993;0.000;-1.858;14.234;1.858;0.993;0.000;-1.856;14.222;1.856;0.993;0.000;-1.855;14.238;1.855;0.993;0.000
0033;-1.844;14.437;1.844;0.993;0.000;-1.840;14.439;1.840;0.993;0.000;-1.839;14.456;1.839;0.993;0.000;-1.841;14.465;1.841;0.993;0.000
0035;-1.807;14.395;1.807;0.990;0.000;-1.810;14.403;1.810;0.989;0.000;-1.809;14.395;1.809;0.990;0.000;-1.813;14.414;1.813;0.990;0.000
0036;-1.839;14.233;1.839;0.992;0.000;-1.837;14.243;1.837;0.992;0.000;-1.834;14.246;1.834;0.992;0.000;-1.834;14.239;1.834;0.992;0.000
0037;-1.860;14.404;1.860;0.994;0.000;-1.861;14.413;1.861;0.994;0.000;-1.862;14.426;1.862;0.994;0.000;-1.861;14.408;1.861;0.994;0.000
0038;-1.871;14.253;1.871;0.992;0.000;-1.870;14.241;1.870;0.993;0.000;-1.869;14.228;1.869;0.993;0.000;-1.869;14.237;1.869;0.993;0.000
0039;-1.825;14.217;1.825;0.992;0.000;-1.826;14.235;1.826;0.991;0.000;-1.826;14.235;1.826;0.991;0.000;-1.825;14.220;1.825;0.991;0.000
0040;-1.859;14.152;1.859;0.993;0.000;-1.858;14.148;1.858;0.993;0.000;-1.857;14.146;1.857;0.993;0.000;-1.858;14.162;1.858;0.993;0.000
0041;-1.853;14.267;1.853;0.993;0.000;-1.852;14.249;1.852;0.993;0.000;-1.854;14.237;1.854;0.993;0.000;-1.855;14.237;1.855;0.993;0.000
0042;-1.865;14.292;1.865;0.993;0.000;-1.864;14.284;1.864;0.993;0.000;-1.862;14.285;1.862;0.993;0.000;-1.861;14.283;1.861;0.993;0.000
0043;-1.839;14.517;1.839;0.993;0.000;-1.840;14.511;1.840;0.993;0.000;-1.838;14.497;1.838;0.993;0.000;-1.836;14.471;1.836;0.993;0.000
0044;-1.850;14.495;1.850;0.993;0.000;-1.851;14.485;1.851;0.993;0.000;-1.853;14.449;1.853;0.993;0.000;-1.852;14.422;1.852;0.993;0.000
0045;-1.869;14.279;1.869;0.993;0.000;-1.869;14.277;1.869;0.993;0.000;-1.866;14.248;1.866;0.993;0.000;-1.870;14.244;1.870;0.993;0.000
0046;-1.802;14.453;1.802;0.990;0.000;-1.802;14.449;1.802;0.990;0.000;-1.802;14.448;1.802;0.990;0.000;-1.802;14.447;1.802;0.990;0.000
0047;-1.867;14.324;1.867;0.994;0.000;-1.867;14.321;1.867;0.994;0.000;-1.869;14.326;1.869;0.994;0.000;-1.870;14.320;1.870;0.994;0.000
0048;-1.844;14.261;1.844;0.993;0.000;-1.844;14.273;1.844;0.993;0.000;-1.844;14.262;1.844;0.993;0.000;-1.842;14.246;1.842;0.993;0.000
0049;-1.851;14.517;1.851;0.993;0.000;-1.854;14.535;1.854;0.993;0.000;-1.852;14.515;1.852;0.993;0.000;-1.849;14.496;1.849;0.993;0.000
0050;-1.847;14.312;1.847;0.992;0.000;-1.845;14.312;1.845;0.992;0.000;-1.843;14.304;1.843;0.992;0.000;-1.843;14.298;1.843;0.992;0.000
0052;-1.860;13.964;1.860;0.993;0.000;-1.861;13.948;1.861;0.993;0.000;-1.860;13.911;1.860;0.993;0.000;-1.858;13.908;1.858;0.993;0.000
0053;-1.845;14.456;1.845;0.993;0.000;-1.848;14.456;1.848;0.993;0.000;-1.849;14.471;1.849;0.993;0.000;-1.847;14.471;1.847;0.993;0.000
0055;-1.851;14.141;1.851;0.992;0.000;-1.849;14.135;1.849;0.992;0.000;-1.850;14.143;1.850;0.992;0.000;-1.847;14.125;1.847;0.992;0.000
0056;-1.849;14.288;1.849;0.993;0.000;-1.846;14.263;1.846;0.993;0.000;-1.846;14.263;1.846;0.993;0.000;-1.849;14.279;1.849;0.993;0.000
0057;-1.834;14.208;1.834;0.992;0.000;-1.833;14.216;1.833;0.992;0.000;-1.832;14.176;1.832;0.992;0.000;-1.833;14.169;1.833;0.992;0.000
0058;-1.821;14.537;1.821;0.992;0.000;-1.819;14.533;1.819;0.992;0.000;-1.818;14.529;1.818;0.992;0.000;-1.821;14.524;1.821;0.992;0.000
0059;-1.838;14.382;1.838;0.992;0.000;-1.838;14.382;1.838;0.992;0.000;-1.838;14.361;1.838;0.992;0.000;-1.838;14.362;1.838;0.992;0.000
0060;-1.861;14.308;1.861;0.994;0.000;-1.863;14.315;1.863;0.994;0.000;-1.864;14.321;1.864;0.993;0.000;-1.862;14.308;1.862;0.994;0.000
0061;-1.869;14.112;1.869;0.994;0.000;-1.868;14.118;1.868;0.994;0.000;-1.870;14.137;1.870;0.993;0.000;-1.869;14.130;1.869;0.993;0.000
0062;-1.832;14.473;1.832;0.992;0.000;-1.829;14.465;1.829;0.992;0.000;-1.830;14.478;1.830;0.992;0.000;-1.832;14.496;1.832;0.992;0.000
0063;-1.861;14.008;1.861;0.993;0.000;-1.860;14.032;1.860;0.993;0.000;-1.858;14.029;1.858;0.993;0.000;-1.855;14.023;1.855;0.993;0.000
0064;-1.871;14.387;1.871;0.995;0.000;-1.868;14.389;1.868;0.994;0.000;-1.869;14.400;1.869;0.994;0.000;-1.875;14.398;1.875;0.995;0.000
0065;-1.809;14.360;1.809;0.991;0.000;-1.810;14.370;1.810;0.990;0.000;-1.810;14.371;1.810;0.990;0.000;-1.813;14.370;1.813;0.990;0.000
0066;-1.841;14.415;1.841;0.992;0.000;-1.842;14.425;1.842;0.992;0.000;-1.842;14.420;1.842;0.992;0.000;-1.842;14.407;1.842;0.992;0.000
0067;-1.854;14.233;1.854;0.993;0.000;-1.854;14.218;1.854;0.993;0.000;-1.854;14.219;1.854;0.993;0.000;-1.854;14.224;1.854;0.993;0.000
0068;-1.849;14.604;1.849;0.993;0.000;-1.848;14.583;1.848;0.993;0.000;-1.847;14.568;1.847;0.993;0.000;-1.846;14.569;1.846;0.993;0.000
0069;-1.822;14.206;1.822;0.991;0.000;-1.822;14.239;1.822;0.991;0.000;-1.823;14.249;1.823;0.991;0.000;-1.821;14.233;1.821;0.991;0.000
0070;-1.861;14.363;1.861;0.993;0.000;-1.854;14.393;1.854;0.993;0.000;-1.852;14.382;1.852;0.993;0.000;-1.856;14.323;1.856;0.993;0.000
0071;-1.883;14.615;1.883;0.995;0.000;-1.886;14.651;1.886;0.995;0.000;-1.884;14.638;1.884;0.995;0.000;-1.881;14.576;1.881;0.995;0.000
0072;-1.840;14.327;1.840;0.992;0.000;-1.837;14.339;1.837;0.992;0.000;-1.835;14.353;1.835;0.992;0.000;-1.836;14.346;1.836;0.992;0.000
0073;-1.843;14.303;1.843;0.992;0.000;-1.842;14.307;1.842;0.992;0.000;-1.838;14.289;1.838;0.992;0.000;-1.839;14.293;1.839;0.992;0.000
0074;-1.857;13.025;1.857;0.994;0.000;-1.859;13.026;1.859;0.994;0.000;-1.860;13.033;1.860;0.994;0.000;-1.857;13.015;1.857;0.994;0.000
0075;-1.806;14.394;1.806;0.991;0.000;-1.807;14.389;1.807;0.991;0.000;-1.809;14.379;1.809;0.991;0.000;-1.812;14.387;1.812;0.991;0.000
0076;-1.851;14.236;1.851;0.992;0.000;-1.850;14.262;1.850;0.992;0.000;-1.852;14.290;1.852;0.992;0.000;-1.853;14.295;1.853;0.992;0.000
0077;-1.864;14.346;1.864;0.994;0.000;-1.866;14.332;1.866;0.994;0.000;-1.866;14.345;1.866;0.994;0.000;-1.866;14.353;1.866;0.994;0.000
0078;-1.882;14.152;1.882;0.994;0.000;-1.881;14.158;1.881;0.994;0.000;-1.881;14.163;1.881;0.994;0.000;-1.881;14.154;1.881;0.994;0.000
0079;-1.828;14.335;1.828;0.992;0.000;-1.824;14.347;1.824;0.992;0.000;-1.826;14.353;1.826;0.992;0.000;-1.826;14.346;1.826;0.992;0.000
0080;-1.863;14.042;1.863;0.993;0.000;-1.861;14.034;1.861;0.993;0.000;-1.859;14.027;1.859;0.993;0.000;-1.861;14.023;1.861;0.993;0.000
0081;-1.850;14.457;1.850;0.993;0.000;-1.850;14.454;1.850;0.993;0.000;-1.847;14.439;1.847;0.993;0.000;-1.844;14.464;1.844;0.993;0.000
0082;-1.842;14.324;1.842;0.992;0.000;-1.842;14.319;1.842;0.992;0.000;-1.841;14.325;1.841;0.992;0.000;-1.841;14.316;1.841;0.992;0.000
0083;-1.869;14.202;1.869;0.994;0.000;-1.867;14.168;1.867;0.993;0.000;-1.869;14.150;1.869;0.993;0.000;-1.867;14.132;1.867;0.993;0.000
0084;-1.858;14.202;1.858;0.993;0.000;-1.857;14.186;1.857;0.993;0.000;-1.858;14.171;1.858;0.993;0.000;-1.859;14.178;1.859;0.993;0.000
0085;-1.825;14.696;1.825;0.992;0.000;-1.821;14.635;1.821;0.992;0.000;-1.822;14.623;1.822;0.992;0.000;-1.824;14.626;1.824;0.992;0.000
0086;-1.839;14.315;1.839;0.992;0.000;-1.839;14.303;1.839;0.992;0.000;-1.839;14.293;1.839;0.992;0.000;-1.841;14.288;1.841;0.992;0.000
0087;-1.846;14.699;1.846;0.993;0.000;-1.847;14.702;1.847;0.993;0.000;-1.847;14.686;1.847;0.993;0.000;-1.849;14.684;1.849;0.993;0.000
0088;-1.825;14.513;1.825;0.992;0.000;-1.823;14.523;1.823;0.992;0.000;-1.820;14.528;1.820;0.992;0.000;-1.823;14.532;1.823;0.992;0.000
0089;-1.848;14.539;1.848;0.993;0.000;-1.846;14.529;1.846;0.993;0.000;-1.847;14.535;1.847;0.993;0.000;-1.846;14.536;1.846;0.993;0.000
0090;-1.861;14.302;1.861;0.994;0.000;-1.860;14.296;1.860;0.994;0.000;-1.861;14.295;1.861;0.994;0.000;-1.864;14.294;1.864;0.994;0.000
0091;-1.872;14.347;1.872;0.993;0.000;-1.873;14.355;1.873;0.993;0.000;-1.869;14.325;1.869;0.993;0.000;-1.869;14.323;1.869;0.994;0.000
0093;-1.843;14.321;1.843;0.993;0.000;-1.841;14.325;1.841;0.993;0.000;-1.844;14.348;1.844;0.993;0.000;-1.845;14.363;1.845;0.993;0.000
0094;-1.881;14.203;1.881;0.995;0.000;-1.879;14.204;1.879;0.995;0.000;-1.878;14.210;1.878;0.995;0.000;-1.878;14.218;1.878;0.994;0.000
0095;-1.821;14.244;1.821;0.991;0.000;-1.819;14.238;1.819;0.991;0.000;-1.819;14.237;1.819;0.991;0.000;-1.820;14.234;1.820;0.991;0.000
0096;-1.833;14.231;1.833;0.991;0.000;-1.828;14.236;1.828;0.991;0.000;-1.825;14.191;1.825;0.991;0.000;-1.829;14.214;1.829;0.991;0.000
0097;-1.865;14.501;1.865;0.994;0.000;-1.860;14.455;1.860;0.993;0.000;-1.857;14.454;1.857;0.993;0.000;-1.857;14.452;1.857;0.993;0.000
0099;-1.849;14.216;1.849;0.993;0.000;-1.850;14.217;1.850;0.993;0.000;-1.851;14.223;1.851;0.993;0.000;-1.850;14.221;1.850;0.993;0.000
0100;-1.818;14.378;1.818;0.992;0.000;-1.820;14.373;1.820;0.992;0.000;-1.821;14.346;1.821;0.992;0.000;-1.820;14.364;1.820;0.991;0.000
0101;-1.846;14.385;1.846;0.993;0.000;-1.848;14.392;1.848;0.993;0.000;-1.847;14.389;1.847;0.992;0.000;-1.845;14.374;1.845;0.993;0.000
0102;-1.860;14.261;1.860;0.993;0.000;-1.859;14.249;1.859;0.993;0.000;-1.858;14.253;1.858;0.993;0.000;-1.859;14.264;1.859;0.993;0.000
0103;-1.842;14.334;1.842;0.993;0.000;-1.840;14.346;1.840;0.993;0.000;-1.844;14.336;1.844;0.993;0.000;-1.846;14.327;1.846;0.993;0.000
0104;-1.823;14.151;1.823;0.992;0.000;-1.824;14.184;1.824;0.992;0.000;-1.824;14.198;1.824;0.992;0.000;-1.823;14.197;1.823;0.992;0.000
0105;-1.866;14.313;1.866;0.994;0.000;-1.866;14.303;1.866;0.994;0.000;-1.865;14.283;1.865;0.994;0.000;-1.865;14.268;1.865;0.994;0.000
0106;-1.839;14.258;1.839;0.993;0.000;-1.839;14.274;1.839;0.993;0.000;-1.838;14.272;1.838;0.993;0.000;-1.838;14.271;1.838;0.993;0.000
0107;-1.831;14.382;1.831;0.991;0.000;-1.831;14.383;1.831;0.992;0.000;-1.832;14.389;1.832;0.991;0.000;-1.832;14.392;1.832;0.991;0.000
0108;-1.846;14.194;1.846;0.992;0.000;-1.848;14.224;1.848;0.993;0.000;-1.849;14.227;1.849;0.993;0.000;-1.849;14.218;1.849;0.993;0.000
0109;-1.849;14.417;1.849;0.993;0.000;-1.844;14.422;1.844;0.993;0.000;-1.844;14.424;1.844;0.993;0.000;-1.844;14.423;1.844;0.993;0.000
0111;-1.842;14.459;1.842;0.992;0.000;-1.845;14.474;1.845;0.992;0.000;-1.843;14.468;1.843;0.992;0.000;-1.843;14.463;1.843;0.992;0.000
0112;-1.824;14.308;1.824;0.992;0.000;-1.826;14.334;1.826;0.992;0.000;-1.824;14.341;1.824;0.992;0.000;-1.824;14.339;1.824;0.992;0.000
0113;-1.833;14.304;1.833;0.991;0.000;-1.833;14.327;1.833;0.991;0.000;-1.832;14.308;1.832;0.991;0.000;-1.832;14.288;1.832;0.991;0.000
0114;-1.844;14.486;1.844;0.993;0.000;-1.844;14.495;1.844;0.993;0.000;-1.845;14.477;1.845;0.993;0.000;-1.846;14.467;1.846;0.993;0.000
0115;-1.811;14.533;1.811;0.991;0.000;-1.809;14.505;1.809;0.991;0.000;-1.810;14.500;1.810;0.991;0.000;-1.812;14.551;1.812;0.991;0.000
0116;-1.851;14.370;1.851;0.993;0.000;-1.852;14.362;1.852;0.993;0.000;-1.853;14.347;1.853;0.993;0.000;-1.853;14.335;1.853;0.993;0.000
0117;-1.845;14.225;1.845;0.992;0.000;-1.845;14.228;1.845;0.992;0.000;-1.846;14.232;1.846;0.992;0.000;-1.845;14.226;1.845;0.992;0.000
0118;-1.839;14.342;1.839;0.993;0.000;-1.837;14.340;1.837;0.993;0.000;-1.838;14.342;1.838;0.993;0.000;-1.839;14.336;1.839;0.993;0.000
0119;-1.861;14.227;1.861;0.993;0.000;-1.861;14.232;1.861;0.993;0.000;-1.859;14.224;1.859;0.993;0.000;-1.860;14.218;1.860;0.993;0.000
0120;-1.849;14.142;1.849;0.993;0.000;-1.849;14.147;1.849;0.993;0.000;-1.849;14.144;1.849;0.993;0.000;-1.849;14.145;1.849;0.993;0.000
0122;-1.821;14.265;1.821;0.990;0.000;-1.818;14.228;1.818;0.990;0.000;-1.817;14.213;1.817;0.990;0.000;-1.819;14.219;1.819;0.990;0.000
0123;-1.859;14.292;1.859;0.994;0.000;-1.856;14.282;1.856;0.994;0.000;-1.855;14.276;1.855;0.994;0.000;-1.854;14.267;1.854;0.994;0.000
0124;-1.859;14.123;1.859;0.993;0.000;-1.859;14.119;1.859;0.993;0.000;-1.859;14.107;1.859;0.993;0.000;-1.860;14.107;1.860;0.993;0.000
0125;-1.849;14.018;1.849;0.992;0.000;-1.849;13.999;1.849;0.992;0.000;-1.852;14.006;1.852;0.992;0.000;-1.850;13.995;1.850;0.992;0.000
0126;-1.851;14.372;1.851;0.993;0.000;-1.852;14.404;1.852;0.993;0.000;-1.851;14.389;1.851;0.993;0.000;-1.850;14.399;1.850;0.993;0.000
0127;-1.832;14.189;1.832;0.992;0.000;-1.834;14.216;1.834;0.991;0.000;-1.832;14.210;1.832;0.991;0.000;-1.832;14.205;1.832;0.991;0.000
0128;-1.845;14.288;1.845;0.992;0.000;-1.848;14.278;1.848;0.992;0.000;-1.849;14.269;1.849;0.993;0.000;-1.847;14.269;1.847;0.993;0.000
0129;-1.850;14.846;1.850;0.993;0.000;-1.849;14.817;1.849;0.993;0.000;-1.849;14.800;1.849;0.993;0.000;-1.849;14.809;1.849;0.993;0.000
0130;-1.865;14.150;1.865;0.994;0.000;-1.863;14.141;1.863;0.994;0.000;-1.868;14.180;1.868;0.995;0.000;-1.867;14.168;1.867;0.995;0.000
0131;-1.860;14.398;1.860;0.994;0.000;-1.860;14.397;1.860;0.994;0.000;-1.862;14.402;1.862;0.994;0.000;-1.862;14.397;1.862;0.994;0.000
0132;-1.870;14.358;1.870;0.994;0.000;-1.869;14.359;1.869;0.994;0.000;-1.870;14.363;1.870;0.994;0.000;-1.873;14.377;1.873;0.994;0.000
0133;-1.846;14.445;1.846;0.993;0.000;-1.845;14.435;1.845;0.993;0.000;-1.843;14.443;1.843;0.993;0.000;-1.841;14.447;1.841;0.993;0.000
0134;-1.861;14.428;1.861;0.994;0.000;-1.862;14.447;1.862;0.994;0.000;-1.862;14.445;1.862;0.994;0.000;-1.859;14.428;1.859;0.994;0.000
0135;-1.840;14.269;1.840;0.992;0.000;-1.834;14.273;1.834;0.992;0.000;-1.829;14.272;1.829;0.992;0.000;-1.831;14.275;1.831;0.992;0.000
0136;-1.841;14.266;1.841;0.992;0.000;-1.840;14.268;1.840;0.992;0.000;-1.842;14.270;1.842;0.992;0.000;-1.842;14.264;1.842;0.992;0.000
0137;-1.823;14.444;1.823;0.991;0.000;-1.822;14.439;1.822;0.991;0.000;-1.822;14.442;1.822;0.991;0.000;-1.823;14.454;1.823;0.991;0.000
0138;-1.852;14.127;1.852;0.993;0.000;-1.851;14.134;1.851;0.992;0.000;-1.851;14.133;1.851;0.992;0.000;-1.851;14.130;1.851;0.993;0.000
0139;-1.847;14.185;1.847;0.992;0.000;-1.846;14.189;1.846;0.992;0.000;-1.840;14.200;1.840;0.992;0.000;-1.837;14.187;1.837;0.992;0.000
0140;-1.829;14.634;1.829;0.992;0.000;-1.829;14.632;1.829;0.992;0.000;-1.830;14.642;1.830;0.992;0.000;-1.833;14.656;1.833;0.992;0.000
0141;-1.842;14.271;1.842;0.992;0.000;-1.840;14.280;1.840;0.992;0.000;-1.840;14.314;1.840;0.992;0.000;-1.839;14.332;1.839;0.992;0.000
0142;-1.854;14.158;1.854;0.992;0.000;-1.854;14.169;1.854;0.992;0.000;-1.850;14.183;1.850;0.992;0.000;-1.846;14.182;1.846;0.992;0.000
0144;-1.853;14.610;1.853;0.994;0.000;-1.855;14.611;1.855;0.994;0.000;-1.855;14.624;1.855;0.994;0.000;-1.853;14.623;1.853;0.994;0.000
0145;-1.839;14.398;1.839;0.992;0.000;-1.838;14.387;1.838;0.993;0.000;-1.836;14.394;1.836;0.992;0.000;-1.837;14.404;1.837;0.992;0.000
0146;-1.848;14.459;1.848;0.993;0.000;-1.848;14.441;1.848;0.993;0.000;-1.849;14.444;1.849;0.993;0.000;-1.849;14.448;1.849;0.993;0.000
0147;-1.849;14.268;1.849;0.992;0.000;-1.851;14.273;1.851;0.993;0.000;-1.850;14.272;1.850;0.993;0.000;-1.851;14.292;1.851;0.993;0.000
0148;-1.829;14.256;1.829;0.992;0.000;-1.830;14.257;1.830;0.992;0.000;-1.830;14.259;1.830;0.992;0.000;-1.832;14.259;1.832;0.992;0.000
0149;-1.843;14.592;1.843;0.993;0.000;-1.846;14.578;1.846;0.993;0.000;-1.849;14.583;1.849;0.993;0.000;-1.849;14.579;1.849;0.993;0.000
0150;-1.853;14.170;1.853;0.993;0.000;-1.853;14.162;1.853;0.993;0.000;-1.856;14.168;1.856;0.993;0.000;-1.856;14.155;1.856;0.993;0.000
0151;-1.878;14.000;1.878;0.993;0.000;-1.879;13.973;1.879;0.993;0.000;-1.879;13.981;1.879;0.993;0.000;-1.881;13.987;1.881;0.993;0.000
0152;-1.821;14.395;1.821;0.991;0.000;-1.825;14.408;1.825;0.991;0.000;-1.825;14.427;1.825;0.991;0.000;-1.824;14.429;1.824;0.991;0.000
0153;-1.837;14.619;1.837;0.993;0.000;-1.841;14.659;1.841;0.993;0.000;-1.842;14.658;1.842;0.993;0.000;-1.841;14.629;1.841;0.993;0.000
0154;-1.943;15.551;1.943;0.998;0.000;-1.945;15.679;1.945;0.998;0.000;-1.947;15.666;1.947;0.998;0.000;-1.938;15.431;1.938;0.998;0.000
0155;-1.864;14.235;1.864;0.993;0.000;-1.864;14.225;1.864;0.993;0.000;-1.861;14.208;1.861;0.993;0.000;-1.863;14.214;1.863;0.993;0.000
0156;-1.850;14.360;1.850;0.993;0.000;-1.850;14.348;1.850;0.993;0.000;-1.849;14.344;1.849;0.993;0.000;-1.849;14.346;1.849;0.993;0.000
0157;-1.843;14.370;1.843;0.993;0.000;-1.845;14.325;1.845;0.993;0.000;-1.847;14.342;1.847;0.993;0.000;-1.845;14.342;1.845;0.993;0.000
0158;-1.827;14.561;1.827;0.992;0.000;-1.828;14.567;1.828;0.992;0.000;-1.828;14.560;1.828;0.992;0.000;-1.828;14.559;1.828;0.992;0.000
0159;-1.841;14.492;1.841;0.993;0.000;-1.843;14.502;1.843;0.993;0.000;-1.842;14.491;1.842;0.993;0.000;-1.843;14.481;1.843;0.993;0.000
0160;-1.846;14.270;1.846;0.993;0.000;-1.845;14.264;1.845;0.993;0.000;-1.845;14.263;1.845;0.993;0.000;-1.847;14.276;1.847;0.992;0.000
0161;-1.825;14.328;1.825;0.991;0.000;-1.823;14.283;1.823;0.991;0.000;-1.824;14.287;1.824;0.991;0.000;-1.823;14.263;1.823;0.991;0.000
0162;-1.825;14.583;1.825;0.992;0.000;-1.827;14.589;1.827;0.992;0.000;-1.825;14.592;1.825;0.992;0.000;-1.824;14.589;1.824;0.992;0.000
0163;-1.849;14.195;1.849;0.993;0.000;-1.850;14.209;1.850;0.993;0.000;-1.850;14.211;1.850;0.992;0.000;-1.850;14.205;1.850;0.992;0.000
0164;-1.854;14.355;1.854;0.993;0.000;-1.853;14.336;1.853;0.993;0.000;-1.852;14.310;1.852;0.993;0.000;-1.854;14.321;1.854;0.993;0.000
0165;-1.851;14.456;1.851;0.993;0.000;-1.850;14.448;1.850;0.993;0.000;-1.848;14.437;1.848;0.993;0.000;-1.848;14.448;1.848;0.993;0.000
0166;-1.841;14.474;1.841;0.993;0.000;-1.842;14.482;1.842;0.993;0.000;-1.842;14.474;1.842;0.993;0.000;-1.842;14.471;1.842;0.993;0.000
0168;-1.838;14.415;1.838;0.992;0.000;-1.838;14.422;1.838;0.992;0.000;-1.837;14.410;1.837;0.992;0.000;-1.835;14.395;1.835;0.992;0.000
0169;-1.859;13.961;1.859;0.993;0.000;-1.861;13.958;1.861;0.993;0.000;-1.859;13.945;1.859;0.993;0.000;-1.859;13.954;1.859;0.993;0.000
0170;-1.863;14.263;1.863;0.993;0.000;-1.862;14.281;1.862;0.993;0.000;-1.861;14.296;1.861;0.993;0.000;-1.861;14.295;1.861;0.993;0.000
0171;-1.834;14.197;1.834;0.991;0.000;-1.834;14.200;1.834;0.991;0.000;-1.834;14.178;1.834;0.991;0.000;-1.835;14.172;1.835;0.991;0.000
0173;-1.851;14.395;1.851;0.993;0.000;-1.852;14.383;1.852;0.993;0.000;-1.852;14.369;1.852;0.993;0.000;-1.852;14.363;1.852;0.993;0.000
0174;-1.876;13.992;1.876;0.994;0.000;-1.875;13.987;1.875;0.994;0.000;-1.879;13.995;1.879;0.994;0.000;-1.882;14.000;1.882;0.994;0.000
0175;-1.839;14.633;1.839;0.993;0.000;-1.840;14.645;1.840;0.993;0.000;-1.842;14.639;1.842;0.993;0.000;-1.840;14.630;1.840;0.993;0.000
0176;-1.825;14.148;1.825;0.991;0.000;-1.823;14.134;1.823;0.991;0.000;-1.825;14.148;1.825;0.991;0.000;-1.826;14.151;1.826;0.991;0.000
0177;-1.851;14.430;1.851;0.993;0.000;-1.849;14.417;1.849;0.993;0.000;-1.851;14.422;1.851;0.993;0.000;-1.853;14.419;1.853;0.993;0.000
0178;-1.845;14.250;1.845;0.993;0.000;-1.847;14.252;1.847;0.993;0.000;-1.846;14.256;1.846;0.993;0.000;-1.844;14.247;1.844;0.993;0.000
0179;-1.827;14.215;1.827;0.992;0.000;-1.836;14.219;1.836;0.992;0.000;-1.844;14.181;1.844;0.992;0.000;-1.835;14.243;1.835;0.992;0.000
0180;-1.841;14.323;1.841;0.992;0.000;-1.838;14.323;1.838;0.992;0.000;-1.838;14.316;1.838;0.992;0.000;-1.839;14.322;1.839;0.992;0.000
0181;-1.851;14.110;1.851;0.993;0.000;-1.850;14.121;1.850;0.992;0.000;-1.852;14.137;1.852;0.992;0.000;-1.854;14.140;1.854;0.992;0.000
0182;-1.844;14.275;1.844;0.992;0.000;-1.844;14.274;1.844;0.992;0.000;-1.844;14.275;1.844;0.992;0.000;-1.846;14.292;1.846;0.992;0.000
0183;-1.826;14.449;1.826;0.992;0.000;-1.826;14.447;1.826;0.992;0.000;-1.825;14.450;1.825;0.992;0.000;-1.824;14.452;1.824;0.992;0.000
0184;-1.860;14.558;1.860;0.994;0.000;-1.856;14.526;1.856;0.994;0.000;-1.852;14.496;1.852;0.993;0.000;-1.853;14.492;1.853;0.993;0.000
0185;-1.855;14.197;1.855;0.994;0.000;-1.854;14.207;1.854;0.994;0.000;-1.843;14.185;1.843;0.994;0.000;-1.833;14.200;1.833;0.993;0.000
0186;-1.902;14.105;1.902;0.997;0.000;-1.907;14.251;1.907;0.997;0.000;-1.896;14.329;1.896;0.996;0.000;-1.882;14.260;1.882;0.997;0.000
0187;-1.854;14.504;1.854;0.994;0.000;-1.852;14.521;1.852;0.994;0.000;-1.854;14.541;1.854;0.994;0.000;-1.853;14.503;1.853;0.994;0.000
0188;-1.856;14.589;1.856;0.995;0.000;-1.855;14.588;1.855;0.995;0.000;-1.855;14.590;1.855;0.995;0.000;-1.855;14.576;1.855;0.995;0.000
0189;-1.874;14.438;1.874;0.994;0.000;-1.873;14.465;1.873;0.994;0.000;-1.873;14.477;1.873;0.994;0.000;-1.873;14.481;1.873;0.994;0.000
0190;-1.862;14.466;1.862;0.995;0.000;-1.863;14.457;1.863;0.995;0.000;-1.863;14.465;1.863;0.995;0.000;-1.865;14.487;1.865;0.995;0.000
0191;-1.835;14.452;1.835;0.993;0.000;-1.835;14.450;1.835;0.993;0.000;-1.833;14.461;1.833;0.993;0.000;-1.833;14.447;1.833;0.993;0.000
0192;-1.835;14.379;1.835;0.993;0.000;-1.835;14.369;1.835;0.992;0.000;-1.833;14.340;1.833;0.992;0.000;-1.833;14.353;1.833;0.992;0.000
0193;-1.858;14.321;1.858;0.994;0.000;-1.860;14.327;1.860;0.994;0.000;-1.858;14.336;1.858;0.994;0.000;-1.860;14.339;1.860;0.994;0.000
0194;-1.815;14.435;1.815;0.990;0.000;-1.815;14.443;1.815;0.990;0.000;-1.816;14.442;1.816;0.990;0.000;-1.815;14.434;1.815;0.990;0.000
0195;-1.839;14.737;1.839;0.993;0.000;-1.835;14.711;1.835;0.993;0.000;-1.835;14.706;1.835;0.993;0.000;-1.838;14.763;1.838;0.993;0.000
0196;-1.814;14.209;1.814;0.991;0.000;-1.813;14.209;1.813;0.991;0.000;-1.814;14.235;1.814;0.991;0.000;-1.814;14.256;1.814;0.991;0.000
0197;-1.842;14.529;1.842;0.993;0.000;-1.844;14.504;1.844;0.993;0.000;-1.845;14.487;1.845;0.993;0.000;-1.841;14.471;1.841;0.993;0.000
0198;-1.855;14.079;1.855;0.993;0.000;-1.853;14.067;1.853;0.993;0.000;-1.854;14.060;1.854;0.993;0.000;-1.856;14.079;1.856;0.993;0.000
0199;-1.833;14.332;1.833;0.993;0.000;-1.832;14.335;1.832;0.993;0.000;-1.833;14.333;1.833;0.992;0.000;-1.834;14.332;1.834;0.992;0.000
0200;-1.844;14.307;1.844;0.993;0.000;-1.846;14.299;1.846;0.993;0.000;-1.843;14.306;1.843;0.993;0.000;-1.840;14.300;1.840;0.993;0.000
0201;-1.828;14.361;1.828;0.992;0.000;-1.826;14.374;1.826;0.992;0.000;-1.824;14.367;1.824;0.992;0.000;-1.826;14.366;1.826;0.992;0.000
0202;-1.833;14.391;1.833;0.992;0.000;-1.832;14.389;1.832;0.992;0.000;-1.832;14.388;1.832;0.992;0.000;-1.829;14.385;1.829;0.992;0.000
0203;-1.833;14.087;1.833;0.992;0.000;-1.834;14.102;1.834;0.991;0.000;-1.834;14.096;1.834;0.991;0.000;-1.833;14.066;1.833;0.991;0.000
0204;-1.827;14.701;1.827;0.993;0.000;-1.826;14.693;1.826;0.993;0.000;-1.824;14.671;1.824;0.993;0.000;-1.822;14.653;1.822;0.992;0.000
0205;-1.836;14.256;1.836;0.992;0.000;-1.833;14.286;1.833;0.992;0.000;-1.834;14.306;1.834;0.992;0.000;-1.834;14.302;1.834;0.992;0.000
0206;-1.850;14.419;1.850;0.993;0.000;-1.848;14.405;1.848;0.993;0.000;-1.851;14.417;1.851;0.993;0.000;-1.851;14.424;1.851;0.993;0.000
0207;-1.820;14.554;1.820;0.992;0.000;-1.818;14.547;1.818;0.992;0.000;-1.817;14.541;1.817;0.992;0.000;-1.820;14.542;1.820;0.992;0.000
0208;-1.846;14.055;1.846;0.992;0.000;-1.847;14.042;1.847;0.992;0.000;-1.847;14.031;1.847;0.992;0.000;-1.848;14.041;1.848;0.992;0.000
0209;-1.852;14.349;1.852;0.993;0.000;-1.850;14.336;1.850;0.993;0.000;-1.853;14.349;1.853;0.993;0.000;-1.852;14.340;1.852;0.993;0.000
0210;-1.870;14.444;1.870;0.994;0.000;-1.871;14.473;1.871;0.994;0.000;-1.872;14.491;1.872;0.994;0.000;-1.870;14.481;1.870;0.994;0.000
0211;-1.882;15.141;1.882;0.996;0.000;-1.897;15.382;1.897;0.996;0.000;-1.898;15.375;1.898;0.996;0.000;-1.898;15.362;1.898;0.996;0.000
0212;-1.831;14.468;1.831;0.992;0.000;-1.831;14.476;1.831;0.992;0.000;-1.831;14.481;1.831;0.992;0.000;-1.829;14.460;1.829;0.992;0.000
0213;-1.864;14.683;1.864;0.994;0.000;-1.867;14.610;1.867;0.995;0.000;-1.868;14.609;1.868;0.994;0.000;-1.868;14.632;1.868;0.994;0.000
0215;-1.861;14.311;1.861;0.994;0.000;-1.861;14.306;1.861;0.994;0.000;-1.865;14.334;1.865;0.994;0.000;-1.863;14.328;1.863;0.994;0.000
0216;-1.839;14.459;1.839;0.992;0.000;-1.840;14.432;1.840;0.992;0.000;-1.841;14.439;1.841;0.992;0.000;-1.838;14.434;1.838;0.992;0.000
0217;-1.837;14.632;1.837;0.993;0.000;-1.835;14.608;1.835;0.993;0.000;-1.834;14.601;1.834;0.992;0.000;-1.835;14.589;1.835;0.993;0.000
0218;-1.834;14.442;1.834;0.992;0.000;-1.840;14.444;1.840;0.992;0.000;-1.839;14.435;1.839;0.992;0.000;-1.834;14.436;1.834;0.992;0.000
0219;-1.845;14.249;1.845;0.992;0.000;-1.846;14.221;1.846;0.993;0.000;-1.846;14.254;1.846;0.992;0.000;-1.843;14.302;1.843;0.992;0.000
0220;-1.830;14.574;1.830;0.992;0.000;-1.830;14.566;1.830;0.992;0.000;-1.830;14.528;1.830;0.992;0.000;-1.832;14.536;1.832;0.992;0.000
0221;-1.831;14.383;1.831;0.992;0.000;-1.830;14.392;1.830;0.992;0.000;-1.828;14.371;1.828;0.992;0.000;-1.827;14.346;1.827;0.992;0.000
0222;-1.851;14.162;1.851;0.993;0.000;-1.852;14.179;1.852;0.992;0.000;-1.852;14.192;1.852;0.992;0.000;-1.849;14.183;1.849;0.992;0.000
0223;-1.864;14.428;1.864;0.994;0.000;-1.864;14.429;1.864;0.994;0.000;-1.867;14.424;1.867;0.994;0.000;-1.865;14.425;1.865;0.994;0.000
0224;-1.846;14.281;1.846;0.992;0.000;-1.845;14.293;1.845;0.992;0.000;-1.845;14.294;1.845;0.992;0.000;-1.845;14.301;1.845;0.992;0.000
0225;-1.872;14.472;1.872;0.994;0.000;-1.871;14.480;1.871;0.995;0.000;-1.872;14.481;1.872;0.995;0.000;-1.873;14.459;1.873;0.994;0.000
0226;-1.854;14.201;1.854;0.993;0.000;-1.854;14.186;1.854;0.993;0.000;-1.854;14.171;1.854;0.993;0.000;-1.856;14.175;1.856;0.993;0.000
0227;-1.852;14.373;1.852;0.993;0.000;-1.859;14.388;1.859;0.992;0.000;-1.852;14.362;1.852;0.993;0.000;-1.854;14.385;1.854;0.993;0.000
0228;-1.861;14.338;1.861;0.994;0.000;-1.864;14.348;1.864;0.994;0.000;-1.864;14.359;1.864;0.993;0.000;-1.863;14.340;1.863;0.993;0.000
0230;-1.843;14.201;1.843;0.992;0.000;-1.842;14.187;1.842;0.992;0.000;-1.841;14.184;1.841;0.992;0.000;-1.840;14.182;1.840;0.992;0.000
0231;-1.855;14.321;1.855;0.993;0.000;-1.856;14.312;1.856;0.994;0.000;-1.857;14.293;1.857;0.993;0.000;-1.857;14.292;1.857;0.993;0.000
0233;-1.852;14.205;1.852;0.993;0.000;-1.850;14.207;1.850;0.993;0.000;-1.850;14.195;1.850;0.993;0.000;-1.850;14.182;1.850;0.993;0.000
0234;-1.841;14.022;1.841;0.992;0.000;-1.840;14.021;1.840;0.992;0.000;-1.838;14.027;1.838;0.992;0.000;-1.838;14.036;1.838;0.992;0.000
0235;-1.862;14.316;1.862;0.993;0.000;-1.860;14.309;1.860;0.993;0.000;-1.858;14.315;1.858;0.993;0.000;-1.857;14.309;1.857;0.993;0.000
0236;-1.889;14.272;1.889;0.995;0.000;-1.890;14.290;1.890;0.995;0.000;-1.886;14.283;1.886;0.995;0.000;-1.885;14.277;1.885;0.995;0.000
0237;-1.828;14.474;1.828;0.991;0.000;-1.826;14.461;1.826;0.991;0.000;-1.825;14.456;1.825;0.991;0.000;-1.825;14.459;1.825;0.991;0.000
0238;-1.851;14.228;1.851;0.992;0.000;-1.850;14.233;1.850;0.992;0.000;-1.849;14.238;1.849;0.992;0.000;-1.848;14.237;1.848;0.992;0.000
0239;-1.863;14.512;1.863;0.994;0.000;-1.862;14.502;1.862;0.994;0.000;-1.862;14.499;1.862;0.994;0.000;-1.861;14.498;1.861;0.994;0.000
0240;-1.853;13.883;1.853;0.993;0.000;-1.854;13.906;1.854;0.993;0.000;-1.853;13.910;1.853;0.993;0.000;-1.852;13.901;1.852;0.993;0.000
0241;-1.851;14.014;1.851;0.993;0.000;-1.851;14.016;1.851;0.993;0.000;-1.852;14.020;1.852;0.993;0.000;-1.852;14.020;1.852;0.993;0.000
0242;-1.847;14.225;1.847;0.992;0.000;-1.843;14.225;1.843;0.992;0.000;-1.842;14.227;1.842;0.992;0.000;-1.844;14.217;1.844;0.992;0.000
0243;-1.846;14.577;1.846;0.993;0.000;-1.851;14.548;1.851;0.993;0.000;-1.853;14.550;1.853;0.993;0.000;-1.851;14.536;1.851;0.993;0.000
0244;-1.933;14.746;1.933;0.995;0.000;-1.930;14.668;1.930;0.994;0.000;-1.929;14.658;1.929;0.994;0.000;-1.923;14.692;1.923;0.995;0.000
0245;-1.850;14.245;1.850;0.993;0.000;-1.853;14.254;1.853;0.993;0.000;-1.856;14.264;1.856;0.993;0.000;-1.855;14.253;1.855;0.993;0.000
0246;-1.826;14.457;1.826;0.992;0.000;-1.823;14.456;1.823;0.992;0.000;-1.822;14.448;1.822;0.992;0.000;-1.822;14.453;1.822;0.991;0.000
0247;-1.840;14.279;1.840;0.992;0.000;-1.840;14.290;1.840;0.992;0.000;-1.838;14.287;1.838;0.992;0.000;-1.838;14.279;1.838;0.992;0.000
0248;-1.851;14.408;1.851;0.993;0.000;-1.852;14.404;1.852;0.993;0.000;-1.852;14.403;1.852;0.993;0.000;-1.854;14.401;1.854;0.993;0.000
0249;-1.846;14.680;1.846;0.993;0.000;-1.845;14.678;1.845;0.993;0.000;-1.847;14.686;1.847;0.993;0.000;-1.848;14.692;1.848;0.993;0.000
0250;-1.879;14.419;1.879;0.995;0.000;-1.879;14.418;1.879;0.995;0.000;-1.879;14.422;1.879;0.995;0.000;-1.877;14.424;1.877;0.995;0.000
0251;-1.866;14.002;1.866;0.993;0.000;-1.868;14.020;1.868;0.993;0.000;-1.867;14.021;1.867;0.993;0.000;-1.865;14.019;1.865;0.993;0.000
0252;-1.866;14.152;1.866;0.994;0.000;-1.864;14.132;1.864;0.994;0.000;-1.871;14.109;1.871;0.994;0.000;-1.869;14.104;1.869;0.994;0.000
0253;-1.834;14.432;1.834;0.992;0.000;-1.834;14.427;1.834;0.992;0.000;-1.836;14.425;1.836;0.992;0.000;-1.835;14.413;1.835;0.992;0.000
0254;-1.846;14.759;1.846;0.993;0.000;-1.848;14.765;1.848;0.993;0.000;-1.847;14.764;1.847;0.993;0.000;-1.846;14.759;1.846;0.993;0.000
0255;-1.823;14.490;1.823;0.991;0.000;-1.824;14.479;1.824;0.991;0.000;-1.825;14.477;1.825;0.991;0.000;-1.821;14.462;1.821;0.991;0.000
0256;-1.856;14.212;1.856;0.993;0.000;-1.856;14.216;1.856;0.993;0.000;-1.859;14.217;1.859;0.993;0.000;-1.859;14.218;1.859;0.993;0.000
0257;-1.847;14.338;1.847;0.994;0.000;-1.844;14.326;1.844;0.994;0.000;-1.844;14.322;1.844;0.994;0.000;-1.845;14.322;1.845;0.994;0.000
0258;-1.847;14.362;1.847;0.993;0.000;-1.846;14.368;1.846;0.993;0.000;-1.846;14.366;1.846;0.993;0.000;-1.843;14.342;1.843;0.993;0.000
0259;-1.853;14.148;1.853;0.993;0.000;-1.851;14.138;1.851;0.993;0.000;-1.852;14.136;1.852;0.993;0.000;-1.851;14.130;1.851;0.993;0.000
0260;-1.843;14.390;1.843;0.993;0.000;-1.841;14.391;1.841;0.992;0.000;-1.840;14.389;1.840;0.993;0.000;-1.840;14.390;1.840;0.993;0.000
0261;-1.886;14.404;1.886;0.995;0.000;-1.878;14.404;1.878;0.995;0.000;-1.876;14.392;1.876;0.995;0.000;-1.879;14.402;1.879;0.995;0.000
0262;-1.846;14.184;1.846;0.993;0.000;-1.847;14.165;1.847;0.993;0.000;-1.849;14.160;1.849;0.993;0.000;-1.849;14.165;1.849;0.993;0.000
0263;-1.860;14.381;1.860;0.994;0.000;-1.861;14.386;1.861;0.994;0.000;-1.861;14.375;1.861;0.994;0.000;-1.859;14.364;1.859;0.994;0.000
0264;-1.862;14.277;1.862;0.993;0.000;-1.864;14.276;1.864;0.993;0.000;-1.864;14.262;1.864;0.993;0.000;-1.861;14.268;1.861;0.993;0.000
0265;-1.850;14.507;1.850;0.993;0.000;-1.849;14.487;1.849;0.993;0.000;-1.849;14.466;1.849;0.993;0.000;-1.849;14.421;1.849;0.993;0.000
0266;-1.838;14.364;1.838;0.992;0.000;-1.837;14.374;1.837;0.992;0.000;-1.837;14.383;1.837;0.992;0.000;-1.837;14.378;1.837;0.992;0.000
0267;-1.849;14.270;1.849;0.993;0.000;-1.852;14.299;1.852;0.993;0.000;-1.851;14.283;1.851;0.993;0.000;-1.850;14.276;1.850;0.993;0.000
0268;-1.830;14.416;1.830;0.992;0.000;-1.828;14.420;1.828;0.991;0.000;-1.828;14.434;1.828;0.991;0.000;-1.824;14.422;1.824;0.991;0.000
0269;-1.843;14.224;1.843;0.993;0.000;-1.845;14.255;1.845;0.992;0.000;-1.843;14.244;1.843;0.993;0.000;-1.841;14.241;1.841;0.992;0.000
0270;-1.876;14.297;1.876;0.994;0.000;-1.874;14.279;1.874;0.994;0.000;-1.876;14.253;1.876;0.994;0.000;-1.871;14.253;1.871;0.994;0.000
0271;-1.838;14.854;1.838;0.994;0.000;-1.838;14.844;1.838;0.994;0.000;-1.836;14.833;1.836;0.994;0.000;-1.836;14.828;1.836;0.994;0.000
0272;-1.864;14.719;1.864;0.994;0.000;-1.863;14.748;1.863;0.995;0.000;-1.859;14.771;1.859;0.995;0.000;-1.859;14.792;1.859;0.995;0.000
0273;-1.820;14.398;1.820;0.991;0.000;-1.822;14.424;1.822;0.992;0.000;-1.823;14.426;1.823;0.992;0.000;-1.822;14.400;1.822;0.991;0.000
0274;-1.835;14.288;1.835;0.992;0.000;-1.836;14.261;1.836;0.992;0.000;-1.835;14.275;1.835;0.992;0.000;-1.835;14.304;1.835;0.992;0.000
0275;-1.851;14.294;1.851;0.993;0.000;-1.851;14.293;1.851;0.993;0.000;-1.854;14.294;1.854;0.993;0.000;-1.856;14.300;1.856;0.993;0.000
0276;-1.879;14.904;1.879;0.996;0.000;-1.882;14.914;1.882;0.996;0.000;-1.883;14.927;1.883;0.996;0.000;-1.881;14.931;1.881;0.996;0.000
0277;-1.850;14.551;1.850;0.993;0.000;-1.851;14.558;1.851;0.993;0.000;-1.850;14.565;1.850;0.993;0.000;-1.850;14.573;1.850;0.993;0.000
0278;-1.883;14.151;1.883;0.995;0.000;-1.882;14.153;1.882;0.994;0.000;-1.883;14.156;1.883;0.994;0.000;-1.884;14.148;1.884;0.994;0.000
0279;-1.835;14.525;1.835;0.992;0.000;-1.835;14.493;1.835;0.992;0.000;-1.836;14.491;1.836;0.992;0.000;-1.834;14.495;1.834;0.992;0.000
0281;-1.851;14.339;1.851;0.993;0.000;-1.850;14.349;1.850;0.993;0.000;-1.850;14.362;1.850;0.993;0.000;-1.849;14.358;1.849;0.993;0.000
0282;-1.844;14.432;1.844;0.992;0.000;-1.844;14.427;1.844;0.992;0.000;-1.844;14.407;1.844;0.992;0.000;-1.846;14.429;1.846;0.992;0.000
0283;-1.829;14.368;1.829;0.992;0.000;-1.829;14.365;1.829;0.992;0.000;-1.829;14.366;1.829;0.992;0.000;-1.832;14.370;1.832;0.992;0.000
0284;-1.824;14.280;1.824;0.994;0.000;-1.861;14.213;1.861;0.994;0.000;-1.855;14.195;1.855;0.994;0.000;-1.861;14.212;1.861;0.994;0.000
0285;-1.840;14.665;1.840;0.993;0.000;-1.839;14.651;1.839;0.993;0.000;-1.841;14.646;1.841;0.993;0.000;-1.843;14.645;1.843;0.993;0.000
0286;-1.846;14.399;1.846;0.992;0.000;-1.846;14.398;1.846;0.992;0.000;-1.847;14.403;1.847;0.992;0.000;-1.848;14.411;1.848;0.992;0.000
0287;-1.765;13.843;1.765;0.986;0.000;-1.766;13.852;1.766;0.986;0.000;-1.767;13.867;1.767;0.986;0.000;-1.767;13.865;1.767;0.986;0.000
0288;-1.878;14.358;1.878;0.995;0.000;-1.878;14.357;1.878;0.995;0.000;-1.878;14.361;1.878;0.995;0.000;-1.879;14.369;1.879;0.995;0.000
0289;-1.851;14.299;1.851;0.993;0.000;-1.850;14.302;1.850;0.993;0.000;-1.847;14.299;1.847;0.993;0.000;-1.846;14.285;1.846;0.993;0.000
0290;-1.851;14.361;1.851;0.993;0.000;-1.849;14.374;1.849;0.993;0.000;-1.846;14.374;1.846;0.993;0.000;-1.846;14.382;1.846;0.993;0.000
0291;-1.851;14.567;1.851;0.993;0.000;-1.850;14.573;1.850;0.993;0.000;-1.851;14.556;1.851;0.993;0.000;-1.848;14.525;1.848;0.993;0.000
0292;-1.833;14.533;1.833;0.992;0.000;-1.834;14.537;1.834;0.992;0.000;-1.835;14.548;1.835;0.992;0.000;-1.835;14.562;1.835;0.992;0.000
0294;-1.859;13.911;1.859;0.993;0.000;-1.857;13.907;1.857;0.993;0.000;-1.858;13.916;1.858;0.993;0.000;-1.859;13.917;1.859;0.993;0.000
0295;-1.851;14.306;1.851;0.993;0.000;-1.850;14.307;1.850;0.993;0.000;-1.852;14.302;1.852;0.993;0.000;-1.851;14.289;1.851;0.993;0.000
0296;-1.855;14.480;1.855;0.993;0.000;-1.852;14.468;1.852;0.993;0.000;-1.853;14.470;1.853;0.993;0.000;-1.854;14.474;1.854;0.993;0.000
0297;-1.866;14.244;1.866;0.993;0.000;-1.861;14.246;1.861;0.993;0.000;-1.860;14.262;1.860;0.993;0.000;-1.861;14.253;1.861;0.993;0.000
0298;-1.832;14.699;1.832;0.993;0.000;-1.832;14.701;1.832;0.992;0.000;-1.832;14.702;1.832;0.992;0.000;-1.831;14.696;1.831;0.992;0.000
0299;-1.844;14.314;1.844;0.993;0.000;-1.845;14.324;1.845;0.993;0.000;-1.844;14.307;1.844;0.993;0.000;-1.844;14.298;1.844;0.993;0.000
0301;-1.827;14.379;1.827;0.992;0.000;-1.823;14.394;1.823;0.991;0.000;-1.822;14.396;1.822;0.992;0.000;-1.824;14.379;1.824;0.992;0.000
0302;-1.859;14.508;1.859;0.994;0.000;-1.860;14.499;1.860;0.994;0.000;-1.862;14.519;1.862;0.994;0.000;-1.862;14.522;1.862;0.994;0.000
0303;-1.816;14.419;1.816;0.991;0.000;-1.814;14.408;1.814;0.992;0.000;-1.816;14.416;1.816;0.992;0.000;-1.819;14.411;1.819;0.992;0.000
0304;-1.843;14.518;1.843;0.993;0.000;-1.844;14.519;1.844;0.993;0.000;-1.841;14.512;1.841;0.993;0.000;-1.840;14.497;1.840;0.993;0.000
0305;-1.863;14.479;1.863;0.995;0.000;-1.857;14.493;1.857;0.994;0.000;-1.858;14.501;1.858;0.994;0.000;-1.860;14.502;1.860;0.994;0.000
0306;-1.864;14.368;1.864;0.994;0.000;-1.860;14.388;1.860;0.994;0.000;-1.859;14.428;1.859;0.994;0.000;-1.864;14.435;1.864;0.994;0.000
0307;-1.849;14.265;1.849;0.993;0.000;-1.850;14.255;1.850;0.993;0.000;-1.849;14.258;1.849;0.993;0.000;-1.850;14.240;1.850;0.993;0.000
0308;-1.840;14.401;1.840;0.992;0.000;-1.838;14.396;1.838;0.992;0.000;-1.838;14.405;1.838;0.992;0.000;-1.836;14.391;1.836;0.992;0.000
0309;-1.863;14.588;1.863;0.993;0.000;-1.863;14.613;1.863;0.993;0.000;-1.859;14.616;1.859;0.993;0.000;-1.856;14.613;1.856;0.993;0.000
0310;-1.849;14.386;1.849;0.993;0.000;-1.847;14.379;1.847;0.993;0.000;-1.845;14.390;1.845;0.993;0.000;-1.843;14.396;1.843;0.993;0.000
0312;-1.858;14.667;1.858;0.994;0.000;-1.858;14.661;1.858;0.994;0.000;-1.858;14.667;1.858;0.994;0.000;-1.858;14.656;1.858;0.994;0.000
0313;-1.846;14.384;1.846;0.993;0.000;-1.848;14.394;1.848;0.993;0.000;-1.847;14.391;1.847;0.993;0.000;-1.846;14.383;1.846;0.993;0.000
0314;-1.841;14.462;1.841;0.992;0.000;-1.841;14.455;1.841;0.992;0.000;-1.841;14.443;1.841;0.992;0.000;-1.840;14.429;1.840;0.992;0.000
0315;-1.864;14.264;1.864;0.994;0.000;-1.865;14.273;1.865;0.994;0.000;-1.862;14.237;1.862;0.994;0.000;-1.864;14.244;1.864;0.994;0.000
0316;-1.858;14.608;1.858;0.994;0.000;-1.858;14.598;1.858;0.994;0.000;-1.857;14.591;1.857;0.994;0.000;-1.858;14.585;1.858;0.994;0.000
0317;-1.856;14.315;1.856;0.994;0.000;-1.856;14.299;1.856;0.993;0.000;-1.855;14.298;1.855;0.994;0.000;-1.854;14.283;1.854;0.994;0.000
0318;-1.873;14.110;1.873;0.994;0.000;-1.873;14.114;1.873;0.994;0.000;-1.872;14.118;1.872;0.994;0.000;-1.875;14.126;1.875;0.994;0.000
0319;-1.842;14.286;1.842;0.993;0.000;-1.843;14.306;1.843;0.993;0.000;-1.843;14.301;1.843;0.993;0.000;-1.843;14.282;1.843;0.993;0.000
0320;-1.875;14.533;1.875;0.995;0.000;-1.875;14.513;1.875;0.995;0.000;-1.874;14.491;1.874;0.995;0.000;-1.873;14.490;1.873;0.995;0.000
0321;-1.835;14.285;1.835;0.992;0.000;-1.834;14.270;1.834;0.992;0.000;-1.831;14.258;1.831;0.992;0.000;-1.830;14.259;1.830;0.992;0.000
0322;-1.869;14.496;1.869;0.995;0.000;-1.871;14.492;1.871;0.995;0.000;-1.872;14.490;1.872;0.995;0.000;-1.875;14.505;1.875;0.995;0.000
0323;-1.846;14.459;1.846;0.993;0.000;-1.846;14.461;1.846;0.992;0.000;-1.846;14.453;1.846;0.992;0.000;-1.844;14.438;1.844;0.993;0.000
0324;-1.815;14.464;1.815;0.991;0.000;-1.817;14.458;1.817;0.991;0.000;-1.818;14.448;1.818;0.991;0.000;-1.820;14.449;1.820;0.991;0.000
0325;-1.847;14.336;1.847;0.993;0.000;-1.846;14.334;1.846;0.993;0.000;-1.846;14.322;1.846;0.993;0.000;-1.845;14.336;1.845;0.993;0.000
0326;-1.856;14.428;1.856;0.994;0.000;-1.852;14.415;1.852;0.994;0.000;-1.853;14.417;1.853;0.994;0.000;-1.854;14.402;1.854;0.994;0.000
0327;-1.832;14.446;1.832;0.991;0.000;-1.831;14.443;1.831;0.991;0.000;-1.831;14.438;1.831;0.991;0.000;-1.830;14.431;1.830;0.991;0.000
0328;-1.828;14.266;1.828;0.992;0.000;-1.829;14.264;1.829;0.992;0.000;-1.829;14.270;1.829;0.992;0.000;-1.826;14.270;1.826;0.992;0.000
0329;-1.849;14.785;1.849;0.993;0.000;-1.850;14.774;1.850;0.994;0.000;-1.851;14.762;1.851;0.994;0.000;-1.851;14.767;1.851;0.993;0.000
0330;-1.849;14.476;1.849;0.994;0.000;-1.849;14.448;1.849;0.993;0.000;-1.849;14.419;1.849;0.993;0.000;-1.847;14.423;1.847;0.993;0.000
0331;-1.856;14.502;1.856;0.994;0.000;-1.854;14.496;1.854;0.994;0.000;-1.854;14.483;1.854;0.994;0.000;-1.855;14.480;1.855;0.994;0.000
0332;-1.895;14.283;1.895;0.996;0.000;-1.896;14.210;1.896;0.996;0.000;-1.895;14.279;1.895;0.996;0.000;-1.890;14.402;1.890;0.996;0.000
0333;-1.828;14.377;1.828;0.992;0.000;-1.828;14.383;1.828;0.992;0.000;-1.826;14.375;1.826;0.992;0.000;-1.828;14.373;1.828;0.992;0.000
0334;-1.858;14.404;1.858;0.994;0.000;-1.856;14.403;1.856;0.994;0.000;-1.856;14.402;1.856;0.994;0.000;-1.857;14.400;1.857;0.994;0.000
0336;-1.836;14.338;1.836;0.992;0.000;-1.836;14.338;1.836;0.992;0.000;-1.836;14.336;1.836;0.992;0.000;-1.836;14.331;1.836;0.992;0.000
0337;-1.838;14.476;1.838;0.993;0.000;-1.836;14.488;1.836;0.993;0.000;-1.838;14.506;1.838;0.993;0.000;-1.840;14.521;1.840;0.993;0.000
0338;-1.846;14.509;1.846;0.993;0.000;-1.846;14.498;1.846;0.993;0.000;-1.844;14.492;1.844;0.993;0.000;-1.848;14.506;1.848;0.993;0.000
0339;-1.862;14.331;1.862;0.993;0.000;-1.862;14.320;1.862;0.993;0.000;-1.860;14.305;1.860;0.993;0.000;-1.859;14.320;1.859;0.993;0.000
0340;-1.863;14.249;1.863;0.994;0.000;-1.866;14.262;1.866;0.994;0.000;-1.865;14.249;1.865;0.994;0.000;-1.865;14.249;1.865;0.994;0.000
0341;-1.874;14.334;1.874;0.995;0.000;-1.874;14.346;1.874;0.995;0.000;-1.876;14.360;1.876;0.995;0.000;-1.876;14.363;1.876;0.995;0.000
0342;-1.824;14.597;1.824;0.992;0.000;-1.824;14.591;1.824;0.992;0.000;-1.824;14.587;1.824;0.992;0.000;-1.827;14.599;1.827;0.992;0.000
0343;-1.865;14.192;1.865;0.994;0.000;-1.863;14.198;1.863;0.994;0.000;-1.861;14.197;1.861;0.994;0.000;-1.863;14.227;1.863;0.993;0.000
0344;-1.843;14.352;1.843;0.993;0.000;-1.844;14.344;1.844;0.993;0.000;-1.845;14.335;1.845;0.993;0.000;-1.843;14.323;1.843;0.993;0.000
0345;-1.826;14.479;1.826;0.991;0.000;-1.829;14.478;1.829;0.991;0.000;-1.831;14.476;1.831;0.991;0.000;-1.830;14.466;1.830;0.991;0.000
0347;-1.843;14.241;1.843;0.992;0.000;-1.842;14.244;1.842;0.992;0.000;-1.842;14.242;1.842;0.992;0.000;-1.845;14.257;1.845;0.992;0.000
0348;-1.847;14.394;1.847;0.992;0.000;-1.846;14.378;1.846;0.992;0.000;-1.847;14.346;1.847;0.992;0.000;-1.846;14.315;1.846;0.992;0.000
0349;-1.852;14.151;1.852;0.992;0.000;-1.847;14.130;1.847;0.992;0.000;-1.845;14.133;1.845;0.992;0.000;-1.846;14.134;1.846;0.992;0.000
0350;-1.840;14.078;1.840;0.992;0.000;-1.845;14.033;1.845;0.992;0.000;-1.845;14.054;1.845;0.992;0.000;-1.844;14.059;1.844;0.992;0.000
0351;-1.872;14.609;1.872;0.995;0.000;-1.868;14.552;1.868;0.995;0.000;-1.867;14.549;1.867;0.995;0.000;-1.864;14.537;1.864;0.995;0.000
0352;-1.846;14.331;1.846;0.993;0.000;-1.845;14.334;1.845;0.993;0.000;-1.845;14.336;1.845;0.993;0.000;-1.844;14.331;1.844;0.993;0.000
0353;-1.867;14.381;1.867;0.994;0.000;-1.866;14.396;1.866;0.994;0.000;-1.864;14.390;1.864;0.994;0.000;-1.867;14.360;1.867;0.994;0.000
0354;-1.834;14.400;1.834;0.992;0.000;-1.832;14.409;1.832;0.992;0.000;-1.831;14.410;1.831;0.992;0.000;-1.831;14.406;1.831;0.992;0.000
0355;-1.870;14.321;1.870;0.994;0.000;-1.870;14.320;1.870;0.994;0.000;-1.871;14.323;1.871;0.994;0.000;-1.872;14.319;1.872;0.994;0.000
0356;-1.872;14.483;1.872;0.995;0.000;-1.873;14.499;1.873;0.995;0.000;-1.875;14.533;1.875;0.995;0.000;-1.871;14.514;1.871;0.994;0.000
0357;-1.848;14.655;1.848;0.993;0.000;-1.851;14.653;1.851;0.993;0.000;-1.852;14.649;1.852;0.993;0.000;-1.851;14.647;1.851;0.993;0.000
0358;-1.840;14.246;1.840;0.992;0.000;-1.843;14.254;1.843;0.992;0.000;-1.842;14.246;1.842;0.992;0.000;-1.841;14.254;1.841;0.991;0.000
0359;-1.855;14.369;1.855;0.993;0.000;-1.856;14.373;1.856;0.993;0.000;-1.854;14.366;1.854;0.993;0.000;-1.858;14.376;1.858;0.993;0.000
0360;-1.809;14.233;1.809;0.990;0.000;-1.808;14.226;1.808;0.990;0.000;-1.807;14.222;1.807;0.990;0.000;-1.805;14.211;1.805;0.990;0.000
0361;-1.837;14.381;1.837;0.992;0.000;-1.836;14.379;1.836;0.992;0.000;-1.835;14.384;1.835;0.992;0.000;-1.835;14.382;1.835;0.992;0.000
0362;-1.867;14.215;1.867;0.994;0.000;-1.867;14.224;1.867;0.994;0.000;-1.868;14.224;1.868;0.994;0.000;-1.868;14.216;1.868;0.994;0.000
0001;-1.831;14.287;1.831;0.000;0.993;91.497;-0.039;-1.209;12.393;0.000;0.999;16.266;-1.828;14.231;1.828;0.000;0.993;91.371;-0.039;-1.208;12.346;0.000;0.999;17.500;-1.830;14.229;1.830;0.000;0.993;90.971;-0.038;-1.216;12.360;0.000;0.999;18.619;-1.834;14.255;1.834;0.000;0.993;90.937;-0.038;-1.221;12.390;0.000;0.998;19.323
0002;-1.819;13.976;1.819;0.000;0.993;93.447;-0.040;-1.180;12.030;0.000;0.999;15.748;-1.821;13.992;1.821;0.000;0.992;94.245;-0.041;-1.174;12.022;0.000;0.999;14.778;-1.824;13.969;1.824;0.000;0.993;93.628;-0.040;-1.190;12.041;0.000;0.998;20.002;-1.824;13.948;1.824;0.000;0.993;93.263;-0.039;-1.197;12.038;0.000;0.998;21.670
0003;-1.837;13.638;1.837;0.000;0.991;105.115;-0.037;-1.243;11.828;0.000;0.996;68.773;-1.840;13.650;1.840;0.000;0.991;104.900;-0.038;-1.233;11.802;0.000;0.996;65.697;-1.836;13.625;1.836;0.000;0.991;103.798;-0.037;-1.242;11.818;0.000;0.996;66.014;-1.844;13.677;1.844;0.000;0.990;107.524;-0.040;-1.212;11.752;0.000;0.996;66.518
0004;-1.808;14.082;1.808;0.000;0.991;99.245;-0.043;-1.124;12.002;0.000;0.998;18.706;-1.805;14.074;1.805;0.000;0.992;98.847;-0.043;-1.124;12.002;0.000;0.998;18.258;-1.802;14.056;1.802;0.000;0.992;98.520;-0.042;-1.124;11.991;0.000;0.998;17.810;-1.802;14.036;1.802;0.000;0.992;98.130;-0.042;-1.124;11.972;0.000;0.999;15.899
0005;-1.800;13.959;1.800;0.000;0.991;103.202;-0.045;-1.085;11.784;0.000;0.998;21.122;-1.801;13.959;1.801;0.000;0.991;102.927;-0.045;-1.084;11.778;0.000;0.998;18.100;-1.800;13.955;1.800;0.000;0.991;103.000;-0.045;-1.086;11.782;0.000;0.998;20.378;-1.801;13.966;1.801;0.000;0.991;103.872;-0.045;-1.079;11.770;0.000;0.998;20.458
0006;-1.812;14.155;1.812;0.000;0.992;96.719;-0.041;-1.153;12.151;0.000;0.998;20.737;-1.811;14.157;1.811;0.000;0.992;97.397;-0.042;-1.147;12.134;0.000;0.998;20.288;-1.809;14.151;1.809;0.000;0.992;97.066;-0.041;-1.147;12.136;0.000;0.998;20.288;-1.810;14.145;1.810;0.000;0.992;97.134;-0.042;-1.143;12.115;0.000;0.999;17.676
0007;-1.835;14.851;1.835;0.000;0.993;91.255;-0.039;-1.217;12.971;0.000;0.999;17.801;-1.836;14.873;1.836;0.000;0.993;91.314;-0.039;-1.220;12.996;0.000;0.999;18.720;-1.837;14.882;1.837;0.000;0.993;90.798;-0.038;-1.223;13.013;0.000;0.999;18.003;-1.832;14.846;1.832;0.000;0.993;91.881;-0.039;-1.207;12.944;0.000;0.999;16.485
0008;-1.782;14.166;1.782;0.000;0.990;104.103;-0.046;-1.050;11.936;0.000;0.999;14.107;-1.783;14.164;1.783;0.000;0.990;104.298;-0.046;-1.047;11.926;0.000;0.999;13.555;-1.785;14.164;1.785;0.000;0.990;104.385;-0.046;-1.049;11.923;0.000;0.999;13.335;-1.787;14.153;1.787;0.000;0.990;104.388;-0.046;-1.054;11.922;0.000;0.999;15.939
0009;-1.805;13.731;1.805;0.000;0.991;101.781;-0.044;-1.106;11.602;0.000;0.998;22.729;-1.806;13.752;1.806;0.000;0.991;102.315;-0.044;-1.101;11.605;0.000;0.998;21.945;-1.805;13.736;1.805;0.000;0.991;101.772;-0.044;-1.105;11.605;0.000;0.998;22.133;-1.803;13.714;1.803;0.000;0.991;101.303;-0.044;-1.107;11.593;0.000;0.998;21.716
0010;-1.812;14.034;1.812;0.000;0.991;101.838;-0.044;-1.117;11.917;0.000;0.998;25.192;-1.812;14.032;1.812;0.000;0.991;101.804;-0.043;-1.123;11.935;0.000;0.998;28.700;-1.812;14.018;1.812;0.000;0.991;101.026;-0.043;-1.126;11.930;0.000;0.998;26.441;-1.812;13.988;1.812;0.000;0.991;100.658;-0.043;-1.124;11.894;0.000;0.998;23.412
0011;-1.812;14.189;1.812;0.000;0.992;98.306;-0.042;-1.144;12.154;0.000;0.998;22.696;-1.812;14.188;1.812;0.000;0.992;98.450;-0.042;-1.140;12.142;0.000;0.998;21.364;-1.811;14.192;1.811;0.000;0.992;98.562;-0.042;-1.141;12.154;0.000;0.998;23.438;-1.813;14.191;1.813;0.000;0.991;99.670;-0.042;-1.134;12.126;0.000;0.998;23.928
0013;-1.818;13.734;1.818;0.000;0.991;100.498;-0.042;-1.148;11.696;0.000;0.998;32.359;-1.818;13.745;1.818;0.000;0.991;100.611;-0.042;-1.143;11.689;0.000;0.998;30.056;-1.818;13.741;1.818;0.000;0.991;100.473;-0.042;-1.145;11.693;0.000;0.998;30.815;-1.820;13.744;1.820;0.000;0.991;101.243;-0.043;-1.141;11.677;0.000;0.998;31.116
0014;-1.787;14.249;1.787;0.000;0.990;104.165;-0.046;-1.055;12.021;0.000;0.999;15.240;-1.784;14.206;1.784;0.000;0.990;105.928;-0.047;-1.035;11.926;0.000;0.999;14.392;-1.783;14.191;1.783;0.000;0.990;106.354;-0.047;-1.036;11.916;0.000;0.998;18.526;-1.783;14.183;1.783;0.000;0.990;106.113;-0.046;-1.046;11.938;0.000;0.998;23.528
0015;-1.806;13.955;1.806;0.000;0.990;104.975;-0.045;-1.087;11.767;0.000;0.998;28.090;-1.806;13.949;1.806;0.000;0.990;104.635;-0.045;-1.093;11.778;0.000;0.998;29.631;-1.806;13.957;1.806;0.000;0.990;104.795;-0.045;-1.088;11.772;0.000;0.998;27.858;-1.806;13.936;1.806;0.000;0.990;104.841;-0.045;-1.090;11.758;0.000;0.998;29.376
0016;-1.819;14.215;1.819;0.000;0.992;95.302;-0.041;-1.165;12.223;0.000;0.999;15.741;-1.819;14.213;1.819;0.000;0.992;95.400;-0.041;-1.165;12.221;0.000;0.999;16.234;-1.817;14.197;1.817;0.000;0.992;95.610;-0.041;-1.161;12.202;0.000;0.999;16.896;-1.818;14.199;1.818;0.000;0.992;96.124;-0.042;-1.154;12.179;0.000;0.999;14.144
0017;-1.842;14.012;1.842;0.000;0.993;89.530;-0.038;-1.238;12.173;0.000;0.999;17.488;-1.839;14.028;1.839;0.000;0.993;89.798;-0.038;-1.232;12.179;0.000;0.999;17.108;-1.836;14.026;1.836;0.000;0.993;89.507;-0.038;-1.232;12.188;0.000;0.999;17.572;-1.836;14.005;1.836;0.000;0.993;90.076;-0.038;-1.235;12.177;0.000;0.998;22.101
0018;-1.818;14.241;1.818;0.000;0.992;96.044;-0.041;-1.159;12.236;0.000;0.999;16.973;-1.818;14.240;1.818;0.000;0.992;95.990;-0.041;-1.157;12.230;0.000;0.999;15.584;-1.818;14.221;1.818;0.000;0.992;95.483;-0.041;-1.161;12.222;0.000;0.999;15.299;-1.822;14.230;1.822;0.000;0.992;96.105;-0.041;-1.159;12.212;0.000;0.999;14.602
0019;-1.808;14.004;1.808;0.000;0.991;100.994;-0.044;-1.113;11.888;0.000;0.998;20.955;-1.807;13.999;1.807;0.000;0.991;100.641;-0.043;-1.114;11.892;0.000;0.998;20.713;-1.805;14.005;1.805;0.000;0.991;100.702;-0.043;-1.114;11.901;0.000;0.998;21.718;-1.806;14.005;1.806;0.000;0.991;100.789;-0.043;-1.113;11.895;0.000;0.998;21.099
0020;-1.789;14.011;1.789;0.000;0.990;106.741;-0.046;-1.056;11.782;0.000;0.998;29.897;-1.791;14.035;1.791;0.000;0.990;108.071;-0.047;-1.039;11.744;0.000;0.998;25.461;-1.793;14.044;1.793;0.000;0.989;108.718;-0.047;-1.037;11.742;0.000;0.998;27.002;-1.794;14.032;1.794;0.000;0.990;108.491;-0.047;-1.037;11.729;0.000;0.998;25.551
0021;-1.812;14.484;1.812;0.000;0.992;97.232;-0.042;-1.144;12.452;0.000;0.999;17.671;-1.816;14.449;1.816;0.000;0.992;95.829;-0.041;-1.160;12.451;0.000;0.999;17.216;-1.816;14.440;1.816;0.000;0.992;96.758;-0.042;-1.150;12.413;0.000;0.999;16.216;-1.815;14.462;1.815;0.000;0.992;96.726;-0.041;-1.153;12.444;0.000;0.999;18.021
0022;-1.811;13.877;1.811;0.000;0.991;100.910;-0.042;-1.138;11.828;0.000;0.998;32.469;-1.812;13.869;1.812;0.000;0.991;101.625;-0.043;-1.122;11.767;0.000;0.998;26.984;-1.811;13.851;1.811;0.000;0.991;101.551;-0.043;-1.120;11.746;0.000;0.998;26.044;-1.812;13.846;1.812;0.000;0.991;101.813;-0.044;-1.114;11.723;0.000;0.998;23.886
0023;-1.787;14.118;1.787;0.000;0.990;105.672;-0.046;-1.046;11.862;0.000;0.998;18.375;-1.787;14.123;1.787;0.000;0.990;106.192;-0.047;-1.041;11.854;0.000;0.998;18.536;-1.786;14.116;1.786;0.000;0.990;106.102;-0.047;-1.039;11.843;0.000;0.998;17.274;-1.783;14.113;1.783;0.000;0.990;106.092;-0.047;-1.033;11.831;0.000;0.999;14.872
0024;-1.787;14.001;1.787;0.000;0.990;106.772;-0.047;-1.041;11.730;0.000;0.998;21.860;-1.787;14.007;1.787;0.000;0.990;107.601;-0.047;-1.031;11.708;0.000;0.998;20.932;-1.784;13.999;1.784;0.000;0.990;107.943;-0.048;-1.023;11.684;0.000;0.998;19.426;-1.781;13.973;1.781;0.000;0.990;107.525;-0.047;-1.026;11.674;0.000;0.998;20.388
0025;-1.863;14.271;1.863;0.000;0.995;80.416;-0.034;-1.317;12.609;0.000;0.999;10.665;-1.858;14.224;1.858;0.000;0.994;81.545;-0.034;-1.307;12.548;0.000;0.999;12.868;-1.855;14.199;1.855;0.000;0.994;81.963;-0.035;-1.304;12.520;0.000;0.999;14.197;-1.853;14.197;1.853;0.000;0.994;83.594;-0.035;-1.290;12.481;0.000;0.999;14.194
0026;-1.815;14.138;1.815;0.000;0.992;93.942;-0.041;-1.161;12.145;0.000;0.999;7.672;-1.815;14.131;1.815;0.000;0.992;94.063;-0.041;-1.162;12.145;0.000;0.999;10.112;-1.815;14.129;1.815;0.000;0.992;94.146;-0.041;-1.167;12.157;0.000;0.999;13.839;-1.815;14.130;1.815;0.000;0.992;94.443;-0.041;-1.161;12.140;0.000;0.999;11.200
0027;-1.833;14.022;1.833;0.000;0.992;95.521;-0.039;-1.206;12.113;0.000;0.998;31.598;-1.833;14.016;1.833;0.000;0.992;95.845;-0.039;-1.203;12.099;0.000;0.998;31.539;-1.831;14.003;1.831;0.000;0.992;94.487;-0.039;-1.206;12.100;0.000;0.998;28.282;-1.832;14.000;1.832;0.000;0.993;93.937;-0.039;-1.207;12.099;0.000;0.998;26.275
0028;-1.825;14.105;1.825;0.000;0.992;96.608;-0.041;-1.166;12.101;0.000;0.998;20.018;-1.822;14.093;1.822;0.000;0.992;96.014;-0.041;-1.169;12.108;0.000;0.998;20.849;-1.821;14.094;1.821;0.000;0.992;96.591;-0.041;-1.165;12.097;0.000;0.998;21.428;-1.821;14.093;1.821;0.000;0.992;96.814;-0.041;-1.167;12.102;0.000;0.998;23.675
0029;-1.826;14.028;1.826;0.000;0.992;94.188;-0.040;-1.190;12.093;0.000;0.998;21.433;-1.826;14.028;1.826;0.000;0.992;95.239;-0.040;-1.187;12.083;0.000;0.998;24.607;-1.828;14.035;1.828;0.000;0.992;97.011;-0.040;-1.190;12.094;0.000;0.998;32.610;-1.828;14.036;1.828;0.000;0.992;96.655;-0.040;-1.190;12.094;0.000;0.998;31.140
0030;-1.843;13.701;1.843;0.000;0.993;91.856;-0.038;-1.240;11.866;0.000;0.998;28.252;-1.844;13.709;1.844;0.000;0.993;92.208;-0.038;-1.238;11.862;0.000;0.998;27.918;-1.844;13.700;1.844;0.000;0.993;92.011;-0.038;-1.241;11.865;0.000;0.998;28.860;-1.845;13.706;1.845;0.000;0.993;92.247;-0.038;-1.241;11.868;0.000;0.998;29.174
0032;-1.822;13.869;1.822;0.000;0.992;99.716;-0.043;-1.143;11.801;0.000;0.998;23.588;-1.823;13.860;1.823;0.000;0.991;100.434;-0.043;-1.139;11.779;0.000;0.998;24.732;-1.820;13.844;1.820;0.000;0.992;99.279;-0.042;-1.151;11.806;0.000;0.998;26.883;-1.822;13.874;1.822;0.000;0.992;99.398;-0.042;-1.151;11.833;0.000;0.998;26.986
0033;-1.809;14.063;1.809;0.000;0.991;101.129;-0.044;-1.112;11.941;0.000;0.998;20.445;-1.806;14.069;1.806;0.000;0.991;101.299;-0.044;-1.104;11.932;0.000;0.998;18.306;-1.803;14.078;1.803;0.000;0.991;101.510;-0.044;-1.100;11.938;0.000;0.998;18.706;-1.804;14.079;1.804;0.000;0.991;101.477;-0.044;-1.103;11.945;0.000;0.998;19.826
0035;-1.771;14.015;1.771;0.000;0.988;112.431;-0.050;-0.970;11.575;0.000;0.998;20.814;-1.774;14.020;1.774;0.000;0.988;114.276;-0.051;-0.960;11.542;0.000;0.998;24.647;-1.771;14.004;1.771;0.000;0.988;112.706;-0.050;-0.966;11.552;0.000;0.998;19.749;-1.769;13.988;1.769;0.000;0.988;112.055;-0.049;-0.982;11.593;0.000;0.998;27.869
0036;-1.807;13.864;1.807;0.000;0.990;107.278;-0.046;-1.068;11.615;0.000;0.998;28.979;-1.805;13.873;1.805;0.000;0.990;107.936;-0.047;-1.056;11.594;0.000;0.998;27.140;-1.798;13.858;1.798;0.000;0.990;107.605;-0.046;-1.060;11.614;0.000;0.998;31.618;-1.796;13.850;1.796;0.000;0.990;107.393;-0.046;-1.065;11.624;0.000;0.998;33.727
0037;-1.826;14.046;1.826;0.000;0.993;92.650;-0.039;-1.205;12.155;0.000;0.998;22.304;-1.828;14.066;1.828;0.000;0.993;93.062;-0.040;-1.197;12.144;0.000;0.999;18.566;-1.829;14.078;1.829;0.000;0.993;93.500;-0.040;-1.190;12.130;0.000;0.999;15.547;-1.828;14.059;1.828;0.000;0.993;93.659;-0.040;-1.191;12.119;0.000;0.999;17.821
0038;-1.827;13.850;1.827;0.000;0.992;99.114;-0.040;-1.186;11.898;0.000;0.998;39.079;-1.831;13.855;1.831;0.000;0.992;99.652;-0.040;-1.185;11.890;0.000;0.998;39.429;-1.831;13.845;1.831;0.000;0.992;99.631;-0.040;-1.186;11.881;0.000;0.998;39.500;-1.834;13.871;1.834;0.000;0.991;100.663;-0.041;-1.171;11.855;0.000;0.998;36.309
0039;-1.788;13.824;1.788;0.000;0.990;106.395;-0.046;-1.046;11.567;0.000;0.998;22.402;-1.787;13.830;1.787;0.000;0.990;106.773;-0.047;-1.042;11.564;0.000;0.998;22.870;-1.785;13.822;1.785;0.000;0.990;106.532;-0.046;-1.046;11.572;0.000;0.998;24.798;-1.785;13.809;1.785;0.000;0.990;106.316;-0.046;-1.052;11.580;0.000;0.998;27.688
0040;-1.823;13.774;1.823;0.000;0.992;99.879;-0.042;-1.154;11.737;0.000;0.998;29.882;-1.823;13.773;1.823;0.000;0.991;100.078;-0.042;-1.150;11.726;0.000;0.998;29.115;-1.818;13.752;1.818;0.000;0.992;98.911;-0.041;-1.160;11.750;0.000;0.998;31.178;-1.819;13.767;1.819;0.000;0.992;99.310;-0.042;-1.155;11.746;0.000;0.998;30.058
0041;-1.820;13.905;1.820;0.000;0.992;98.873;-0.042;-1.149;11.864;0.000;0.998;24.448;-1.818;13.880;1.818;0.000;0.992;99.152;-0.042;-1.151;11.849;0.000;0.998;27.470;-1.822;13.877;1.822;0.000;0.991;100.317;-0.043;-1.136;11.791;0.000;0.998;23.318;-1.821;13.871;1.821;0.000;0.991;100.172;-0.043;-1.139;11.793;0.000;0.998;24.041
0042;-1.830;13.921;1.830;0.000;0.992;98.506;-0.041;-1.169;11.907;0.000;0.998;27.490;-1.828;13.911;1.828;0.000;0.992;97.409;-0.041;-1.177;11.927;0.000;0.998;27.659;-1.827;13.911;1.827;0.000;0.992;97.512;-0.041;-1.179;11.939;0.000;0.998;29.911;-1.826;13.910;1.826;0.000;0.992;97.647;-0.041;-1.174;11.926;0.000;0.998;28.629
0043;-1.806;14.162;1.806;0.000;0.992;97.947;-0.043;-1.124;12.086;0.000;0.999;11.810;-1.805;14.150;1.805;0.000;0.992;97.848;-0.043;-1.125;12.080;0.000;0.999;12.850;-1.804;14.134;1.804;0.000;0.992;98.262;-0.043;-1.119;12.050;0.000;0.999;12.013;-1.802;14.110;1.802;0.000;0.992;98.279;-0.043;-1.121;12.037;0.000;0.999;14.719
0044;-1.817;14.141;1.817;0.000;0.992;96.947;-0.041;-1.157;12.133;0.000;0.998;21.247;-1.819;14.134;1.819;0.000;0.992;97.823;-0.042;-1.153;12.108;0.000;0.998;22.087;-1.820;14.098;1.820;0.000;0.992;98.991;-0.041;-1.157;12.081;0.000;0.998;29.093;-1.818;14.067;1.818;0.000;0.992;98.963;-0.041;-1.165;12.079;0.000;0.998;33.668
0045;-1.830;13.875;1.830;0.000;0.991;101.053;-0.039;-1.206;11.978;0.000;0.997;51.578;-1.830;13.871;1.830;0.000;0.991;101.292;-0.039;-1.208;11.978;0.000;0.997;52.704;-1.833;13.885;1.833;0.000;0.991;100.993;-0.040;-1.192;11.931;0.000;0.997;45.486;-1.835;13.871;1.835;0.000;0.992;100.167;-0.041;-1.186;11.897;0.000;0.998;40.075
0046;-1.765;14.052;1.765;0.000;0.988;111.751;-0.049;-0.980;11.664;0.000;0.998;27.506;-1.766;14.052;1.766;0.000;0.988;111.947;-0.050;-0.973;11.640;0.000;0.998;23.935;-1.764;14.041;1.764;0.000;0.988;111.599;-0.049;-0.978;11.649;0.000;0.998;25.863;-1.764;14.044;1.764;0.000;0.988;111.899;-0.049;-0.976;11.645;0.000;0.998;26.308
0047;-1.836;13.985;1.836;0.000;0.993;93.759;-0.039;-1.208;12.073;0.000;0.998;23.708;-1.838;13.989;1.838;0.000;0.993;93.816;-0.039;-1.210;12.080;0.000;0.998;24.276;-1.835;13.969;1.835;0.000;0.993;92.918;-0.038;-1.224;12.109;0.000;0.998;28.577;-1.836;13.962;1.836;0.000;0.993;93.317;-0.038;-1.227;12.109;0.000;0.998;31.145
0048;-1.810;13.894;1.810;0.000;0.992;99.057;-0.043;-1.129;11.822;0.000;0.998;19.336;-1.810;13.909;1.810;0.000;0.992;98.826;-0.043;-1.130;11.839;0.000;0.998;18.350;-1.809;13.893;1.809;0.000;0.992;98.534;-0.042;-1.133;11.834;0.000;0.998;19.285;-1.807;13.876;1.807;0.000;0.992;98.626;-0.042;-1.131;11.819;0.000;0.998;20.059
0049;-1.816;14.154;1.816;0.000;0.992;97.310;-0.041;-1.153;12.137;0.000;0.998;21.161;-1.815;14.151;1.815;0.000;0.992;97.235;-0.041;-1.153;12.135;0.000;0.998;21.086;-1.815;14.137;1.815;0.000;0.992;97.213;-0.041;-1.153;12.121;0.000;0.998;20.827;-1.814;14.127;1.814;0.000;0.992;97.058;-0.041;-1.155;12.123;0.000;0.998;22.410
0050;-1.812;13.927;1.812;0.000;0.991;104.277;-0.044;-1.108;11.784;0.000;0.998;32.712;-1.809;13.926;1.809;0.000;0.991;104.489;-0.044;-1.102;11.774;0.000;0.998;32.173;-1.807;13.917;1.807;0.000;0.991;104.290;-0.044;-1.101;11.768;0.000;0.998;31.637;-1.806;13.912;1.806;0.000;0.991;104.032;-0.044;-1.103;11.770;0.000;0.998;31.706
0052;-1.824;13.579;1.824;0.000;0.991;100.460;-0.042;-1.156;11.547;0.000;0.998;33.074;-1.825;13.562;1.825;0.000;0.991;100.880;-0.042;-1.155;11.523;0.000;0.998;33.877;-1.821;13.510;1.821;0.000;0.991;102.262;-0.042;-1.145;11.452;0.000;0.998;36.692;-1.819;13.507;1.819;0.000;0.991;102.201;-0.042;-1.143;11.450;0.000;0.998;36.817
0053;-1.812;14.092;1.812;0.000;0.992;98.928;-0.043;-1.130;12.018;0.000;0.999;18.101;-1.814;14.094;1.814;0.000;0.992;98.323;-0.042;-1.136;12.030;0.000;0.999;17.071;-1.814;14.103;1.814;0.000;0.992;97.833;-0.042;-1.138;12.044;0.000;0.999;15.179;-1.813;14.105;1.813;0.000;0.992;97.794;-0.042;-1.141;12.061;0.000;0.998;18.265
0055;-1.811;13.735;1.811;0.000;0.990;106.795;-0.045;-1.086;11.527;0.000;0.998;33.826;-1.812;13.743;1.812;0.000;0.990;107.070;-0.046;-1.076;11.503;0.000;0.998;29.708;-1.810;13.731;1.810;0.000;0.990;106.620;-0.045;-1.087;11.532;0.000;0.998;34.453;-1.807;13.718;1.807;0.000;0.990;105.693;-0.044;-1.101;11.568;0.000;0.998;37.876
0056;-1.815;13.920;1.815;0.000;0.991;101.567;-0.044;-1.119;11.801;0.000;0.998;23.526;-1.812;13.894;1.812;0.000;0.991;100.870;-0.043;-1.122;11.794;0.000;0.998;23.403;-1.812;13.892;1.812;0.000;0.991;100.330;-0.043;-1.133;11.825;0.000;0.998;26.777;-1.816;13.911;1.816;0.000;0.991;101.471;-0.043;-1.131;11.826;0.000;0.998;29.064
0057;-1.796;13.806;1.796;0.000;0.990;106.688;-0.046;-1.060;11.567;0.000;0.998;27.824;-1.795;13.813;1.795;0.000;0.990;106.613;-0.046;-1.061;11.579;0.000;0.998;28.404;-1.794;13.773;1.794;0.000;0.990;106.280;-0.045;-1.068;11.564;0.000;0.998;31.099;-1.795;13.768;1.795;0.000;0.990;106.760;-0.046;-1.065;11.547;0.000;0.998;31.391
0058;-1.786;14.165;1.786;0.000;0.990;103.739;-0.046;-1.057;11.945;0.000;0.999;14.131;-1.785;14.165;1.785;0.000;0.990;103.828;-0.046;-1.056;11.946;0.000;0.999;15.204;-1.787;14.173;1.787;0.000;0.990;104.578;-0.046;-1.050;11.933;0.000;0.999;14.788;-1.790;14.171;1.790;0.000;0.990;105.042;-0.046;-1.050;11.919;0.000;0.999;15.173
0059;-1.804;14.010;1.804;0.000;0.991;103.455;-0.045;-1.088;11.830;0.000;0.998;21.622;-1.803;14.004;1.803;0.000;0.991;103.098;-0.045;-1.091;11.838;0.000;0.998;22.574;-1.802;13.980;1.802;0.000;0.991;103.204;-0.044;-1.092;11.818;0.000;0.998;23.820;-1.802;13.984;1.802;0.000;0.991;103.417;-0.045;-1.089;11.813;0.000;0.998;23.145
0060;-1.828;13.947;1.828;0.000;0.992;95.745;-0.040;-1.183;11.986;0.000;0.998;23.875;-1.827;13.941;1.827;0.000;0.992;95.625;-0.040;-1.185;11.988;0.000;0.998;24.957;-1.826;13.935;1.826;0.000;0.992;95.740;-0.040;-1.186;11.988;0.000;0.998;26.504;-1.826;13.936;1.826;0.000;0.992;95.777;-0.040;-1.185;11.984;0.000;0.998;25.891
0061;-1.837;13.747;1.837;0.000;0.992;98.594;-0.040;-1.203;11.819;0.000;0.998;40.370;-1.835;13.752;1.835;0.000;0.992;98.312;-0.040;-1.190;11.789;0.000;0.998;34.724;-1.834;13.765;1.834;0.000;0.992;98.368;-0.041;-1.177;11.766;0.000;0.998;29.269;-1.832;13.759;1.832;0.000;0.992;98.324;-0.041;-1.172;11.748;0.000;0.998;27.176
0062;-1.797;14.097;1.797;0.000;0.991;102.346;-0.045;-1.082;11.922;0.000;0.999;15.984;-1.795;14.096;1.795;0.000;0.991;101.964;-0.045;-1.082;11.924;0.000;0.999;14.375;-1.795;14.103;1.795;0.000;0.991;102.123;-0.045;-1.081;11.929;0.000;0.999;14.666;-1.796;14.116;1.796;0.000;0.991;101.506;-0.044;-1.089;11.965;0.000;0.999;16.266
0063;-1.826;13.630;1.826;0.000;0.992;98.504;-0.041;-1.166;11.621;0.000;0.998;28.333;-1.827;13.665;1.827;0.000;0.992;99.632;-0.042;-1.155;11.621;0.000;0.998;27.443;-1.824;13.658;1.824;0.000;0.992;99.386;-0.042;-1.158;11.632;0.000;0.998;29.502;-1.821;13.649;1.821;0.000;0.992;99.316;-0.041;-1.161;11.641;0.000;0.998;32.074
0064;-1.837;14.034;1.837;0.000;0.993;89.625;-0.038;-1.233;12.197;0.000;0.999;18.394;-1.835;14.042;1.835;0.000;0.993;90.057;-0.038;-1.227;12.192;0.000;0.999;17.902;-1.837;14.055;1.837;0.000;0.993;91.001;-0.038;-1.222;12.184;0.000;0.999;18.492;-1.840;14.046;1.840;0.000;0.993;89.909;-0.038;-1.238;12.212;0.000;0.998;20.370
0065;-1.771;13.961;1.771;0.000;0.989;110.248;-0.049;-0.992;11.589;0.000;0.998;21.515;-1.772;13.966;1.772;0.000;0.989;110.795;-0.048;-1.000;11.617;0.000;0.998;29.637;-1.772;13.966;1.772;0.000;0.989;110.362;-0.048;-1.007;11.636;0.000;0.998;30.797;-1.778;13.986;1.778;0.000;0.989;111.421;-0.049;-0.990;11.588;0.000;0.998;23.358
0066;-1.806;14.038;1.806;0.000;0.991;102.376;-0.044;-1.104;11.901;0.000;0.998;24.148;-1.806;14.044;1.806;0.000;0.991;102.107;-0.044;-1.104;11.907;0.000;0.998;22.710;-1.806;14.036;1.806;0.000;0.991;102.035;-0.044;-1.105;11.902;0.000;0.998;23.042;-1.806;14.024;1.806;0.000;0.991;102.136;-0.044;-1.106;11.895;0.000;0.998;24.384
0067;-1.818;13.856;1.818;0.000;0.992;99.405;-0.042;-1.142;11.798;0.000;0.998;23.886;-1.818;13.842;1.818;0.000;0.992;98.972;-0.042;-1.146;11.797;0.000;0.998;24.180;-1.819;13.842;1.819;0.000;0.992;99.145;-0.042;-1.144;11.790;0.000;0.998;23.674;-1.818;13.845;1.818;0.000;0.992;99.188;-0.042;-1.143;11.790;0.000;0.998;23.596
0068;-1.815;14.243;1.815;0.000;0.992;97.884;-0.042;-1.140;12.189;0.000;0.999;16.762;-1.818;14.241;1.818;0.000;0.992;99.394;-0.043;-1.130;12.148;0.000;0.999;16.732;-1.816;14.218;1.816;0.000;0.992;99.350;-0.043;-1.133;12.140;0.000;0.998;19.651;-1.812;14.207;1.812;0.000;0.991;99.724;-0.043;-1.127;12.122;0.000;0.998;20.206
0069;-1.787;13.826;1.787;0.000;0.989;108.794;-0.048;-1.025;11.505;0.000;0.998;23.435;-1.788;13.859;1.788;0.000;0.989;109.091;-0.048;-1.023;11.533;0.000;0.998;24.175;-1.789;13.869;1.789;0.000;0.989;109.293;-0.048;-1.022;11.535;0.000;0.998;23.841;-1.791;13.875;1.791;0.000;0.989;109.898;-0.048;-1.022;11.534;0.000;0.998;26.028
0070;-1.825;13.982;1.825;0.000;0.991;100.426;-0.042;-1.153;11.938;0.000;0.998;31.045;-1.816;14.002;1.816;0.000;0.991;101.729;-0.043;-1.128;11.906;0.000;0.998;28.510;-1.815;13.992;1.815;0.000;0.991;102.046;-0.043;-1.124;11.889;0.000;0.998;28.751;-1.822;13.954;1.822;0.000;0.991;101.708;-0.043;-1.139;11.877;0.000;0.998;31.547
0071;-1.850;14.269;1.850;0.000;0.993;88.857;-0.035;-1.289;12.561;0.000;0.998;35.037;-1.853;14.308;1.853;0.000;0.994;87.822;-0.036;-1.281;12.566;0.000;0.998;26.922;-1.852;14.301;1.852;0.000;0.994;87.526;-0.036;-1.281;12.563;0.000;0.998;26.449;-1.848;14.233;1.848;0.000;0.993;89.702;-0.036;-1.267;12.463;0.000;0.998;29.685
0072;-1.802;13.932;1.802;0.000;0.991;103.163;-0.044;-1.102;11.801;0.000;0.998;29.241;-1.800;13.953;1.800;0.000;0.991;103.905;-0.045;-1.089;11.787;0.000;0.998;26.755;-1.800;13.971;1.800;0.000;0.990;104.454;-0.045;-1.078;11.776;0.000;0.998;23.980;-1.800;13.965;1.800;0.000;0.990;104.387;-0.045;-1.080;11.773;0.000;0.998;24.347
0073;-1.810;13.932;1.810;0.000;0.990;106.614;-0.046;-1.070;11.680;0.000;0.998;24.820;-1.806;13.919;1.806;0.000;0.990;105.408;-0.045;-1.081;11.714;0.000;0.998;27.236;-1.800;13.886;1.800;0.000;0.991;103.841;-0.044;-1.104;11.769;0.000;0.998;34.860;-1.802;13.899;1.802;0.000;0.990;104.616;-0.044;-1.093;11.740;0.000;0.998;31.505
0074;-1.826;12.689;1.826;0.000;0.993;92.422;-0.040;-1.193;10.762;0.000;0.999;14.262;-1.827;12.685;1.827;0.000;0.993;90.749;-0.039;-1.209;10.805;0.000;0.999;15.412;-1.828;12.693;1.828;0.000;0.993;90.554;-0.039;-1.210;10.812;0.000;0.999;14.149;-1.825;12.676;1.825;0.000;0.993;91.351;-0.039;-1.201;10.778;0.000;0.999;14.802
0075;-1.768;13.999;1.768;0.000;0.989;107.616;-0.048;-1.003;11.670;0.000;0.999;13.778;-1.771;14.001;1.771;0.000;0.989;108.402;-0.048;-1.002;11.662;0.000;0.998;16.857;-1.775;14.001;1.775;0.000;0.989;109.968;-0.049;-0.990;11.613;0.000;0.999;15.778;-1.777;14.007;1.777;0.000;0.989;110.611;-0.050;-0.983;11.590;0.000;0.999;12.768
0076;-1.813;13.839;1.813;0.000;0.991;103.299;-0.043;-1.128;11.753;0.000;0.998;37.087;-1.814;13.875;1.814;0.000;0.991;104.098;-0.043;-1.122;11.769;0.000;0.998;37.462;-1.816;13.903;1.816;0.000;0.991;104.885;-0.043;-1.127;11.804;0.000;0.998;41.607;-1.814;13.894;1.814;0.000;0.991;104.362;-0.042;-1.136;11.828;0.000;0.997;43.968
0077;-1.832;14.002;1.832;0.000;0.993;91.609;-0.039;-1.206;12.099;0.000;0.999;14.862;-1.833;13.985;1.833;0.000;0.993;91.972;-0.039;-1.204;12.071;0.000;0.999;14.642;-1.834;13.995;1.834;0.000;0.993;92.217;-0.039;-1.206;12.085;0.000;0.999;16.662;-1.832;13.998;1.832;0.000;0.993;92.020;-0.039;-1.208;12.099;0.000;0.999;17.870
0078;-1.850;13.802;1.850;0.000;0.993;94.314;-0.039;-1.235;11.929;0.000;0.998;32.062;-1.850;13.807;1.850;0.000;0.992;95.779;-0.038;-1.235;11.936;0.000;0.998;37.751;-1.848;13.804;1.848;0.000;0.993;94.880;-0.038;-1.234;11.937;0.000;0.998;35.061;-1.847;13.793;1.847;0.000;0.993;93.722;-0.038;-1.237;11.938;0.000;0.998;32.405
0079;-1.791;13.944;1.791;0.000;0.990;104.168;-0.045;-1.066;11.738;0.000;0.998;20.232;-1.786;13.952;1.786;0.000;0.990;105.029;-0.046;-1.053;11.719;0.000;0.998;19.555;-1.789;13.966;1.789;0.000;0.990;105.986;-0.047;-1.046;11.705;0.000;0.998;19.103;-1.789;13.954;1.789;0.000;0.990;105.309;-0.046;-1.054;11.718;0.000;0.998;20.531
0080;-1.830;13.681;1.830;0.000;0.992;99.333;-0.042;-1.164;11.653;0.000;0.998;28.850;-1.827;13.667;1.827;0.000;0.992;99.156;-0.041;-1.167;11.657;0.000;0.998;31.030;-1.824;13.653;1.824;0.000;0.992;99.099;-0.041;-1.165;11.646;0.000;0.998;31.293;-1.824;13.640;1.824;0.000;0.992;98.595;-0.041;-1.166;11.635;0.000;0.998;29.429
0081;-1.815;14.090;1.815;0.000;0.992;97.383;-0.042;-1.141;12.038;0.000;0.999;14.235;-1.818;14.103;1.818;0.000;0.992;98.900;-0.043;-1.131;12.012;0.000;0.999;14.215;-1.816;14.094;1.816;0.000;0.992;98.208;-0.043;-1.137;12.027;0.000;0.999;15.587;-1.811;14.107;1.811;0.000;0.992;98.093;-0.042;-1.135;12.048;0.000;0.999;16.841
0082;-1.803;13.924;1.803;0.000;0.990;104.522;-0.045;-1.089;11.750;0.000;0.998;28.582;-1.803;13.923;1.803;0.000;0.990;105.087;-0.045;-1.085;11.736;0.000;0.998;29.003;-1.805;13.936;1.805;0.000;0.990;105.090;-0.045;-1.088;11.754;0.000;0.998;29.947;-1.803;13.918;1.803;0.000;0.990;104.704;-0.045;-1.090;11.751;0.000;0.998;30.547
0083;-1.833;13.830;1.833;0.000;0.992;96.269;-0.040;-1.200;11.904;0.000;0.998;31.918;-1.831;13.793;1.831;0.000;0.992;96.982;-0.040;-1.190;11.842;0.000;0.998;31.025;-1.829;13.749;1.829;0.000;0.992;98.362;-0.040;-1.193;11.814;0.000;0.998;38.674;-1.826;13.720;1.826;0.000;0.991;100.959;-0.039;-1.197;11.806;0.000;0.997;49.635
0084;-1.823;13.832;1.823;0.000;0.992;99.783;-0.042;-1.151;11.785;0.000;0.998;27.809;-1.823;13.812;1.823;0.000;0.991;100.841;-0.042;-1.154;11.778;0.000;0.998;34.359;-1.823;13.793;1.823;0.000;0.991;100.268;-0.042;-1.159;11.772;0.000;0.998;34.001;-1.823;13.794;1.823;0.000;0.992;99.802;-0.042;-1.158;11.772;0.000;0.998;31.821
0085;-1.790;14.322;1.790;0.000;0.991;103.283;-0.045;-1.067;12.119;0.000;0.999;15.421;-1.786;14.258;1.786;0.000;0.990;104.931;-0.046;-1.047;12.008;0.000;0.999;14.676;-1.787;14.244;1.787;0.000;0.990;104.644;-0.046;-1.051;12.004;0.000;0.999;15.249;-1.788;14.245;1.788;0.000;0.990;104.886;-0.046;-1.052;12.002;0.000;0.999;16.363
0086;-1.803;13.928;1.803;0.000;0.990;105.030;-0.045;-1.086;11.747;0.000;0.998;29.686;-1.802;13.912;1.802;0.000;0.990;105.851;-0.045;-1.080;11.715;0.000;0.998;30.964;-1.802;13.900;1.802;0.000;0.990;105.783;-0.045;-1.079;11.698;0.000;0.998;29.865;-1.803;13.889;1.803;0.000;0.990;105.661;-0.045;-1.081;11.691;0.000;0.998;29.905
0087;-1.813;14.349;1.813;0.000;0.992;96.006;-0.041;-1.158;12.356;0.000;0.998;19.191;-1.816;14.366;1.816;0.000;0.992;96.655;-0.041;-1.154;12.352;0.000;0.998;18.375;-1.817;14.349;1.817;0.000;0.992;96.624;-0.041;-1.160;12.350;0.000;0.998;21.299;-1.819;14.350;1.819;0.000;0.992;96.934;-0.041;-1.159;12.341;0.000;0.998;20.848
0088;-1.793;14.147;1.793;0.000;0.990;105.527;-0.046;-1.057;11.907;0.000;0.998;20.890;-1.790;14.152;1.790;0.000;0.990;105.625;-0.046;-1.048;11.894;0.000;0.998;17.451;-1.784;14.146;1.784;0.000;0.990;105.890;-0.046;-1.048;11.905;0.000;0.998;22.877;-1.787;14.147;1.787;0.000;0.990;105.231;-0.046;-1.054;11.916;0.000;0.998;21.310
0089;-1.814;14.173;1.814;0.000;0.991;100.486;-0.043;-1.126;12.080;0.000;0.998;22.801;-1.812;14.162;1.812;0.000;0.991;100.328;-0.043;-1.126;12.075;0.000;0.998;23.092;-1.810;14.155;1.810;0.000;0.991;99.932;-0.043;-1.128;12.081;0.000;0.998;23.511;-1.811;14.165;1.811;0.000;0.991;99.956;-0.043;-1.125;12.080;0.000;0.998;21.576
0090;-1.826;13.939;1.826;0.000;0.993;94.009;-0.040;-1.190;12.003;0.000;0.998;20.390;-1.827;13.936;1.827;0.000;0.993;94.050;-0.040;-1.192;12.005;0.000;0.998;21.655;-1.826;13.930;1.826;0.000;0.993;94.087;-0.040;-1.192;11.998;0.000;0.998;21.565;-1.829;13.925;1.829;0.000;0.993;94.231;-0.040;-1.190;11.980;0.000;0.998;19.796
0091;-1.830;13.943;1.830;0.000;0.992;96.853;-0.038;-1.226;12.105;0.000;0.997;45.053;-1.830;13.941;1.830;0.000;0.992;95.480;-0.038;-1.222;12.093;0.000;0.998;39.512;-1.831;13.939;1.831;0.000;0.992;96.396;-0.039;-1.214;12.061;0.000;0.998;38.898;-1.838;13.975;1.838;0.000;0.992;99.222;-0.041;-1.188;11.998;0.000;0.998;36.232
0093;-1.807;13.941;1.807;0.000;0.991;101.115;-0.043;-1.114;11.831;0.000;0.998;22.765;-1.806;13.949;1.806;0.000;0.991;101.151;-0.043;-1.112;11.837;0.000;0.998;22.482;-1.808;13.967;1.808;0.000;0.991;101.397;-0.044;-1.110;11.845;0.000;0.998;21.754;-1.808;13.977;1.808;0.000;0.991;101.055;-0.043;-1.116;11.871;0.000;0.998;23.319
0094;-1.847;13.855;1.847;0.000;0.993;89.942;-0.037;-1.251;12.041;0.000;0.998;23.813;-1.847;13.861;1.847;0.000;0.993;89.884;-0.037;-1.250;12.042;0.000;0.998;22.885;-1.847;13.871;1.847;0.000;0.993;90.964;-0.038;-1.243;12.036;0.000;0.998;24.564;-1.846;13.873;1.846;0.000;0.993;90.947;-0.038;-1.246;12.048;0.000;0.998;26.064
0095;-1.784;13.844;1.784;0.000;0.990;107.086;-0.047;-1.039;11.577;0.000;0.998;24.540;-1.783;13.850;1.783;0.000;0.990;107.273;-0.047;-1.034;11.569;0.000;0.998;22.778;-1.784;13.850;1.784;0.000;0.990;107.866;-0.047;-1.028;11.550;0.000;0.998;22.279;-1.784;13.846;1.784;0.000;0.990;107.827;-0.047;-1.027;11.542;0.000;0.998;21.177
0096;-1.800;13.863;1.800;0.000;0.990;108.723;-0.048;-1.038;11.545;0.000;0.998;23.549;-1.797;13.879;1.797;0.000;0.990;108.558;-0.048;-1.035;11.561;0.000;0.998;22.571;-1.792;13.816;1.792;0.000;0.990;108.484;-0.047;-1.042;11.533;0.000;0.998;29.339;-1.793;13.820;1.793;0.000;0.989;109.083;-0.047;-1.045;11.544;0.000;0.998;33.752
0097;-1.831;14.133;1.831;0.000;0.992;97.558;-0.041;-1.179;12.148;0.000;0.998;28.049;-1.827;14.096;1.827;0.000;0.992;98.548;-0.042;-1.163;12.075;0.000;0.998;26.598;-1.823;14.086;1.823;0.000;0.992;99.122;-0.042;-1.153;12.044;0.000;0.998;25.549;-1.821;14.070;1.821;0.000;0.992;98.386;-0.041;-1.160;12.059;0.000;0.998;27.403
0099;-1.816;13.857;1.816;0.000;0.992;98.994;-0.042;-1.142;11.805;0.000;0.998;23.150;-1.814;13.847;1.814;0.000;0.992;98.227;-0.042;-1.145;11.809;0.000;0.998;21.850;-1.815;13.850;1.815;0.000;0.992;98.628;-0.042;-1.140;11.795;0.000;0.998;20.580;-1.815;13.857;1.815;0.000;0.992;98.799;-0.042;-1.137;11.793;0.000;0.998;19.649
0100;-1.783;13.998;1.783;0.000;0.990;106.221;-0.047;-1.030;11.706;0.000;0.999;13.224;-1.784;13.987;1.784;0.000;0.990;106.064;-0.047;-1.033;11.704;0.000;0.999;14.323;-1.787;13.970;1.787;0.000;0.990;106.691;-0.047;-1.034;11.678;0.000;0.999;16.523;-1.784;13.984;1.784;0.000;0.990;106.354;-0.047;-1.035;11.704;0.000;0.998;17.262
0101;-1.811;14.016;1.811;0.000;0.991;100.178;-0.043;-1.125;11.929;0.000;0.998;22.477;-1.814;14.029;1.814;0.000;0.991;101.571;-0.044;-1.107;11.880;0.000;0.999;17.062;-1.813;14.022;1.813;0.000;0.991;102.341;-0.044;-1.106;11.871;0.000;0.998;21.243;-1.810;14.003;1.810;0.000;0.991;100.463;-0.043;-1.120;11.904;0.000;0.998;21.436
0102;-1.825;13.892;1.825;0.000;0.992;97.980;-0.041;-1.163;11.877;0.000;0.998;24.930;-1.823;13.876;1.823;0.000;0.992;97.900;-0.041;-1.161;11.860;0.000;0.998;24.181;-1.822;13.878;1.822;0.000;0.992;97.941;-0.041;-1.161;11.865;0.000;0.998;24.932;-1.824;13.891;1.824;0.000;0.992;98.004;-0.041;-1.161;11.874;0.000;0.998;24.740
0103;-1.807;13.963;1.807;0.000;0.991;99.179;-0.043;-1.124;11.883;0.000;0.998;18.451;-1.805;13.971;1.805;0.000;0.991;99.082;-0.043;-1.123;11.897;0.000;0.998;19.083;-1.808;13.958;1.808;0.000;0.992;99.007;-0.042;-1.133;11.905;0.000;0.998;22.883;-1.811;13.950;1.811;0.000;0.992;98.969;-0.042;-1.135;11.893;0.000;0.998;21.830
0104;-1.792;13.796;1.792;0.000;0.990;104.395;-0.046;-1.059;11.568;0.000;0.999;16.574;-1.794;13.838;1.794;0.000;0.990;105.609;-0.047;-1.047;11.567;0.000;0.999;14.265;-1.791;13.837;1.791;0.000;0.990;105.091;-0.046;-1.051;11.586;0.000;0.999;15.537;-1.790;13.836;1.790;0.000;0.990;104.876;-0.046;-1.052;11.589;0.000;0.999;15.329
0105;-1.832;13.950;1.832;0.000;0.992;96.513;-0.040;-1.190;11.995;0.000;0.998;28.485;-1.832;13.934;1.832;0.000;0.992;96.806;-0.041;-1.182;11.959;0.000;0.998;26.301;-1.832;13.921;1.832;0.000;0.992;96.931;-0.041;-1.183;11.948;0.000;0.998;27.305;-1.832;13.908;1.832;0.000;0.992;96.898;-0.040;-1.186;11.941;0.000;0.998;28.066
0106;-1.810;13.929;1.810;0.000;0.991;99.794;-0.043;-1.128;11.851;0.000;0.998;22.066;-1.810;13.937;1.810;0.000;0.991;99.565;-0.043;-1.120;11.839;0.000;0.999;16.596;-1.806;13.924;1.806;0.000;0.992;98.841;-0.043;-1.126;11.854;0.000;0.998;18.546;-1.804;13.914;1.804;0.000;0.992;98.268;-0.043;-1.124;11.845;0.000;0.999;15.484
0107;-1.795;13.993;1.795;0.000;0.990;107.146;-0.047;-1.052;11.731;0.000;0.998;25.958;-1.794;13.994;1.794;0.000;0.990;106.982;-0.046;-1.061;11.761;0.000;0.998;30.412;-1.794;13.987;1.794;0.000;0.990;107.041;-0.046;-1.061;11.756;0.000;0.998;31.217;-1.795;14.001;1.795;0.000;0.990;107.376;-0.046;-1.053;11.740;0.000;0.998;27.451
0108;-1.808;13.804;1.808;0.000;0.991;101.982;-0.044;-1.109;11.677;0.000;0.998;24.095;-1.812;13.842;1.812;0.000;0.991;101.043;-0.043;-1.120;11.737;0.000;0.998;23.456;-1.813;13.848;1.813;0.000;0.991;100.569;-0.043;-1.126;11.757;0.000;0.998;23.715;-1.813;13.841;1.813;0.000;0.991;101.371;-0.043;-1.119;11.729;0.000;0.998;23.690
0109;-1.813;14.038;1.813;0.000;0.992;99.004;-0.042;-1.135;11.974;0.000;0.998;20.771;-1.807;14.039;1.807;0.000;0.991;99.695;-0.043;-1.126;11.965;0.000;0.998;22.396;-1.808;14.046;1.808;0.000;0.991;100.683;-0.043;-1.118;11.945;0.000;0.998;22.321;-1.808;14.045;1.808;0.000;0.991;100.823;-0.043;-1.118;11.944;0.000;0.998;22.988
0111;-1.809;14.085;1.809;0.000;0.990;106.735;-0.043;-1.125;12.004;0.000;0.997;50.434;-1.808;14.083;1.808;0.000;0.991;104.117;-0.043;-1.120;11.991;0.000;0.998;39.633;-1.805;14.073;1.805;0.000;0.991;104.346;-0.042;-1.130;12.018;0.000;0.997;45.184;-1.810;14.089;1.810;0.000;0.990;107.630;-0.043;-1.127;12.008;0.000;0.997;53.444
0112;-1.794;13.969;1.794;0.000;0.991;101.082;-0.044;-1.088;11.823;0.000;0.999;14.658;-1.793;13.980;1.793;0.000;0.991;100.908;-0.044;-1.090;11.841;0.000;0.999;15.309;-1.790;13.979;1.790;0.000;0.991;100.004;-0.043;-1.095;11.866;0.000;0.999;15.988;-1.788;13.972;1.788;0.000;0.991;99.703;-0.043;-1.094;11.859;0.000;0.999;14.158
0113;-1.797;13.918;1.797;0.000;0.990;108.173;-0.047;-1.048;11.639;0.000;0.998;28.398;-1.798;13.945;1.798;0.000;0.990;108.867;-0.047;-1.041;11.639;0.000;0.998;27.058;-1.797;13.927;1.797;0.000;0.990;108.542;-0.047;-1.042;11.628;0.000;0.998;26.586;-1.796;13.899;1.796;0.000;0.990;107.163;-0.046;-1.058;11.653;0.000;0.998;28.902
0114;-1.810;14.121;1.810;0.000;0.992;98.523;-0.042;-1.138;12.075;0.000;0.998;21.814;-1.809;14.125;1.809;0.000;0.992;98.725;-0.042;-1.134;12.068;0.000;0.998;20.769;-1.811;14.111;1.811;0.000;0.992;98.419;-0.042;-1.139;12.066;0.000;0.998;21.277;-1.811;14.099;1.811;0.000;0.992;98.503;-0.042;-1.141;12.059;0.000;0.998;22.840
0115;-1.777;14.163;1.777;0.000;0.989;108.583;-0.048;-1.002;11.805;0.000;0.999;13.307;-1.774;14.131;1.774;0.000;0.989;107.758;-0.048;-1.012;11.810;0.000;0.998;16.557;-1.774;14.114;1.774;0.000;0.989;107.660;-0.047;-1.019;11.815;0.000;0.998;21.399;-1.776;14.162;1.776;0.000;0.989;108.810;-0.048;-1.011;11.834;0.000;0.998;21.938
0116;-1.816;14.003;1.816;0.000;0.992;98.144;-0.042;-1.145;11.960;0.000;0.998;20.417;-1.815;13.983;1.815;0.000;0.992;97.641;-0.042;-1.152;11.964;0.000;0.998;22.588;-1.817;13.973;1.817;0.000;0.992;97.532;-0.042;-1.153;11.953;0.000;0.998;21.648;-1.817;13.963;1.817;0.000;0.992;97.395;-0.041;-1.156;11.952;0.000;0.998;22.850
0117;-1.808;13.837;1.808;0.000;0.991;104.156;-0.044;-1.099;11.679;0.000;0.998;29.481;-1.809;13.841;1.809;0.000;0.991;104.413;-0.045;-1.097;11.676;0.000;0.998;29.440;-1.809;13.843;1.809;0.000;0.991;104.405;-0.045;-1.098;11.677;0.000;0.998;29.308;-1.809;13.845;1.809;0.000;0.991;104.113;-0.044;-1.098;11.682;0.000;0.998;28.529
0118;-1.805;13.972;1.805;0.000;0.991;100.411;-0.044;-1.108;11.852;0.000;0.999;16.713;-1.803;13.975;1.803;0.000;0.991;101.058;-0.044;-1.100;11.835;0.000;0.999;16.160;-1.803;13.973;1.803;0.000;0.991;101.061;-0.044;-1.101;11.836;0.000;0.999;16.868;-1.803;13.962;1.803;0.000;0.991;100.928;-0.044;-1.104;11.833;0.000;0.998;17.716
0119;-1.831;13.874;1.831;0.000;0.991;102.272;-0.044;-1.135;11.758;0.000;0.998;27.625;-1.821;13.832;1.821;0.000;0.991;100.573;-0.042;-1.155;11.806;0.000;0.998;34.553;-1.822;13.840;1.822;0.000;0.991;100.959;-0.042;-1.150;11.794;0.000;0.998;33.199;-1.827;13.851;1.827;0.000;0.991;101.115;-0.043;-1.147;11.783;0.000;0.998;30.253
0120;-1.812;13.755;1.812;0.000;0.991;101.150;-0.043;-1.125;11.663;0.000;0.998;26.391;-1.811;13.758;1.811;0.000;0.991;101.272;-0.043;-1.120;11.653;0.000;0.998;24.718;-1.813;13.762;1.813;0.000;0.991;101.523;-0.044;-1.117;11.645;0.000;0.998;23.694;-1.815;13.773;1.815;0.000;0.991;101.949;-0.044;-1.119;11.654;0.000;0.998;25.416
0122;-1.783;13.858;1.783;0.000;0.988;112.988;-0.049;-0.995;11.459;0.000;0.998;32.721;-1.781;13.825;1.781;0.000;0.988;112.603;-0.049;-1.000;11.446;0.000;0.998;34.139;-1.781;13.811;1.781;0.000;0.988;113.019;-0.049;-0.995;11.418;0.000;0.998;33.907;-1.780;13.802;1.780;0.000;0.988;112.645;-0.049;-1.004;11.443;0.000;0.998;37.659
0123;-1.821;13.916;1.821;0.000;0.992;94.925;-0.040;-1.188;11.989;0.000;0.998;26.137;-1.821;13.920;1.821;0.000;0.992;94.779;-0.040;-1.186;11.988;0.000;0.998;24.726;-1.820;13.914;1.820;0.000;0.992;94.695;-0.040;-1.187;11.986;0.000;0.998;25.065;-1.818;13.898;1.818;0.000;0.992;93.850;-0.039;-1.194;12.001;0.000;0.998;26.487
0124;-1.823;13.748;1.823;0.000;0.992;98.419;-0.041;-1.161;11.734;0.000;0.998;27.028;-1.825;13.749;1.825;0.000;0.992;99.676;-0.042;-1.151;11.697;0.000;0.998;26.361;-1.823;13.727;1.823;0.000;0.992;98.956;-0.042;-1.157;11.700;0.000;0.998;27.457;-1.825;13.733;1.825;0.000;0.992;98.182;-0.041;-1.165;11.725;0.000;0.998;26.942
0125;-1.811;13.626;1.811;0.000;0.991;102.946;-0.043;-1.117;11.512;0.000;0.998;31.259;-1.815;13.625;1.815;0.000;0.991;103.591;-0.044;-1.119;11.507;0.000;0.998;33.471;-1.824;13.660;1.824;0.000;0.990;106.383;-0.046;-1.095;11.441;0.000;0.998;29.964;-1.818;13.630;1.818;0.000;0.991;104.458;-0.044;-1.108;11.469;0.000;0.998;30.432
0126;-1.813;13.980;1.813;0.000;0.991;101.636;-0.043;-1.128;11.894;0.000;0.998;29.696;-1.813;14.010;1.813;0.000;0.991;102.040;-0.043;-1.126;11.918;0.000;0.998;30.695;-1.815;14.010;1.815;0.000;0.991;102.307;-0.043;-1.123;11.904;0.000;0.998;29.606;-1.814;14.015;1.814;0.000;0.991;102.244;-0.043;-1.125;11.920;0.000;0.998;31.110
0127;-1.795;13.789;1.795;0.000;0.990;106.628;-0.045;-1.075;11.600;0.000;0.998;36.024;-1.799;13.825;1.799;0.000;0.989;109.310;-0.046;-1.058;11.570;0.000;0.998;38.175;-1.796;13.819;1.796;0.000;0.990;108.638;-0.046;-1.067;11.598;0.000;0.998;40.207;-1.797;13.820;1.797;0.000;0.990;108.237;-0.046;-1.064;11.589;0.000;0.998;36.918
0128;-1.809;13.902;1.809;0.000;0.991;103.250;-0.044;-1.099;11.742;0.000;0.998;24.409;-1.811;13.891;1.811;0.000;0.991;102.749;-0.044;-1.112;11.763;0.000;0.998;27.984;-1.814;13.888;1.814;0.000;0.991;102.906;-0.044;-1.116;11.765;0.000;0.998;29.493;-1.811;13.884;1.811;0.000;0.991;102.687;-0.044;-1.113;11.759;0.000;0.998;28.016
0129;-1.816;14.479;1.816;0.000;0.992;96.961;-0.042;-1.147;12.444;0.000;0.999;15.644;-1.816;14.459;1.816;0.000;0.992;97.474;-0.042;-1.144;12.412;0.000;0.999;15.894;-1.815;14.440;1.815;0.000;0.992;97.873;-0.042;-1.138;12.379;0.000;0.999;15.134;-1.815;14.448;1.815;0.000;0.992;96.877;-0.042;-1.148;12.419;0.000;0.999;16.383
0130;-1.832;13.807;1.832;0.000;0.993;91.034;-0.038;-1.224;11.957;0.000;0.998;22.315;-1.830;13.796;1.830;0.000;0.993;90.834;-0.037;-1.237;11.991;0.000;0.998;28.802;-1.835;13.832;1.835;0.000;0.993;89.118;-0.037;-1.237;12.013;0.000;0.998;19.536;-1.834;13.824;1.834;0.000;0.993;88.545;-0.038;-1.234;11.996;0.000;0.999;15.132
0131;-1.824;14.023;1.824;0.000;0.992;94.738;-0.040;-1.183;12.075;0.000;0.998;21.574;-1.824;14.025;1.824;0.000;0.992;94.876;-0.040;-1.183;12.073;0.000;0.998;21.499;-1.826;14.030;1.826;0.000;0.992;95.567;-0.041;-1.177;12.055;0.000;0.998;20.437;-1.826;14.026;1.826;0.000;0.992;95.338;-0.041;-1.179;12.057;0.000;0.998;20.454
0132;-1.837;14.008;1.837;0.000;0.993;91.281;-0.039;-1.221;12.133;0.000;0.999;18.897;-1.837;14.013;1.837;0.000;0.993;91.291;-0.039;-1.219;12.133;0.000;0.999;18.054;-1.835;14.005;1.835;0.000;0.993;91.268;-0.039;-1.218;12.127;0.000;0.999;18.265;-1.833;13.991;1.833;0.000;0.993;90.549;-0.038;-1.225;12.139;0.000;0.998;19.997
0133;-1.809;14.058;1.809;0.000;0.991;100.858;-0.043;-1.119;11.958;0.000;0.998;23.432;-1.809;14.057;1.809;0.000;0.991;101.188;-0.043;-1.117;11.950;0.000;0.998;23.751;-1.809;14.070;1.809;0.000;0.991;102.090;-0.044;-1.110;11.944;0.000;0.998;24.911;-1.807;14.077;1.807;0.000;0.991;102.398;-0.044;-1.105;11.939;0.000;0.998;24.212
0134;-1.825;14.054;1.825;0.000;0.992;96.384;-0.041;-1.175;12.076;0.000;0.998;23.866;-1.825;14.071;1.825;0.000;0.992;95.957;-0.040;-1.179;12.106;0.000;0.998;24.256;-1.826;14.074;1.826;0.000;0.992;96.600;-0.041;-1.171;12.083;0.000;0.998;22.539;-1.824;14.057;1.824;0.000;0.992;96.121;-0.041;-1.173;12.078;0.000;0.998;22.465
0135;-1.803;13.881;1.803;0.000;0.990;104.418;-0.045;-1.088;11.705;0.000;0.998;27.591;-1.800;13.895;1.800;0.000;0.990;104.870;-0.045;-1.075;11.688;0.000;0.998;24.050;-1.794;13.890;1.794;0.000;0.990;104.854;-0.045;-1.067;11.679;0.000;0.998;22.979;-1.795;13.890;1.795;0.000;0.990;105.358;-0.046;-1.062;11.658;0.000;0.998;21.588
0136;-1.802;13.863;1.802;0.000;0.991;103.369;-0.044;-1.106;11.745;0.000;0.998;32.451;-1.803;13.881;1.803;0.000;0.990;104.500;-0.044;-1.096;11.728;0.000;0.998;31.933;-1.805;13.882;1.805;0.000;0.990;104.534;-0.045;-1.093;11.713;0.000;0.998;29.528;-1.806;13.875;1.806;0.000;0.990;104.630;-0.044;-1.097;11.717;0.000;0.998;31.713
0137;-1.784;14.041;1.784;0.000;0.989;109.456;-0.047;-1.036;11.762;0.000;0.998;35.112;-1.784;14.035;1.784;0.000;0.989;109.823;-0.047;-1.029;11.735;0.000;0.998;33.365;-1.785;14.043;1.785;0.000;0.989;109.138;-0.047;-1.040;11.775;0.000;0.998;35.322;-1.786;14.061;1.786;0.000;0.989;108.294;-0.047;-1.042;11.797;0.000;0.998;31.774
0138;-1.816;13.743;1.816;0.000;0.991;102.007;-0.043;-1.129;11.652;0.000;0.998;30.621;-1.813;13.738;1.813;0.000;0.991;101.751;-0.043;-1.131;11.662;0.000;0.998;31.979;-1.813;13.740;1.813;0.000;0.991;102.072;-0.043;-1.125;11.647;0.000;0.998;30.551;-1.815;13.750;1.815;0.000;0.991;102.483;-0.043;-1.123;11.643;0.000;0.998;30.075
0139;-1.808;13.782;1.808;0.000;0.990;104.691;-0.043;-1.116;11.676;0.000;0.998;39.901;-1.806;13.787;1.806;0.000;0.991;103.663;-0.044;-1.107;11.657;0.000;0.998;31.868;-1.804;13.814;1.804;0.000;0.990;105.548;-0.045;-1.083;11.622;0.000;0.998;30.409;-1.801;13.801;1.801;0.000;0.990;104.434;-0.044;-1.092;11.644;0.000;0.998;30.960
0140;-1.793;14.254;1.793;0.000;0.990;104.891;-0.045;-1.067;12.043;0.000;0.998;23.256;-1.794;14.258;1.794;0.000;0.990;105.101;-0.046;-1.066;12.041;0.000;0.998;23.318;-1.794;14.257;1.794;0.000;0.990;104.745;-0.045;-1.072;12.061;0.000;0.998;25.454;-1.798;14.280;1.798;0.000;0.990;105.107;-0.045;-1.073;12.073;0.000;0.998;25.457
0141;-1.804;13.872;1.804;0.000;0.990;106.104;-0.045;-1.084;11.682;0.000;0.998;33.325;-1.801;13.878;1.801;0.000;0.990;105.658;-0.045;-1.084;11.694;0.000;0.998;32.278;-1.800;13.907;1.800;0.000;0.990;105.694;-0.045;-1.078;11.711;0.000;0.998;30.340;-1.800;13.926;1.800;0.000;0.990;105.825;-0.045;-1.076;11.723;0.000;0.998;29.952
0142;-1.822;13.792;1.822;0.000;0.991;104.952;-0.044;-1.115;11.640;0.000;0.998;34.218;-1.820;13.793;1.820;0.000;0.991;104.733;-0.044;-1.112;11.638;0.000;0.998;32.665;-1.812;13.785;1.812;0.000;0.991;104.312;-0.044;-1.108;11.643;0.000;0.998;32.891;-1.811;13.799;1.811;0.000;0.990;105.203;-0.045;-1.097;11.626;0.000;0.998;31.969
0144;-1.821;14.270;1.821;0.000;0.993;92.965;-0.040;-1.178;12.313;0.000;0.999;10.335;-1.822;14.269;1.822;0.000;0.993;92.740;-0.040;-1.179;12.312;0.000;0.999;9.101;-1.821;14.275;1.821;0.000;0.993;92.707;-0.040;-1.177;12.315;0.000;0.999;8.183;-1.821;14.282;1.821;0.000;0.993;93.043;-0.040;-1.175;12.319;0.000;0.999;9.302
0145;-1.804;14.023;1.804;0.000;0.991;102.366;-0.044;-1.101;11.884;0.000;0.998;23.792;-1.804;14.019;1.804;0.000;0.991;101.905;-0.044;-1.104;11.888;0.000;0.998;22.945;-1.803;14.028;1.803;0.000;0.991;102.616;-0.045;-1.092;11.863;0.000;0.998;19.928;-1.803;14.031;1.803;0.000;0.991;103.420;-0.045;-1.088;11.855;0.000;0.998;22.155
0146;-1.814;14.096;1.814;0.000;0.992;98.841;-0.042;-1.150;12.075;0.000;0.998;27.926;-1.815;14.080;1.815;0.000;0.991;100.407;-0.041;-1.157;12.077;0.000;0.998;37.310;-1.816;14.082;1.816;0.000;0.991;101.912;-0.041;-1.156;12.071;0.000;0.998;41.800;-1.816;14.089;1.816;0.000;0.991;99.801;-0.041;-1.154;12.074;0.000;0.998;33.076
0147;-1.813;13.883;1.813;0.000;0.991;103.343;-0.044;-1.115;11.757;0.000;0.998;30.972;-1.814;13.884;1.814;0.000;0.991;102.718;-0.043;-1.122;11.776;0.000;0.998;31.187;-1.813;13.884;1.813;0.000;0.991;102.537;-0.043;-1.120;11.774;0.000;0.998;29.966;-1.813;13.894;1.813;0.000;0.991;102.564;-0.043;-1.121;11.787;0.000;0.998;30.563
0148;-1.793;13.873;1.793;0.000;0.990;104.912;-0.045;-1.070;11.671;0.000;0.998;25.318;-1.793;13.868;1.793;0.000;0.990;104.898;-0.045;-1.068;11.661;0.000;0.998;24.089;-1.795;13.878;1.795;0.000;0.990;105.260;-0.046;-1.062;11.647;0.000;0.998;21.190;-1.797;13.882;1.797;0.000;0.990;104.810;-0.046;-1.068;11.662;0.000;0.998;20.976
0149;-1.809;14.232;1.809;0.000;0.992;98.729;-0.043;-1.130;12.165;0.000;0.998;18.505;-1.811;14.208;1.811;0.000;0.992;98.123;-0.042;-1.143;12.176;0.000;0.998;22.280;-1.814;14.213;1.814;0.000;0.992;98.695;-0.042;-1.140;12.162;0.000;0.998;21.747;-1.814;14.212;1.814;0.000;0.992;99.132;-0.042;-1.137;12.152;0.000;0.998;22.240
0150;-1.819;13.802;1.819;0.000;0.991;100.052;-0.042;-1.141;11.736;0.000;0.998;25.818;-1.818;13.791;1.818;0.000;0.991;99.921;-0.042;-1.142;11.734;0.000;0.998;26.623;-1.821;13.793;1.821;0.000;0.991;100.723;-0.043;-1.138;11.715;0.000;0.998;26.818;-1.821;13.777;1.821;0.000;0.991;100.504;-0.042;-1.144;11.716;0.000;0.998;28.697
0151;-1.838;13.596;1.838;0.000;0.992;99.015;-0.039;-1.212;11.693;0.000;0.997;44.776;-1.846;13.611;1.846;0.000;0.992;100.513;-0.041;-1.197;11.635;0.000;0.998;41.234;-1.843;13.601;1.843;0.000;0.992;99.193;-0.040;-1.207;11.666;0.000;0.998;41.574;-1.843;13.600;1.843;0.000;0.992;99.361;-0.040;-1.207;11.664;0.000;0.998;42.123
0152;-1.784;14.004;1.784;0.000;0.990;107.724;-0.047;-1.041;11.741;0.000;0.998;28.949;-1.788;14.016;1.788;0.000;0.989;108.786;-0.047;-1.037;11.730;0.000;0.998;30.385;-1.789;14.035;1.789;0.000;0.989;109.316;-0.047;-1.037;11.747;0.000;0.998;32.656;-1.787;14.035;1.787;0.000;0.990;107.453;-0.047;-1.042;11.768;0.000;0.998;26.560
0153;-1.804;14.265;1.804;0.000;0.992;97.339;-0.042;-1.129;12.211;0.000;0.999;13.500;-1.805;14.294;1.805;0.000;0.992;96.887;-0.042;-1.142;12.275;0.000;0.998;18.510;-1.805;14.284;1.805;0.000;0.992;96.887;-0.041;-1.158;12.313;0.000;0.998;27.530;-1.806;14.262;1.806;0.000;0.992;98.249;-0.042;-1.130;12.206;0.000;0.998;18.314
0154;-1.918;15.287;1.918;0.000;0.997;55.384;-0.022;-1.561;14.201;0.000;0.999;18.221;-1.920;15.418;1.920;0.000;0.997;54.606;-0.022;-1.569;14.350;0.000;0.999;18.450;-1.922;15.409;1.922;0.000;0.997;53.950;-0.022;-1.574;14.349;0.000;0.999;17.837;-1.913;15.164;1.913;0.000;0.997;58.124;-0.024;-1.536;14.016;0.000;0.999;17.461
0155;-1.831;13.870;1.831;0.000;0.991;100.695;-0.043;-1.152;11.801;0.000;0.998;28.367;-1.830;13.852;1.830;0.000;0.992;100.039;-0.042;-1.160;11.813;0.000;0.998;30.257;-1.826;13.832;1.826;0.000;0.992;99.620;-0.042;-1.161;11.808;0.000;0.998;30.830;-1.826;13.828;1.826;0.000;0.992;99.617;-0.042;-1.161;11.804;0.000;0.998;30.813
0156;-1.813;13.975;1.813;0.000;0.991;100.209;-0.042;-1.143;11.935;0.000;0.998;30.802;-1.815;13.971;1.815;0.000;0.991;100.587;-0.042;-1.139;11.915;0.000;0.998;29.873;-1.814;13.967;1.814;0.000;0.992;99.419;-0.042;-1.142;11.923;0.000;0.998;26.537;-1.814;13.971;1.814;0.000;0.991;101.058;-0.043;-1.132;11.896;0.000;0.998;28.858
0157;-1.807;13.986;1.807;0.000;0.991;101.235;-0.044;-1.111;11.869;0.000;0.998;21.918;-1.809;13.943;1.809;0.000;0.991;101.742;-0.044;-1.108;11.809;0.000;0.998;21.297;-1.810;13.953;1.810;0.000;0.991;101.622;-0.044;-1.111;11.825;0.000;0.998;21.964;-1.809;13.957;1.809;0.000;0.991;101.104;-0.043;-1.118;11.856;0.000;0.998;24.335
0158;-1.793;14.198;1.793;0.000;0.991;101.661;-0.044;-1.087;12.047;0.000;0.998;17.325;-1.794;14.201;1.794;0.000;0.991;102.050;-0.045;-1.081;12.033;0.000;0.999;15.856;-1.793;14.187;1.793;0.000;0.991;101.751;-0.044;-1.090;12.048;0.000;0.998;20.242;-1.793;14.190;1.793;0.000;0.991;101.334;-0.044;-1.087;12.042;0.000;0.999;15.860
0159;-1.806;14.121;1.806;0.000;0.991;99.910;-0.043;-1.115;12.018;0.000;0.999;17.393;-1.808;14.133;1.808;0.000;0.992;97.631;-0.042;-1.132;12.077;0.000;0.999;14.737;-1.807;14.126;1.807;0.000;0.992;97.031;-0.042;-1.136;12.082;0.000;0.999;13.981;-1.808;14.117;1.808;0.000;0.992;98.824;-0.043;-1.121;12.025;0.000;0.999;13.505
0160;-1.810;13.885;1.810;0.000;0.991;101.945;-0.043;-1.115;11.771;0.000;0.998;26.277;-1.810;13.887;1.810;0.000;0.991;102.310;-0.044;-1.111;11.759;0.000;0.998;25.562;-1.812;13.896;1.812;0.000;0.991;102.571;-0.044;-1.114;11.773;0.000;0.998;27.866;-1.811;13.892;1.811;0.000;0.991;102.560;-0.044;-1.113;11.768;0.000;0.998;27.496
0161;-1.790;13.947;1.790;0.000;0.990;108.166;-0.047;-1.037;11.652;0.000;0.998;25.270;-1.786;13.890;1.786;0.000;0.990;107.523;-0.047;-1.038;11.612;0.000;0.998;24.926;-1.786;13.886;1.786;0.000;0.990;107.197;-0.046;-1.045;11.631;0.000;0.998;27.521;-1.789;13.882;1.789;0.000;0.990;108.230;-0.047;-1.040;11.602;0.000;0.998;28.575
0162;-1.792;14.223;1.792;0.000;0.991;102.475;-0.045;-1.074;12.037;0.000;0.999;14.167;-1.793;14.229;1.793;0.000;0.991;103.020;-0.046;-1.065;12.012;0.000;0.999;10.090;-1.790;14.223;1.790;0.000;0.990;103.797;-0.046;-1.061;12.007;0.000;0.999;15.393;-1.790;14.227;1.790;0.000;0.990;104.409;-0.046;-1.055;11.990;0.000;0.999;14.588
0163;-1.813;13.810;1.813;0.000;0.991;102.076;-0.043;-1.121;11.705;0.000;0.998;28.576;-1.815;13.831;1.815;0.000;0.991;102.300;-0.043;-1.126;11.735;0.000;0.998;31.135;-1.812;13.817;1.812;0.000;0.991;102.701;-0.043;-1.128;11.734;0.000;0.998;35.032;-1.814;13.820;1.814;0.000;0.991;102.893;-0.043;-1.121;11.712;0.000;0.998;31.858
0164;-1.815;13.957;1.815;0.000;0.991;101.535;-0.043;-1.130;11.873;0.000;0.998;29.540;-1.817;13.954;1.817;0.000;0.991;102.310;-0.043;-1.127;11.854;0.000;0.998;30.634;-1.820;13.941;1.820;0.000;0.991;104.037;-0.043;-1.135;11.857;0.000;0.998;40.256;-1.818;13.937;1.818;0.000;0.991;102.837;-0.043;-1.137;11.865;0.000;0.998;37.266
0165;-1.817;14.096;1.817;0.000;0.992;98.578;-0.042;-1.144;12.047;0.000;0.998;21.504;-1.817;14.086;1.817;0.000;0.992;98.706;-0.042;-1.145;12.041;0.000;0.998;22.925;-1.815;14.075;1.815;0.000;0.992;97.775;-0.042;-1.148;12.046;0.000;0.998;21.187;-1.814;14.082;1.814;0.000;0.992;97.552;-0.042;-1.148;12.054;0.000;0.998;20.320
0166;-1.808;14.120;1.808;0.000;0.992;97.527;-0.042;-1.132;12.061;0.000;0.999;13.485;-1.808;14.119;1.808;0.000;0.992;97.545;-0.042;-1.133;12.066;0.000;0.999;15.019;-1.809;14.117;1.809;0.000;0.992;97.893;-0.042;-1.132;12.056;0.000;0.999;15.098;-1.809;14.116;1.809;0.000;0.992;98.102;-0.043;-1.128;12.042;0.000;0.999;13.489
0168;-1.802;14.034;1.802;0.000;0.990;105.798;-0.046;-1.075;11.821;0.000;0.998;27.766;-1.803;14.039;1.803;0.000;0.990;105.291;-0.045;-1.080;11.839;0.000;0.998;27.689;-1.802;14.031;1.802;0.000;0.990;105.033;-0.045;-1.079;11.829;0.000;0.998;26.048;-1.800;14.016;1.800;0.000;0.990;104.916;-0.045;-1.079;11.822;0.000;0.998;26.800
0169;-1.826;13.597;1.826;0.000;0.992;98.503;-0.042;-1.160;11.570;0.000;0.998;25.282;-1.826;13.585;1.826;0.000;0.992;98.884;-0.042;-1.158;11.553;0.000;0.998;26.141;-1.822;13.566;1.822;0.000;0.992;97.790;-0.041;-1.169;11.576;0.000;0.998;28.297;-1.823;13.573;1.823;0.000;0.992;98.027;-0.041;-1.170;11.586;0.000;0.998;29.824
0170;-1.829;13.901;1.829;0.000;0.992;99.625;-0.041;-1.167;11.886;0.000;0.998;32.355;-1.828;13.914;1.828;0.000;0.992;99.039;-0.042;-1.161;11.885;0.000;0.998;27.361;-1.827;13.928;1.827;0.000;0.992;98.742;-0.042;-1.159;11.896;0.000;0.998;25.484;-1.826;13.919;1.826;0.000;0.992;98.846;-0.042;-1.162;11.898;0.000;0.998;27.861
0171;-1.798;13.798;1.798;0.000;0.989;110.470;-0.046;-1.069;11.580;0.000;0.997;48.107;-1.800;13.812;1.800;0.000;0.989;110.376;-0.046;-1.058;11.551;0.000;0.998;42.099;-1.800;13.796;1.800;0.000;0.989;109.147;-0.046;-1.058;11.537;0.000;0.998;36.816;-1.800;13.780;1.800;0.000;0.990;108.466;-0.046;-1.061;11.531;0.000;0.998;35.181
0173;-1.818;14.024;1.818;0.000;0.991;100.535;-0.042;-1.152;11.997;0.000;0.998;34.214;-1.818;14.012;1.818;0.000;0.992;99.666;-0.042;-1.151;11.983;0.000;0.998;30.290;-1.818;13.997;1.818;0.000;0.992;99.111;-0.042;-1.152;11.970;0.000;0.998;28.178;-1.818;13.995;1.818;0.000;0.992;99.479;-0.042;-1.154;11.972;0.000;0.998;30.379
0174;-1.842;13.633;1.842;0.000;0.992;95.925;-0.039;-1.226;11.756;0.000;0.998;37.462;-1.842;13.626;1.842;0.000;0.992;96.037;-0.038;-1.235;11.779;0.000;0.998;41.461;-1.844;13.628;1.844;0.000;0.992;96.083;-0.039;-1.219;11.724;0.000;0.998;34.456;-1.846;13.635;1.846;0.000;0.992;96.983;-0.040;-1.200;11.669;0.000;0.998;28.640
0175;-1.805;14.268;1.805;0.000;0.992;97.705;-0.043;-1.125;12.200;0.000;0.999;12.491;-1.805;14.277;1.805;0.000;0.992;97.493;-0.042;-1.128;12.217;0.000;0.999;12.853;-1.807;14.269;1.807;0.000;0.992;97.225;-0.042;-1.132;12.215;0.000;0.999;12.683;-1.806;14.267;1.806;0.000;0.992;97.564;-0.042;-1.127;12.203;0.000;0.999;12.275
0176;-1.790;13.766;1.790;0.000;0.990;106.917;-0.047;-1.043;11.493;0.000;0.998;22.318;-1.785;13.736;1.785;0.000;0.990;105.971;-0.046;-1.054;11.510;0.000;0.998;26.492;-1.789;13.763;1.789;0.000;0.990;107.731;-0.047;-1.041;11.487;0.000;0.998;26.372;-1.787;13.750;1.787;0.000;0.990;106.372;-0.046;-1.059;11.534;0.000;0.998;30.449
0177;-1.818;14.067;1.818;0.000;0.991;99.884;-0.043;-1.136;11.992;0.000;0.998;23.107;-1.816;14.054;1.816;0.000;0.991;99.731;-0.043;-1.135;11.981;0.000;0.998;22.641;-1.815;14.042;1.815;0.000;0.992;99.147;-0.042;-1.142;11.994;0.000;0.998;24.484;-1.816;14.033;1.816;0.000;0.992;99.207;-0.042;-1.146;11.994;0.000;0.998;26.448
0178;-1.812;13.881;1.812;0.000;0.991;102.587;-0.044;-1.111;11.746;0.000;0.998;25.670;-1.809;13.860;1.809;0.000;0.991;101.608;-0.043;-1.117;11.754;0.000;0.998;26.167;-1.809;13.871;1.809;0.000;0.991;102.086;-0.044;-1.111;11.747;0.000;0.998;25.138;-1.810;13.875;1.810;0.000;0.991;102.563;-0.044;-1.108;11.739;0.000;0.998;25.320
0179;-1.791;13.833;1.791;0.000;0.990;104.324;-0.045;-1.070;11.639;0.000;0.998;23.573;-1.800;13.833;1.800;0.000;0.990;105.186;-0.046;-1.070;11.613;0.000;0.998;23.242;-1.807;13.797;1.807;0.000;0.991;103.889;-0.044;-1.106;11.661;0.000;0.998;31.945;-1.798;13.853;1.798;0.000;0.990;105.101;-0.045;-1.072;11.643;0.000;0.998;24.704
0180;-1.802;13.918;1.802;0.000;0.990;105.366;-0.045;-1.082;11.725;0.000;0.998;29.361;-1.801;13.928;1.801;0.000;0.990;105.954;-0.046;-1.073;11.713;0.000;0.998;28.360;-1.801;13.920;1.801;0.000;0.990;105.939;-0.045;-1.081;11.730;0.000;0.998;32.585;-1.805;13.937;1.805;0.000;0.990;107.300;-0.046;-1.077;11.720;0.000;0.998;34.870
0181;-1.815;13.721;1.815;0.000;0.991;102.994;-0.043;-1.122;11.612;0.000;0.998;32.168;-1.814;13.733;1.814;0.000;0.991;103.383;-0.044;-1.116;11.608;0.000;0.998;31.422;-1.814;13.739;1.814;0.000;0.991;103.501;-0.044;-1.115;11.611;0.000;0.998;31.554;-1.814;13.736;1.814;0.000;0.991;103.681;-0.044;-1.117;11.613;0.000;0.998;33.070
0182;-1.807;13.884;1.807;0.000;0.991;103.975;-0.044;-1.102;11.738;0.000;0.998;30.640;-1.805;13.872;1.805;0.000;0.991;103.590;-0.043;-1.110;11.758;0.000;0.998;34.161;-1.805;13.875;1.805;0.000;0.991;103.553;-0.043;-1.111;11.763;0.000;0.998;34.316;-1.808;13.894;1.808;0.000;0.991;104.149;-0.044;-1.106;11.757;0.000;0.998;32.962
0183;-1.790;14.067;1.790;0.000;0.990;103.874;-0.046;-1.061;11.846;0.000;0.999;14.800;-1.791;14.070;1.791;0.000;0.990;104.411;-0.046;-1.058;11.840;0.000;0.999;16.187;-1.789;14.068;1.789;0.000;0.990;104.168;-0.046;-1.060;11.848;0.000;0.998;16.991;-1.787;14.068;1.787;0.000;0.990;104.012;-0.046;-1.059;11.851;0.000;0.999;16.802
0184;-1.827;14.201;1.827;0.000;0.993;92.614;-0.039;-1.198;12.288;0.000;0.999;17.914;-1.822;14.168;1.822;0.000;0.992;95.585;-0.041;-1.171;12.186;0.000;0.998;19.344;-1.818;14.131;1.818;0.000;0.992;96.807;-0.041;-1.157;12.120;0.000;0.998;19.792;-1.818;14.125;1.818;0.000;0.992;96.635;-0.041;-1.158;12.116;0.000;0.998;19.252
0185;-1.821;13.833;1.821;0.000;0.992;95.502;-0.041;-1.166;11.841;0.000;0.999;16.798;-1.818;13.831;1.818;0.000;0.992;95.374;-0.041;-1.170;11.861;0.000;0.998;20.497;-1.808;13.818;1.808;0.000;0.992;95.288;-0.041;-1.157;11.836;0.000;0.999;17.802;-1.799;13.836;1.799;0.000;0.992;97.745;-0.043;-1.118;11.763;0.000;0.999;11.637
0186;-1.875;13.811;1.875;0.000;0.996;70.340;-0.030;-1.396;12.354;0.000;0.999;8.451;-1.879;13.955;1.879;0.000;0.996;69.592;-0.030;-1.408;12.520;0.000;0.999;9.622;-1.867;14.023;1.867;0.000;0.995;74.827;-0.033;-1.347;12.440;0.000;0.999;1.646;-1.855;13.969;1.855;0.000;0.996;70.326;-0.030;-1.373;12.503;0.000;0.999;6.800
0187;-1.821;14.161;1.821;0.000;0.993;89.396;-0.038;-1.209;12.296;0.000;0.999;11.822;-1.820;14.179;1.820;0.000;0.993;89.167;-0.039;-1.203;12.303;0.000;0.999;7.760;-1.821;14.195;1.821;0.000;0.993;90.132;-0.039;-1.194;12.286;0.000;0.999;5.338;-1.821;14.160;1.821;0.000;0.993;90.467;-0.039;-1.197;12.262;0.000;0.999;10.093
0188;-1.825;14.260;1.825;0.000;0.993;87.579;-0.037;-1.226;12.438;0.000;0.999;11.489;-1.823;14.257;1.823;0.000;0.994;86.226;-0.036;-1.240;12.483;0.000;0.999;14.842;-1.824;14.266;1.824;0.000;0.994;86.144;-0.037;-1.240;12.486;0.000;0.999;13.368;-1.825;14.257;1.825;0.000;0.994;86.109;-0.037;-1.230;12.445;0.000;0.999;5.921
0189;-1.842;14.092;1.842;0.000;0.993;91.694;-0.038;-1.235;12.246;0.000;0.998;25.752;-1.841;14.119;1.841;0.000;0.993;92.001;-0.038;-1.227;12.250;0.000;0.998;23.326;-1.840;14.123;1.840;0.000;0.993;91.220;-0.038;-1.233;12.275;0.000;0.998;23.565;-1.839;14.123;1.839;0.000;0.993;91.944;-0.038;-1.227;12.258;0.000;0.998;23.834
0190;-1.832;14.141;1.832;0.000;0.994;84.341;-0.036;-1.249;12.368;0.000;0.999;5.556;-1.833;14.139;1.833;0.000;0.994;84.602;-0.037;-1.246;12.353;0.000;0.999;3.884;-1.834;14.153;1.834;0.000;0.994;84.802;-0.037;-1.242;12.349;0.000;0.999;0.540;-1.836;14.172;1.836;0.000;0.994;85.632;-0.037;-1.239;12.356;0.000;0.999;2.268
0191;-1.803;14.103;1.803;0.000;0.991;99.385;-0.043;-1.112;12.001;0.000;0.999;14.639;-1.803;14.099;1.803;0.000;0.991;100.505;-0.044;-1.099;11.956;0.000;0.999;11.848;-1.798;14.096;1.798;0.000;0.991;100.223;-0.044;-1.099;11.969;0.000;0.999;13.957;-1.797;14.080;1.797;0.000;0.992;98.304;-0.043;-1.114;12.001;0.000;0.999;13.367
0192;-1.800;14.007;1.800;0.000;0.991;100.867;-0.044;-1.101;11.878;0.000;0.998;17.618;-1.797;13.982;1.797;0.000;0.991;101.686;-0.044;-1.090;11.829;0.000;0.999;17.117;-1.796;13.957;1.796;0.000;0.991;103.205;-0.045;-1.083;11.787;0.000;0.998;22.089;-1.798;13.974;1.798;0.000;0.990;104.294;-0.045;-1.082;11.796;0.000;0.998;26.444
0193;-1.822;13.948;1.822;0.000;0.992;97.171;-0.041;-1.164;11.944;0.000;0.998;22.950;-1.825;13.955;1.825;0.000;0.992;96.976;-0.041;-1.170;11.962;0.000;0.998;24.000;-1.823;13.965;1.823;0.000;0.992;96.363;-0.041;-1.175;11.993;0.000;0.998;24.873;-1.826;13.975;1.826;0.000;0.992;96.450;-0.041;-1.176;11.995;0.000;0.998;23.873
0194;-1.780;14.047;1.780;0.000;0.988;113.027;-0.050;-0.982;11.618;0.000;0.998;27.106;-1.780;14.054;1.780;0.000;0.988;113.024;-0.050;-0.984;11.632;0.000;0.998;28.424;-1.780;14.047;1.780;0.000;0.988;112.526;-0.049;-0.989;11.641;0.000;0.998;28.701;-1.780;14.042;1.780;0.000;0.988;112.415;-0.050;-0.989;11.635;0.000;0.998;27.724
0195;-1.804;14.367;1.804;0.000;0.991;100.263;-0.043;-1.111;12.257;0.000;0.998;18.008;-1.800;14.341;1.800;0.000;0.991;100.160;-0.043;-1.105;12.227;0.000;0.999;16.500;-1.800;14.337;1.800;0.000;0.991;101.397;-0.044;-1.095;12.189;0.000;0.999;16.380;-1.804;14.394;1.804;0.000;0.991;101.550;-0.044;-1.094;12.234;0.000;0.999;14.492
0196;-1.777;13.813;1.777;0.000;0.989;109.290;-0.048;-1.008;11.473;0.000;0.998;22.420;-1.774;13.801;1.774;0.000;0.989;108.701;-0.048;-1.011;11.480;0.000;0.998;22.960;-1.774;13.824;1.774;0.000;0.989;109.536;-0.048;-1.005;11.481;0.000;0.998;23.495;-1.775;13.846;1.775;0.000;0.989;110.147;-0.048;-1.001;11.492;0.000;0.998;24.841
0197;-1.809;14.166;1.809;0.000;0.992;97.758;-0.042;-1.134;12.114;0.000;0.999;16.323;-1.809;14.134;1.809;0.000;0.991;100.232;-0.043;-1.120;12.037;0.000;0.998;20.580;-1.811;14.116;1.811;0.000;0.991;101.149;-0.043;-1.125;12.028;0.000;0.998;27.172;-1.808;14.111;1.808;0.000;0.991;99.963;-0.043;-1.121;12.018;0.000;0.998;20.012
0198;-1.821;13.708;1.821;0.000;0.991;100.634;-0.043;-1.137;11.627;0.000;0.998;25.718;-1.819;13.699;1.819;0.000;0.991;101.121;-0.043;-1.138;11.626;0.000;0.998;29.586;-1.819;13.690;1.819;0.000;0.991;100.990;-0.042;-1.143;11.632;0.000;0.998;31.312;-1.822;13.708;1.822;0.000;0.991;101.657;-0.043;-1.139;11.630;0.000;0.998;31.233
0199;-1.796;13.948;1.796;0.000;0.991;101.466;-0.044;-1.093;11.809;0.000;0.998;18.618;-1.796;13.952;1.796;0.000;0.991;101.857;-0.044;-1.091;11.805;0.000;0.998;19.463;-1.796;13.946;1.796;0.000;0.991;101.915;-0.044;-1.093;11.804;0.000;0.998;20.712;-1.797;13.943;1.797;0.000;0.991;101.968;-0.044;-1.091;11.794;0.000;0.998;19.574
0200;-1.808;13.927;1.808;0.000;0.991;100.711;-0.043;-1.118;11.827;0.000;0.998;22.534;-1.810;13.918;1.810;0.000;0.991;101.327;-0.043;-1.118;11.812;0.000;0.998;24.688;-1.805;13.919;1.805;0.000;0.991;101.193;-0.043;-1.112;11.807;0.000;0.998;22.998;-1.803;13.913;1.803;0.000;0.991;100.999;-0.043;-1.112;11.808;0.000;0.998;23.199
0201;-1.790;13.969;1.790;0.000;0.990;105.273;-0.046;-1.061;11.748;0.000;0.998;23.566;-1.788;13.976;1.788;0.000;0.990;105.670;-0.045;-1.065;11.775;0.000;0.998;29.490;-1.788;13.982;1.788;0.000;0.990;105.506;-0.046;-1.057;11.756;0.000;0.998;23.964;-1.789;13.980;1.789;0.000;0.990;105.412;-0.046;-1.054;11.743;0.000;0.998;21.061
0202;-1.797;14.007;1.797;0.000;0.990;106.119;-0.046;-1.065;11.780;0.000;0.998;26.936;-1.796;14.003;1.796;0.000;0.990;106.054;-0.046;-1.064;11.774;0.000;0.998;26.397;-1.796;14.001;1.796;0.000;0.990;106.290;-0.046;-1.062;11.768;0.000;0.998;26.904;-1.795;14.005;1.795;0.000;0.990;106.068;-0.046;-1.063;11.779;0.000;0.998;26.974
0203;-1.793;13.680;1.793;0.000;0.990;106.455;-0.046;-1.061;11.452;0.000;0.998;28.707;-1.793;13.689;1.793;0.000;0.990;106.931;-0.046;-1.054;11.440;0.000;0.998;27.262;-1.793;13.683;1.793;0.000;0.990;107.419;-0.047;-1.049;11.420;0.000;0.998;27.257;-1.792;13.654;1.792;0.000;0.990;106.952;-0.046;-1.058;11.418;0.000;0.998;29.800
0204;-1.793;14.342;1.793;0.000;0.991;98.638;-0.043;-1.109;12.261;0.000;0.999;14.905;-1.794;14.346;1.794;0.000;0.991;99.399;-0.043;-1.101;12.235;0.000;0.999;12.586;-1.789;14.302;1.789;0.000;0.991;99.059;-0.044;-1.093;12.185;0.000;0.999;8.807;-1.786;14.279;1.786;0.000;0.991;99.096;-0.043;-1.099;12.189;0.000;0.999;15.523
0205;-1.800;13.875;1.800;0.000;0.990;104.418;-0.045;-1.076;11.670;0.000;0.998;21.898;-1.798;13.907;1.798;0.000;0.990;105.442;-0.046;-1.060;11.663;0.000;0.998;19.555;-1.798;13.922;1.798;0.000;0.990;105.799;-0.046;-1.064;11.686;0.000;0.998;23.395;-1.796;13.905;1.796;0.000;0.990;105.466;-0.045;-1.069;11.694;0.000;0.998;26.475
0206;-1.815;14.053;1.815;0.000;0.992;97.700;-0.042;-1.146;12.019;0.000;0.998;19.763;-1.814;14.042;1.814;0.000;0.992;96.934;-0.042;-1.149;12.019;0.000;0.999;17.984;-1.816;14.046;1.816;0.000;0.992;97.322;-0.041;-1.155;12.034;0.000;0.998;22.358;-1.816;14.053;1.816;0.000;0.992;96.930;-0.041;-1.159;12.054;0.000;0.998;22.729
0207;-1.785;14.177;1.785;0.000;0.990;105.052;-0.046;-1.043;11.919;0.000;0.999;13.762;-1.782;14.167;1.782;0.000;0.990;105.295;-0.047;-1.039;11.904;0.000;0.999;13.864;-1.782;14.160;1.782;0.000;0.990;104.919;-0.046;-1.043;11.912;0.000;0.999;15.093;-1.786;14.170;1.786;0.000;0.990;105.503;-0.047;-1.041;11.903;0.000;0.999;14.417
0208;-1.811;13.670;1.811;0.000;0.990;106.915;-0.046;-1.081;11.449;0.000;0.998;32.141;-1.812;13.655;1.812;0.000;0.990;106.574;-0.045;-1.088;11.452;0.000;0.998;33.692;-1.813;13.650;1.813;0.000;0.990;106.643;-0.045;-1.093;11.459;0.000;0.998;35.864;-1.813;13.658;1.813;0.000;0.990;106.865;-0.045;-1.087;11.449;0.000;0.998;34.060
0209;-1.818;13.979;1.818;0.000;0.991;101.497;-0.043;-1.130;11.885;0.000;0.998;27.657;-1.818;13.978;1.818;0.000;0.991;101.581;-0.043;-1.128;11.878;0.000;0.998;26.952;-1.816;13.967;1.816;0.000;0.991;100.920;-0.043;-1.134;11.890;0.000;0.998;27.977;-1.815;13.951;1.815;0.000;0.991;100.395;-0.042;-1.142;11.904;0.000;0.998;30.579
0210;-1.835;14.076;1.835;0.000;0.992;95.751;-0.039;-1.204;12.156;0.000;0.998;30.874;-1.838;14.117;1.838;0.000;0.993;94.179;-0.039;-1.216;12.225;0.000;0.998;28.640;-1.839;14.139;1.839;0.000;0.992;95.347;-0.040;-1.198;12.187;0.000;0.998;23.797;-1.837;14.131;1.837;0.000;0.992;95.572;-0.040;-1.194;12.174;0.000;0.998;24.052
0211;-1.852;14.828;1.852;0.000;0.995;79.846;-0.034;-1.305;13.162;0.000;0.999;7.205;-1.869;15.085;1.869;0.000;0.995;72.577;-0.031;-1.369;13.562;0.000;0.999;4.743;-1.871;15.080;1.871;0.000;0.995;73.157;-0.031;-1.370;13.557;0.000;0.999;6.975;-1.870;15.064;1.870;0.000;0.995;73.011;-0.031;-1.372;13.547;0.000;0.999;7.732
0212;-1.794;14.080;1.794;0.000;0.990;104.187;-0.045;-1.069;11.874;0.000;0.998;20.217;-1.793;14.084;1.793;0.000;0.990;104.126;-0.045;-1.074;11.896;0.000;0.998;23.630;-1.792;14.083;1.792;0.000;0.990;104.174;-0.045;-1.072;11.891;0.000;0.998;23.032;-1.791;14.063;1.791;0.000;0.990;103.964;-0.045;-1.073;11.879;0.000;0.998;23.507
0213;-1.832;14.341;1.832;0.000;0.993;90.935;-0.039;-1.214;12.462;0.000;0.999;16.374;-1.839;14.293;1.839;0.000;0.993;89.498;-0.038;-1.235;12.455;0.000;0.999;17.616;-1.840;14.292;1.840;0.000;0.993;90.110;-0.038;-1.229;12.431;0.000;0.999;16.234;-1.836;14.294;1.836;0.000;0.993;90.306;-0.038;-1.228;12.443;0.000;0.999;19.064
0215;-1.828;13.958;1.828;0.000;0.992;96.208;-0.041;-1.176;11.973;0.000;0.998;21.747;-1.825;13.941;1.825;0.000;0.992;95.120;-0.040;-1.185;11.992;0.000;0.998;23.394;-1.828;13.959;1.828;0.000;0.992;95.807;-0.041;-1.179;11.985;0.000;0.998;21.768;-1.828;13.963;1.828;0.000;0.992;95.205;-0.040;-1.185;12.007;0.000;0.998;22.381
0216;-1.803;14.077;1.803;0.000;0.991;103.592;-0.044;-1.098;11.929;0.000;0.998;28.540;-1.803;14.044;1.803;0.000;0.991;103.126;-0.044;-1.096;11.894;0.000;0.998;25.720;-1.802;14.037;1.802;0.000;0.991;103.318;-0.044;-1.092;11.877;0.000;0.998;24.670;-1.801;14.046;1.801;0.000;0.991;103.406;-0.045;-1.089;11.880;0.000;0.998;24.180
0217;-1.802;14.259;1.802;0.000;0.991;100.228;-0.043;-1.108;12.146;0.000;0.999;17.230;-1.800;14.236;1.800;0.000;0.991;101.201;-0.044;-1.098;12.100;0.000;0.998;17.687;-1.798;14.224;1.798;0.000;0.991;101.340;-0.044;-1.094;12.082;0.000;0.999;17.190;-1.799;14.214;1.799;0.000;0.991;101.160;-0.044;-1.098;12.080;0.000;0.998;18.006
0218;-1.797;14.055;1.797;0.000;0.991;103.904;-0.045;-1.081;11.876;0.000;0.998;24.203;-1.804;14.063;1.804;0.000;0.990;104.770;-0.045;-1.087;11.880;0.000;0.998;28.017;-1.802;14.049;1.802;0.000;0.990;104.555;-0.045;-1.083;11.861;0.000;0.998;26.044;-1.798;14.052;1.798;0.000;0.990;104.156;-0.045;-1.079;11.862;0.000;0.998;23.385
0219;-1.809;13.862;1.809;0.000;0.991;103.135;-0.043;-1.114;11.749;0.000;0.998;32.145;-1.811;13.842;1.811;0.000;0.991;103.000;-0.044;-1.111;11.712;0.000;0.998;28.703;-1.809;13.865;1.809;0.000;0.991;102.894;-0.044;-1.104;11.720;0.000;0.998;25.374;-1.806;13.910;1.806;0.000;0.991;103.157;-0.044;-1.100;11.762;0.000;0.998;26.269
0220;-1.796;14.207;1.796;0.000;0.990;105.319;-0.046;-1.056;11.957;0.000;0.999;17.310;-1.794;14.183;1.794;0.000;0.990;104.098;-0.045;-1.069;11.977;0.000;0.998;19.780;-1.795;14.152;1.795;0.000;0.991;103.449;-0.045;-1.079;11.974;0.000;0.998;21.870;-1.798;14.171;1.798;0.000;0.990;104.481;-0.046;-1.068;11.949;0.000;0.998;18.408
0221;-1.796;14.002;1.796;0.000;0.990;107.801;-0.047;-1.048;11.726;0.000;0.998;26.778;-1.792;13.996;1.792;0.000;0.990;106.794;-0.046;-1.053;11.746;0.000;0.998;26.381;-1.790;13.976;1.790;0.000;0.990;106.452;-0.046;-1.055;11.738;0.000;0.998;26.691;-1.790;13.954;1.790;0.000;0.990;106.440;-0.046;-1.058;11.727;0.000;0.998;28.670
0222;-1.815;13.780;1.815;0.000;0.991;102.696;-0.044;-1.112;11.641;0.000;0.998;25.492;-1.817;13.802;1.817;0.000;0.991;103.576;-0.045;-1.106;11.637;0.000;0.998;25.342;-1.817;13.814;1.817;0.000;0.991;104.047;-0.045;-1.104;11.642;0.000;0.998;26.451;-1.814;13.802;1.814;0.000;0.991;103.125;-0.044;-1.115;11.674;0.000;0.998;29.747
0223;-1.829;14.057;1.829;0.000;0.992;95.402;-0.040;-1.190;12.112;0.000;0.998;25.098;-1.828;14.057;1.828;0.000;0.992;95.662;-0.040;-1.187;12.105;0.000;0.998;25.216;-1.832;14.052;1.832;0.000;0.992;95.530;-0.040;-1.195;12.114;0.000;0.998;26.975;-1.831;14.057;1.831;0.000;0.992;95.488;-0.040;-1.191;12.108;0.000;0.998;25.023
0224;-1.808;13.886;1.808;0.000;0.991;102.875;-0.044;-1.108;11.754;0.000;0.998;27.846;-1.809;13.904;1.809;0.000;0.991;103.528;-0.044;-1.099;11.745;0.000;0.998;26.048;-1.809;13.908;1.809;0.000;0.991;103.623;-0.044;-1.100;11.752;0.000;0.998;27.113;-1.808;13.911;1.808;0.000;0.991;103.754;-0.044;-1.099;11.753;0.000;0.998;27.355
0225;-1.840;14.126;1.840;0.000;0.993;91.573;-0.038;-1.226;12.258;0.000;0.998;21.561;-1.839;14.138;1.839;0.000;0.993;89.683;-0.038;-1.235;12.302;0.000;0.999;18.932;-1.840;14.135;1.840;0.000;0.993;89.879;-0.038;-1.236;12.299;0.000;0.998;19.665;-1.839;14.104;1.839;0.000;0.993;90.472;-0.038;-1.235;12.267;0.000;0.998;22.200
0226;-1.818;13.822;1.818;0.000;0.992;99.591;-0.042;-1.141;11.762;0.000;0.998;24.432;-1.819;13.808;1.819;0.000;0.992;99.530;-0.042;-1.145;11.759;0.000;0.998;26.173;-1.819;13.795;1.819;0.000;0.992;99.060;-0.042;-1.149;11.756;0.000;0.998;25.752;-1.820;13.798;1.820;0.000;0.992;99.487;-0.042;-1.149;11.754;0.000;0.998;26.954
0227;-1.816;13.997;1.816;0.000;0.991;100.660;-0.043;-1.131;11.910;0.000;0.998;24.910;-1.818;13.980;1.818;0.000;0.991;100.095;-0.042;-1.139;11.915;0.000;0.998;26.143;-1.818;13.994;1.818;0.000;0.991;100.070;-0.043;-1.137;11.921;0.000;0.998;24.442;-1.817;14.000;1.817;0.000;0.991;100.609;-0.043;-1.137;11.930;0.000;0.998;27.590
0228;-1.826;13.976;1.826;0.000;0.992;95.042;-0.039;-1.198;12.064;0.000;0.998;29.221;-1.832;13.997;1.832;0.000;0.992;96.295;-0.040;-1.189;12.040;0.000;0.998;27.184;-1.833;14.013;1.833;0.000;0.992;98.292;-0.041;-1.175;12.010;0.000;0.998;28.416;-1.835;14.010;1.835;0.000;0.992;99.334;-0.042;-1.169;11.984;0.000;0.998;29.227
0230;-1.807;13.817;1.807;0.000;0.990;105.331;-0.045;-1.084;11.616;0.000;0.998;27.621;-1.805;13.795;1.805;0.000;0.990;105.157;-0.045;-1.088;11.612;0.000;0.998;30.156;-1.804;13.793;1.804;0.000;0.990;105.503;-0.045;-1.082;11.594;0.000;0.998;28.946;-1.803;13.790;1.803;0.000;0.990;105.870;-0.045;-1.081;11.593;0.000;0.998;31.124
0231;-1.822;13.969;1.822;0.000;0.992;96.914;-0.042;-1.157;11.944;0.000;0.999;17.464;-1.823;13.952;1.823;0.000;0.992;96.488;-0.041;-1.167;11.957;0.000;0.998;21.220;-1.822;13.928;1.822;0.000;0.992;96.603;-0.041;-1.174;11.953;0.000;0.998;25.537;-1.823;13.932;1.823;0.000;0.992;97.347;-0.041;-1.166;11.931;0.000;0.998;24.350
0233;-1.815;13.821;1.815;0.000;0.991;102.410;-0.044;-1.116;11.693;0.000;0.998;26.086;-1.815;13.827;1.815;0.000;0.991;102.958;-0.044;-1.109;11.679;0.000;0.998;25.236;-1.816;13.822;1.816;0.000;0.991;102.873;-0.044;-1.111;11.679;0.000;0.998;25.670;-1.814;13.801;1.814;0.000;0.991;102.537;-0.044;-1.117;11.679;0.000;0.998;27.911
0234;-1.804;13.628;1.804;0.000;0.990;106.736;-0.046;-1.070;11.394;0.000;0.998;29.038;-1.802;13.626;1.802;0.000;0.990;106.641;-0.046;-1.070;11.398;0.000;0.998;29.604;-1.803;13.640;1.803;0.000;0.990;107.027;-0.046;-1.071;11.414;0.000;0.998;31.868;-1.803;13.647;1.803;0.000;0.990;107.249;-0.046;-1.069;11.413;0.000;0.998;31.576
0235;-1.826;13.934;1.826;0.000;0.992;99.004;-0.041;-1.168;11.933;0.000;0.998;31.767;-1.825;13.934;1.825;0.000;0.992;98.787;-0.041;-1.165;11.926;0.000;0.998;29.762;-1.824;13.947;1.824;0.000;0.992;99.316;-0.042;-1.151;11.898;0.000;0.998;25.147;-1.823;13.942;1.823;0.000;0.992;98.942;-0.042;-1.158;11.918;0.000;0.998;27.817
0236;-1.857;13.936;1.857;0.000;0.994;85.551;-0.035;-1.303;12.250;0.000;0.998;26.935;-1.858;13.953;1.858;0.000;0.994;87.682;-0.036;-1.287;12.214;0.000;0.998;26.777;-1.854;13.942;1.854;0.000;0.994;86.072;-0.035;-1.291;12.231;0.000;0.998;25.068;-1.854;13.942;1.854;0.000;0.994;85.914;-0.036;-1.286;12.215;0.000;0.998;21.865
0237;-1.792;14.097;1.792;0.000;0.990;107.984;-0.047;-1.035;11.792;0.000;0.998;22.083;-1.791;14.086;1.791;0.000;0.990;107.555;-0.047;-1.043;11.808;0.000;0.998;25.222;-1.790;14.082;1.790;0.000;0.990;107.721;-0.047;-1.047;11.818;0.000;0.998;28.853;-1.790;14.080;1.790;0.000;0.990;107.856;-0.047;-1.043;11.807;0.000;0.998;27.751
0238;-1.815;13.849;1.815;0.000;0.991;104.746;-0.045;-1.094;11.654;0.000;0.998;25.700;-1.813;13.845;1.813;0.000;0.991;104.193;-0.045;-1.098;11.670;0.000;0.998;26.596;-1.812;13.852;1.812;0.000;0.991;104.229;-0.045;-1.099;11.680;0.000;0.998;27.423;-1.813;13.857;1.813;0.000;0.991;104.525;-0.045;-1.099;11.683;0.000;0.998;28.567
0239;-1.828;14.146;1.828;0.000;0.992;94.489;-0.039;-1.198;12.229;0.000;0.998;25.996;-1.829;14.143;1.829;0.000;0.992;95.345;-0.040;-1.194;12.212;0.000;0.998;27.325;-1.828;14.139;1.828;0.000;0.992;95.775;-0.040;-1.186;12.184;0.000;0.998;25.178;-1.828;14.143;1.828;0.000;0.992;96.311;-0.041;-1.179;12.168;0.000;0.998;24.179
0240;-1.818;13.502;1.818;0.000;0.991;102.271;-0.042;-1.144;11.451;0.000;0.998;37.881;-1.818;13.519;1.818;0.000;0.991;102.921;-0.043;-1.137;11.447;0.000;0.998;37.406;-1.817;13.521;1.817;0.000;0.991;102.723;-0.042;-1.138;11.455;0.000;0.998;37.558;-1.818;13.526;1.818;0.000;0.991;103.502;-0.042;-1.140;11.460;0.000;0.998;40.736
0241;-1.817;13.645;1.817;0.000;0.992;99.614;-0.042;-1.138;11.579;0.000;0.998;23.568;-1.816;13.642;1.816;0.000;0.992;99.524;-0.042;-1.138;11.576;0.000;0.998;23.163;-1.816;13.640;1.816;0.000;0.992;99.383;-0.042;-1.139;11.579;0.000;0.998;23.176;-1.816;13.638;1.816;0.000;0.992;99.350;-0.042;-1.139;11.579;0.000;0.998;23.340
0242;-1.811;13.837;1.811;0.000;0.991;103.640;-0.044;-1.106;11.693;0.000;0.998;29.313;-1.808;13.844;1.808;0.000;0.991;104.468;-0.045;-1.096;11.679;0.000;0.998;29.743;-1.808;13.848;1.808;0.000;0.990;104.655;-0.045;-1.091;11.668;0.000;0.998;28.035;-1.809;13.838;1.809;0.000;0.991;104.010;-0.045;-1.097;11.672;0.000;0.998;27.368
0243;-1.809;14.190;1.809;0.000;0.991;102.699;-0.044;-1.108;12.057;0.000;0.998;26.617;-1.814;14.158;1.814;0.000;0.991;102.248;-0.043;-1.121;12.051;0.000;0.998;29.006;-1.816;14.163;1.816;0.000;0.991;103.014;-0.044;-1.114;12.027;0.000;0.998;27.645;-1.815;14.153;1.815;0.000;0.991;103.060;-0.044;-1.118;12.034;0.000;0.998;30.730
0244;-1.899;14.410;1.899;0.000;0.995;79.317;-0.029;-1.444;13.056;0.000;0.997;46.780;-1.900;14.335;1.900;0.000;0.993;89.112;-0.031;-1.421;12.909;0.000;0.996;61.069;-1.894;14.289;1.894;0.000;0.993;90.894;-0.028;-1.464;13.012;0.000;0.996;71.480;-1.895;14.377;1.895;0.000;0.994;86.484;-0.030;-1.432;13.000;0.000;0.997;59.006
0245;-1.815;13.869;1.815;0.000;0.991;101.470;-0.043;-1.121;11.758;0.000;0.998;24.506;-1.816;13.867;1.816;0.000;0.991;101.513;-0.043;-1.128;11.775;0.000;0.998;28.112;-1.820;13.881;1.820;0.000;0.991;101.981;-0.043;-1.128;11.777;0.000;0.998;28.293;-1.820;13.875;1.820;0.000;0.991;101.679;-0.043;-1.134;11.787;0.000;0.998;29.705
