id;k1;b1;D1;p-value linear 1;R_score1;AIC_linear1;kef x^2 (1);kef x (1);kef 1 (1);p-value quadr 1;R_score quadr 1;AIC_quadr1;k2;b2;D2;p-value linear 2;R_score2;AIC_linear2;kef x^2 (2);kef x (2);kef 1 (2);p-value quadr 2;R_score quadr 2;AIC_quadr2;k3;b3;D3;p-value linear 3;R_score3;AIC_linear3;kef x^2 (3);kef x (3);kef 1 (3);p-value quadr 3;R_score quadr 3;AIC_quadr3;k4;b4;D4;p-value linear 4;R_score4;AIC_linear4;kef x^2 (4);kef x (4);kef 1 (4);p-value quadr 4;R_score quadr 4;AIC_quadr4;;Average linear R_score;Average quadr R_score;AIC linear;AIC quadrio
1;-1,831;14,287;1,831;0;0,993;91,497;-0,039;-1,209;12,393;0;0,999;16,266;-1,828;14,231;1,828;0;0,993;91,371;-0,039;-1,208;12,346;0;0,999;17,5;-1,83;14,229;1,83;0;0,993;90,971;-0,038;-1,216;12,36;0;0,999;18,619;-1,834;14,255;1,834;0;0,993;90,937;-0,038;-1,221;12,39;0;0,998;19,323;;0,993;0,99875;91,194;17,927
2;-1,819;13,976;1,819;0;0,993;93,447;-0,04;-1,18;12,03;0;0,999;15,748;-1,821;13,992;1,821;0;0,992;94,245;-0,041;-1,174;12,022;0;0,999;14,778;-1,824;13,969;1,824;0;0,993;93,628;-0,04;-1,19;12,041;0;0,998;20,002;-1,824;13,948;1,824;0;0,993;93,263;-0,039;-1,197;12,038;0;0,998;21,67;;0,99275;0,9985;93,64575;18,0495
3;-1,837;13,638;1,837;0;0,991;105,115;-0,037;-1,243;11,828;0;0,996;68,773;-1,84;13,65;1,84;0;0,991;104,9;-0,038;-1,233;11,802;0;0,996;65,697;-1,836;13,625;1,836;0;0,991;103,798;-0,037;-1,242;11,818;0;0,996;66,014;-1,844;13,677;1,844;0;0,99;107,524;-0,04;-1,212;11,752;0;0,996;66,518;;0,99075;0,996;105,33425;66,7505
4;-1,808;14,082;1,808;0;0,991;99,245;-0,043;-1,124;12,002;0;0,998;18,706;-1,805;14,074;1,805;0;0,992;98,847;-0,043;-1,124;12,002;0;0,998;18,258;-1,802;14,056;1,802;0;0,992;98,52;-0,042;-1,124;11,991;0;0,998;17,81;-1,802;14,036;1,802;0;0,992;98,13;-0,042;-1,124;11,972;0;0,999;15,899;;0,99175;0,99825;98,6855;17,66825
5;-1,8;13,959;1,8;0;0,991;103,202;-0,045;-1,085;11,784;0;0,998;21,122;-1,801;13,959;1,801;0;0,991;102,927;-0,045;-1,084;11,778;0;0,998;18,1;-1,8;13,955;1,8;0;0,991;103;-0,045;-1,086;11,782;0;0,998;20,378;-1,801;13,966;1,801;0;0,991;103,872;-0,045;-1,079;11,77;0;0,998;20,458;;0,991;0,998;103,25025;20,0145
6;-1,812;14,155;1,812;0;0,992;96,719;-0,041;-1,153;12,151;0;0,998;20,737;-1,811;14,157;1,811;0;0,992;97,397;-0,042;-1,147;12,134;0;0,998;20,288;-1,809;14,151;1,809;0;0,992;97,066;-0,041;-1,147;12,136;0;0,998;20,288;-1,81;14,145;1,81;0;0,992;97,134;-0,042;-1,143;12,115;0;0,999;17,676;;0,992;0,99825;97,079;19,74725
7;-1,835;14,851;1,835;0;0,993;91,255;-0,039;-1,217;12,971;0;0,999;17,801;-1,836;14,873;1,836;0;0,993;91,314;-0,039;-1,22;12,996;0;0,999;18,72;-1,837;14,882;1,837;0;0,993;90,798;-0,038;-1,223;13,013;0;0,999;18,003;-1,832;14,846;1,832;0;0,993;91,881;-0,039;-1,207;12,944;0;0,999;16,485;;0,993;0,999;91,312;17,75225
8;-1,782;14,166;1,782;0;0,99;104,103;-0,046;-1,05;11,936;0;0,999;14,107;-1,783;14,164;1,783;0;0,99;104,298;-0,046;-1,047;11,926;0;0,999;13,555;-1,785;14,164;1,785;0;0,99;104,385;-0,046;-1,049;11,923;0;0,999;13,335;-1,787;14,153;1,787;0;0,99;104,388;-0,046;-1,054;11,922;0;0,999;15,939;;0,99;0,999;104,2935;14,234
9;-1,805;13,731;1,805;0;0,991;101,781;-0,044;-1,106;11,602;0;0,998;22,729;-1,806;13,752;1,806;0;0,991;102,315;-0,044;-1,101;11,605;0;0,998;21,945;-1,805;13,736;1,805;0;0,991;101,772;-0,044;-1,105;11,605;0;0,998;22,133;-1,803;13,714;1,803;0;0,991;101,303;-0,044;-1,107;11,593;0;0,998;21,716;;0,991;0,998;101,79275;22,13075
10;-1,812;14,034;1,812;0;0,991;101,838;-0,044;-1,117;11,917;0;0,998;25,192;-1,812;14,032;1,812;0;0,991;101,804;-0,043;-1,123;11,935;0;0,998;28,7;-1,812;14,018;1,812;0;0,991;101,026;-0,043;-1,126;11,93;0;0,998;26,441;-1,812;13,988;1,812;0;0,991;100,658;-0,043;-1,124;11,894;0;0,998;23,412;;0,991;0,998;101,3315;25,93625
11;-1,812;14,189;1,812;0;0,992;98,306;-0,042;-1,144;12,154;0;0,998;22,696;-1,812;14,188;1,812;0;0,992;98,45;-0,042;-1,14;12,142;0;0,998;21,364;-1,811;14,192;1,811;0;0,992;98,562;-0,042;-1,141;12,154;0;0,998;23,438;-1,813;14,191;1,813;0;0,991;99,67;-0,042;-1,134;12,126;0;0,998;23,928;;0,99175;0,998;98,747;22,8565
13;-1,818;13,734;1,818;0;0,991;100,498;-0,042;-1,148;11,696;0;0,998;32,359;-1,818;13,745;1,818;0;0,991;100,611;-0,042;-1,143;11,689;0;0,998;30,056;-1,818;13,741;1,818;0;0,991;100,473;-0,042;-1,145;11,693;0;0,998;30,815;-1,82;13,744;1,82;0;0,991;101,243;-0,043;-1,141;11,677;0;0,998;31,116;;0,991;0,998;100,70625;31,0865
14;-1,787;14,249;1,787;0;0,99;104,165;-0,046;-1,055;12,021;0;0,999;15,24;-1,784;14,206;1,784;0;0,99;105,928;-0,047;-1,035;11,926;0;0,999;14,392;-1,783;14,191;1,783;0;0,99;106,354;-0,047;-1,036;11,916;0;0,998;18,526;-1,783;14,183;1,783;0;0,99;106,113;-0,046;-1,046;11,938;0;0,998;23,528;;0,99;0,9985;105,64;17,9215
15;-1,806;13,955;1,806;0;0,99;104,975;-0,045;-1,087;11,767;0;0,998;28,09;-1,806;13,949;1,806;0;0,99;104,635;-0,045;-1,093;11,778;0;0,998;29,631;-1,806;13,957;1,806;0;0,99;104,795;-0,045;-1,088;11,772;0;0,998;27,858;-1,806;13,936;1,806;0;0,99;104,841;-0,045;-1,09;11,758;0;0,998;29,376;;0,99;0,998;104,8115;28,73875
16;-1,819;14,215;1,819;0;0,992;95,302;-0,041;-1,165;12,223;0;0,999;15,741;-1,819;14,213;1,819;0;0,992;95,4;-0,041;-1,165;12,221;0;0,999;16,234;-1,817;14,197;1,817;0;0,992;95,61;-0,041;-1,161;12,202;0;0,999;16,896;-1,818;14,199;1,818;0;0,992;96,124;-0,042;-1,154;12,179;0;0,999;14,144;;0,992;0,999;95,609;15,75375
17;-1,842;14,012;1,842;0;0,993;89,53;-0,038;-1,238;12,173;0;0,999;17,488;-1,839;14,028;1,839;0;0,993;89,798;-0,038;-1,232;12,179;0;0,999;17,108;-1,836;14,026;1,836;0;0,993;89,507;-0,038;-1,232;12,188;0;0,999;17,572;-1,836;14,005;1,836;0;0,993;90,076;-0,038;-1,235;12,177;0;0,998;22,101;;0,993;0,99875;89,72775;18,56725
18;-1,818;14,241;1,818;0;0,992;96,044;-0,041;-1,159;12,236;0;0,999;16,973;-1,818;14,24;1,818;0;0,992;95,99;-0,041;-1,157;12,23;0;0,999;15,584;-1,818;14,221;1,818;0;0,992;95,483;-0,041;-1,161;12,222;0;0,999;15,299;-1,822;14,23;1,822;0;0,992;96,105;-0,041;-1,159;12,212;0;0,999;14,602;;0,992;0,999;95,9055;15,6145
19;-1,808;14,004;1,808;0;0,991;100,994;-0,044;-1,113;11,888;0;0,998;20,955;-1,807;13,999;1,807;0;0,991;100,641;-0,043;-1,114;11,892;0;0,998;20,713;-1,805;14,005;1,805;0;0,991;100,702;-0,043;-1,114;11,901;0;0,998;21,718;-1,806;14,005;1,806;0;0,991;100,789;-0,043;-1,113;11,895;0;0,998;21,099;;0,991;0,998;100,7815;21,12125
20;-1,789;14,011;1,789;0;0,99;106,741;-0,046;-1,056;11,782;0;0,998;29,897;-1,791;14,035;1,791;0;0,99;108,071;-0,047;-1,039;11,744;0;0,998;25,461;-1,793;14,044;1,793;0;0,989;108,718;-0,047;-1,037;11,742;0;0,998;27,002;-1,794;14,032;1,794;0;0,99;108,491;-0,047;-1,037;11,729;0;0,998;25,551;;0,98975;0,998;108,00525;26,97775
21;-1,812;14,484;1,812;0;0,992;97,232;-0,042;-1,144;12,452;0;0,999;17,671;-1,816;14,449;1,816;0;0,992;95,829;-0,041;-1,16;12,451;0;0,999;17,216;-1,816;14,44;1,816;0;0,992;96,758;-0,042;-1,15;12,413;0;0,999;16,216;-1,815;14,462;1,815;0;0,992;96,726;-0,041;-1,153;12,444;0;0,999;18,021;;0,992;0,999;96,63625;17,281
22;-1,811;13,877;1,811;0;0,991;100,91;-0,042;-1,138;11,828;0;0,998;32,469;-1,812;13,869;1,812;0;0,991;101,625;-0,043;-1,122;11,767;0;0,998;26,984;-1,811;13,851;1,811;0;0,991;101,551;-0,043;-1,12;11,746;0;0,998;26,044;-1,812;13,846;1,812;0;0,991;101,813;-0,044;-1,114;11,723;0;0,998;23,886;;0,991;0,998;101,47475;27,34575
23;-1,787;14,118;1,787;0;0,99;105,672;-0,046;-1,046;11,862;0;0,998;18,375;-1,787;14,123;1,787;0;0,99;106,192;-0,047;-1,041;11,854;0;0,998;18,536;-1,786;14,116;1,786;0;0,99;106,102;-0,047;-1,039;11,843;0;0,998;17,274;-1,783;14,113;1,783;0;0,99;106,092;-0,047;-1,033;11,831;0;0,999;14,872;;0,99;0,99825;106,0145;17,26425
24;-1,787;14,001;1,787;0;0,99;106,772;-0,047;-1,041;11,73;0;0,998;21,86;-1,787;14,007;1,787;0;0,99;107,601;-0,047;-1,031;11,708;0;0,998;20,932;-1,784;13,999;1,784;0;0,99;107,943;-0,048;-1,023;11,684;0;0,998;19,426;-1,781;13,973;1,781;0;0,99;107,525;-0,047;-1,026;11,674;0;0,998;20,388;;0,99;0,998;107,46025;20,6515
25;-1,863;14,271;1,863;0;0,995;80,416;-0,034;-1,317;12,609;0;0,999;10,665;-1,858;14,224;1,858;0;0,994;81,545;-0,034;-1,307;12,548;0;0,999;12,868;-1,855;14,199;1,855;0;0,994;81,963;-0,035;-1,304;12,52;0;0,999;14,197;-1,853;14,197;1,853;0;0,994;83,594;-0,035;-1,29;12,481;0;0,999;14,194;;0,99425;0,999;81,8795;12,981
26;-1,815;14,138;1,815;0;0,992;93,942;-0,041;-1,161;12,145;0;0,999;7,672;-1,815;14,131;1,815;0;0,992;94,063;-0,041;-1,162;12,145;0;0,999;10,112;-1,815;14,129;1,815;0;0,992;94,146;-0,041;-1,167;12,157;0;0,999;13,839;-1,815;14,13;1,815;0;0,992;94,443;-0,041;-1,161;12,14;0;0,999;11,2;;0,992;0,999;94,1485;10,70575
27;-1,833;14,022;1,833;0;0,992;95,521;-0,039;-1,206;12,113;0;0,998;31,598;-1,833;14,016;1,833;0;0,992;95,845;-0,039;-1,203;12,099;0;0,998;31,539;-1,831;14,003;1,831;0;0,992;94,487;-0,039;-1,206;12,1;0;0,998;28,282;-1,832;14;1,832;0;0,993;93,937;-0,039;-1,207;12,099;0;0,998;26,275;;0,99225;0,998;94,9475;29,4235
28;-1,825;14,105;1,825;0;0,992;96,608;-0,041;-1,166;12,101;0;0,998;20,018;-1,822;14,093;1,822;0;0,992;96,014;-0,041;-1,169;12,108;0;0,998;20,849;-1,821;14,094;1,821;0;0,992;96,591;-0,041;-1,165;12,097;0;0,998;21,428;-1,821;14,093;1,821;0;0,992;96,814;-0,041;-1,167;12,102;0;0,998;23,675;;0,992;0,998;96,50675;21,4925
29;-1,826;14,028;1,826;0;0,992;94,188;-0,04;-1,19;12,093;0;0,998;21,433;-1,826;14,028;1,826;0;0,992;95,239;-0,04;-1,187;12,083;0;0,998;24,607;-1,828;14,035;1,828;0;0,992;97,011;-0,04;-1,19;12,094;0;0,998;32,61;-1,828;14,036;1,828;0;0,992;96,655;-0,04;-1,19;12,094;0;0,998;31,14;;0,992;0,998;95,77325;27,4475
30;-1,843;13,701;1,843;0;0,993;91,856;-0,038;-1,24;11,866;0;0,998;28,252;-1,844;13,709;1,844;0;0,993;92,208;-0,038;-1,238;11,862;0;0,998;27,918;-1,844;13,7;1,844;0;0,993;92,011;-0,038;-1,241;11,865;0;0,998;28,86;-1,845;13,706;1,845;0;0,993;92,247;-0,038;-1,241;11,868;0;0,998;29,174;;0,993;0,998;92,0805;28,551
32;-1,822;13,869;1,822;0;0,992;99,716;-0,043;-1,143;11,801;0;0,998;23,588;-1,823;13,86;1,823;0;0,991;100,434;-0,043;-1,139;11,779;0;0,998;24,732;-1,82;13,844;1,82;0;0,992;99,279;-0,042;-1,151;11,806;0;0,998;26,883;-1,822;13,874;1,822;0;0,992;99,398;-0,042;-1,151;11,833;0;0,998;26,986;;0,99175;0,998;99,70675;25,54725
33;-1,809;14,063;1,809;0;0,991;101,129;-0,044;-1,112;11,941;0;0,998;20,445;-1,806;14,069;1,806;0;0,991;101,299;-0,044;-1,104;11,932;0;0,998;18,306;-1,803;14,078;1,803;0;0,991;101,51;-0,044;-1,1;11,938;0;0,998;18,706;-1,804;14,079;1,804;0;0,991;101,477;-0,044;-1,103;11,945;0;0,998;19,826;;0,991;0,998;101,35375;19,32075
35;-1,771;14,015;1,771;0;0,988;112,431;-0,05;-0,97;11,575;0;0,998;20,814;-1,774;14,02;1,774;0;0,988;114,276;-0,051;-0,96;11,542;0;0,998;24,647;-1,771;14,004;1,771;0;0,988;112,706;-0,05;-0,966;11,552;0;0,998;19,749;-1,769;13,988;1,769;0;0,988;112,055;-0,049;-0,982;11,593;0;0,998;27,869;;0,988;0,998;112,867;23,26975
36;-1,807;13,864;1,807;0;0,99;107,278;-0,046;-1,068;11,615;0;0,998;28,979;-1,805;13,873;1,805;0;0,99;107,936;-0,047;-1,056;11,594;0;0,998;27,14;-1,798;13,858;1,798;0;0,99;107,605;-0,046;-1,06;11,614;0;0,998;31,618;-1,796;13,85;1,796;0;0,99;107,393;-0,046;-1,065;11,624;0;0,998;33,727;;0,99;0,998;107,553;30,366
37;-1,826;14,046;1,826;0;0,993;92,65;-0,039;-1,205;12,155;0;0,998;22,304;-1,828;14,066;1,828;0;0,993;93,062;-0,04;-1,197;12,144;0;0,999;18,566;-1,829;14,078;1,829;0;0,993;93,5;-0,04;-1,19;12,13;0;0,999;15,547;-1,828;14,059;1,828;0;0,993;93,659;-0,04;-1,191;12,119;0;0,999;17,821;;0,993;0,99875;93,21775;18,5595
38;-1,827;13,85;1,827;0;0,992;99,114;-0,04;-1,186;11,898;0;0,998;39,079;-1,831;13,855;1,831;0;0,992;99,652;-0,04;-1,185;11,89;0;0,998;39,429;-1,831;13,845;1,831;0;0,992;99,631;-0,04;-1,186;11,881;0;0,998;39,5;-1,834;13,871;1,834;0;0,991;100,663;-0,041;-1,171;11,855;0;0,998;36,309;;0,99175;0,998;99,765;38,57925
39;-1,788;13,824;1,788;0;0,99;106,395;-0,046;-1,046;11,567;0;0,998;22,402;-1,787;13,83;1,787;0;0,99;106,773;-0,047;-1,042;11,564;0;0,998;22,87;-1,785;13,822;1,785;0;0,99;106,532;-0,046;-1,046;11,572;0;0,998;24,798;-1,785;13,809;1,785;0;0,99;106,316;-0,046;-1,052;11,58;0;0,998;27,688;;0,99;0,998;106,504;24,4395
40;-1,823;13,774;1,823;0;0,992;99,879;-0,042;-1,154;11,737;0;0,998;29,882;-1,823;13,773;1,823;0;0,991;100,078;-0,042;-1,15;11,726;0;0,998;29,115;-1,818;13,752;1,818;0;0,992;98,911;-0,041;-1,16;11,75;0;0,998;31,178;-1,819;13,767;1,819;0;0,992;99,31;-0,042;-1,155;11,746;0;0,998;30,058;;0,99175;0,998;99,5445;30,05825
41;-1,82;13,905;1,82;0;0,992;98,873;-0,042;-1,149;11,864;0;0,998;24,448;-1,818;13,88;1,818;0;0,992;99,152;-0,042;-1,151;11,849;0;0,998;27,47;-1,822;13,877;1,822;0;0,991;100,317;-0,043;-1,136;11,791;0;0,998;23,318;-1,821;13,871;1,821;0;0,991;100,172;-0,043;-1,139;11,793;0;0,998;24,041;;0,9915;0,998;99,6285;24,81925
42;-1,83;13,921;1,83;0;0,992;98,506;-0,041;-1,169;11,907;0;0,998;27,49;-1,828;13,911;1,828;0;0,992;97,409;-0,041;-1,177;11,927;0;0,998;27,659;-1,827;13,911;1,827;0;0,992;97,512;-0,041;-1,179;11,939;0;0,998;29,911;-1,826;13,91;1,826;0;0,992;97,647;-0,041;-1,174;11,926;0;0,998;28,629;;0,992;0,998;97,7685;28,42225
43;-1,806;14,162;1,806;0;0,992;97,947;-0,043;-1,124;12,086;0;0,999;11,81;-1,805;14,15;1,805;0;0,992;97,848;-0,043;-1,125;12,08;0;0,999;12,85;-1,804;14,134;1,804;0;0,992;98,262;-0,043;-1,119;12,05;0;0,999;12,013;-1,802;14,11;1,802;0;0,992;98,279;-0,043;-1,121;12,037;0;0,999;14,719;;0,992;0,999;98,084;12,848
44;-1,817;14,141;1,817;0;0,992;96,947;-0,041;-1,157;12,133;0;0,998;21,247;-1,819;14,134;1,819;0;0,992;97,823;-0,042;-1,153;12,108;0;0,998;22,087;-1,82;14,098;1,82;0;0,992;98,991;-0,041;-1,157;12,081;0;0,998;29,093;-1,818;14,067;1,818;0;0,992;98,963;-0,041;-1,165;12,079;0;0,998;33,668;;0,992;0,998;98,181;26,52375
45;-1,83;13,875;1,83;0;0,991;101,053;-0,039;-1,206;11,978;0;0,997;51,578;-1,83;13,871;1,83;0;0,991;101,292;-0,039;-1,208;11,978;0;0,997;52,704;-1,833;13,885;1,833;0;0,991;100,993;-0,04;-1,192;11,931;0;0,997;45,486;-1,835;13,871;1,835;0;0,992;100,167;-0,041;-1,186;11,897;0;0,998;40,075;;0,99125;0,99725;100,87625;47,46075
46;-1,765;14,052;1,765;0;0,988;111,751;-0,049;-0,98;11,664;0;0,998;27,506;-1,766;14,052;1,766;0;0,988;111,947;-0,05;-0,973;11,64;0;0,998;23,935;-1,764;14,041;1,764;0;0,988;111,599;-0,049;-0,978;11,649;0;0,998;25,863;-1,764;14,044;1,764;0;0,988;111,899;-0,049;-0,976;11,645;0;0,998;26,308;;0,988;0,998;111,799;25,903
47;-1,836;13,985;1,836;0;0,993;93,759;-0,039;-1,208;12,073;0;0,998;23,708;-1,838;13,989;1,838;0;0,993;93,816;-0,039;-1,21;12,08;0;0,998;24,276;-1,835;13,969;1,835;0;0,993;92,918;-0,038;-1,224;12,109;0;0,998;28,577;-1,836;13,962;1,836;0;0,993;93,317;-0,038;-1,227;12,109;0;0,998;31,145;;0,993;0,998;93,4525;26,9265
48;-1,81;13,894;1,81;0;0,992;99,057;-0,043;-1,129;11,822;0;0,998;19,336;-1,81;13,909;1,81;0;0,992;98,826;-0,043;-1,13;11,839;0;0,998;18,35;-1,809;13,893;1,809;0;0,992;98,534;-0,042;-1,133;11,834;0;0,998;19,285;-1,807;13,876;1,807;0;0,992;98,626;-0,042;-1,131;11,819;0;0,998;20,059;;0,992;0,998;98,76075;19,2575
49;-1,816;14,154;1,816;0;0,992;97,31;-0,041;-1,153;12,137;0;0,998;21,161;-1,815;14,151;1,815;0;0,992;97,235;-0,041;-1,153;12,135;0;0,998;21,086;-1,815;14,137;1,815;0;0,992;97,213;-0,041;-1,153;12,121;0;0,998;20,827;-1,814;14,127;1,814;0;0,992;97,058;-0,041;-1,155;12,123;0;0,998;22,41;;0,992;0,998;97,204;21,371
50;-1,812;13,927;1,812;0;0,991;104,277;-0,044;-1,108;11,784;0;0,998;32,712;-1,809;13,926;1,809;0;0,991;104,489;-0,044;-1,102;11,774;0;0,998;32,173;-1,807;13,917;1,807;0;0,991;104,29;-0,044;-1,101;11,768;0;0,998;31,637;-1,806;13,912;1,806;0;0,991;104,032;-0,044;-1,103;11,77;0;0,998;31,706;;0,991;0,998;104,272;32,057
52;-1,824;13,579;1,824;0;0,991;100,46;-0,042;-1,156;11,547;0;0,998;33,074;-1,825;13,562;1,825;0;0,991;100,88;-0,042;-1,155;11,523;0;0,998;33,877;-1,821;13,51;1,821;0;0,991;102,262;-0,042;-1,145;11,452;0;0,998;36,692;-1,819;13,507;1,819;0;0,991;102,201;-0,042;-1,143;11,45;0;0,998;36,817;;0,991;0,998;101,45075;35,115
53;-1,812;14,092;1,812;0;0,992;98,928;-0,043;-1,13;12,018;0;0,999;18,101;-1,814;14,094;1,814;0;0,992;98,323;-0,042;-1,136;12,03;0;0,999;17,071;-1,814;14,103;1,814;0;0,992;97,833;-0,042;-1,138;12,044;0;0,999;15,179;-1,813;14,105;1,813;0;0,992;97,794;-0,042;-1,141;12,061;0;0,998;18,265;;0,992;0,99875;98,2195;17,154
55;-1,811;13,735;1,811;0;0,99;106,795;-0,045;-1,086;11,527;0;0,998;33,826;-1,812;13,743;1,812;0;0,99;107,07;-0,046;-1,076;11,503;0;0,998;29,708;-1,81;13,731;1,81;0;0,99;106,62;-0,045;-1,087;11,532;0;0,998;34,453;-1,807;13,718;1,807;0;0,99;105,693;-0,044;-1,101;11,568;0;0,998;37,876;;0,99;0,998;106,5445;33,96575
56;-1,815;13,92;1,815;0;0,991;101,567;-0,044;-1,119;11,801;0;0,998;23,526;-1,812;13,894;1,812;0;0,991;100,87;-0,043;-1,122;11,794;0;0,998;23,403;-1,812;13,892;1,812;0;0,991;100,33;-0,043;-1,133;11,825;0;0,998;26,777;-1,816;13,911;1,816;0;0,991;101,471;-0,043;-1,131;11,826;0;0,998;29,064;;0,991;0,998;101,0595;25,6925
57;-1,796;13,806;1,796;0;0,99;106,688;-0,046;-1,06;11,567;0;0,998;27,824;-1,795;13,813;1,795;0;0,99;106,613;-0,046;-1,061;11,579;0;0,998;28,404;-1,794;13,773;1,794;0;0,99;106,28;-0,045;-1,068;11,564;0;0,998;31,099;-1,795;13,768;1,795;0;0,99;106,76;-0,046;-1,065;11,547;0;0,998;31,391;;0,99;0,998;106,58525;29,6795
58;-1,786;14,165;1,786;0;0,99;103,739;-0,046;-1,057;11,945;0;0,999;14,131;-1,785;14,165;1,785;0;0,99;103,828;-0,046;-1,056;11,946;0;0,999;15,204;-1,787;14,173;1,787;0;0,99;104,578;-0,046;-1,05;11,933;0;0,999;14,788;-1,79;14,171;1,79;0;0,99;105,042;-0,046;-1,05;11,919;0;0,999;15,173;;0,99;0,999;104,29675;14,824
59;-1,804;14,01;1,804;0;0,991;103,455;-0,045;-1,088;11,83;0;0,998;21,622;-1,803;14,004;1,803;0;0,991;103,098;-0,045;-1,091;11,838;0;0,998;22,574;-1,802;13,98;1,802;0;0,991;103,204;-0,044;-1,092;11,818;0;0,998;23,82;-1,802;13,984;1,802;0;0,991;103,417;-0,045;-1,089;11,813;0;0,998;23,145;;0,991;0,998;103,2935;22,79025
60;-1,828;13,947;1,828;0;0,992;95,745;-0,04;-1,183;11,986;0;0,998;23,875;-1,827;13,941;1,827;0;0,992;95,625;-0,04;-1,185;11,988;0;0,998;24,957;-1,826;13,935;1,826;0;0,992;95,74;-0,04;-1,186;11,988;0;0,998;26,504;-1,826;13,936;1,826;0;0,992;95,777;-0,04;-1,185;11,984;0;0,998;25,891;;0,992;0,998;95,72175;25,30675
61;-1,837;13,747;1,837;0;0,992;98,594;-0,04;-1,203;11,819;0;0,998;40,37;-1,835;13,752;1,835;0;0,992;98,312;-0,04;-1,19;11,789;0;0,998;34,724;-1,834;13,765;1,834;0;0,992;98,368;-0,041;-1,177;11,766;0;0,998;29,269;-1,832;13,759;1,832;0;0,992;98,324;-0,041;-1,172;11,748;0;0,998;27,176;;0,992;0,998;98,3995;32,88475
62;-1,797;14,097;1,797;0;0,991;102,346;-0,045;-1,082;11,922;0;0,999;15,984;-1,795;14,096;1,795;0;0,991;101,964;-0,045;-1,082;11,924;0;0,999;14,375;-1,795;14,103;1,795;0;0,991;102,123;-0,045;-1,081;11,929;0;0,999;14,666;-1,796;14,116;1,796;0;0,991;101,506;-0,044;-1,089;11,965;0;0,999;16,266;;0,991;0,999;101,98475;15,32275
63;-1,826;13,63;1,826;0;0,992;98,504;-0,041;-1,166;11,621;0;0,998;28,333;-1,827;13,665;1,827;0;0,992;99,632;-0,042;-1,155;11,621;0;0,998;27,443;-1,824;13,658;1,824;0;0,992;99,386;-0,042;-1,158;11,632;0;0,998;29,502;-1,821;13,649;1,821;0;0,992;99,316;-0,041;-1,161;11,641;0;0,998;32,074;;0,992;0,998;99,2095;29,338
64;-1,837;14,034;1,837;0;0,993;89,625;-0,038;-1,233;12,197;0;0,999;18,394;-1,835;14,042;1,835;0;0,993;90,057;-0,038;-1,227;12,192;0;0,999;17,902;-1,837;14,055;1,837;0;0,993;91,001;-0,038;-1,222;12,184;0;0,999;18,492;-1,84;14,046;1,84;0;0,993;89,909;-0,038;-1,238;12,212;0;0,998;20,37;;0,993;0,99875;90,148;18,7895
65;-1,771;13,961;1,771;0;0,989;110,248;-0,049;-0,992;11,589;0;0,998;21,515;-1,772;13,966;1,772;0;0,989;110,795;-0,048;-1;11,617;0;0,998;29,637;-1,772;13,966;1,772;0;0,989;110,362;-0,048;-1,007;11,636;0;0,998;30,797;-1,778;13,986;1,778;0;0,989;111,421;-0,049;-0,99;11,588;0;0,998;23,358;;0,989;0,998;110,7065;26,32675
66;-1,806;14,038;1,806;0;0,991;102,376;-0,044;-1,104;11,901;0;0,998;24,148;-1,806;14,044;1,806;0;0,991;102,107;-0,044;-1,104;11,907;0;0,998;22,71;-1,806;14,036;1,806;0;0,991;102,035;-0,044;-1,105;11,902;0;0,998;23,042;-1,806;14,024;1,806;0;0,991;102,136;-0,044;-1,106;11,895;0;0,998;24,384;;0,991;0,998;102,1635;23,571
67;-1,818;13,856;1,818;0;0,992;99,405;-0,042;-1,142;11,798;0;0,998;23,886;-1,818;13,842;1,818;0;0,992;98,972;-0,042;-1,146;11,797;0;0,998;24,18;-1,819;13,842;1,819;0;0,992;99,145;-0,042;-1,144;11,79;0;0,998;23,674;-1,818;13,845;1,818;0;0,992;99,188;-0,042;-1,143;11,79;0;0,998;23,596;;0,992;0,998;99,1775;23,834
68;-1,815;14,243;1,815;0;0,992;97,884;-0,042;-1,14;12,189;0;0,999;16,762;-1,818;14,241;1,818;0;0,992;99,394;-0,043;-1,13;12,148;0;0,999;16,732;-1,816;14,218;1,816;0;0,992;99,35;-0,043;-1,133;12,14;0;0,998;19,651;-1,812;14,207;1,812;0;0,991;99,724;-0,043;-1,127;12,122;0;0,998;20,206;;0,99175;0,9985;99,088;18,33775
69;-1,787;13,826;1,787;0;0,989;108,794;-0,048;-1,025;11,505;0;0,998;23,435;-1,788;13,859;1,788;0;0,989;109,091;-0,048;-1,023;11,533;0;0,998;24,175;-1,789;13,869;1,789;0;0,989;109,293;-0,048;-1,022;11,535;0;0,998;23,841;-1,791;13,875;1,791;0;0,989;109,898;-0,048;-1,022;11,534;0;0,998;26,028;;0,989;0,998;109,269;24,36975
70;-1,825;13,982;1,825;0;0,991;100,426;-0,042;-1,153;11,938;0;0,998;31,045;-1,816;14,002;1,816;0;0,991;101,729;-0,043;-1,128;11,906;0;0,998;28,51;-1,815;13,992;1,815;0;0,991;102,046;-0,043;-1,124;11,889;0;0,998;28,751;-1,822;13,954;1,822;0;0,991;101,708;-0,043;-1,139;11,877;0;0,998;31,547;;0,991;0,998;101,47725;29,96325
71;-1,85;14,269;1,85;0;0,993;88,857;-0,035;-1,289;12,561;0;0,998;35,037;-1,853;14,308;1,853;0;0,994;87,822;-0,036;-1,281;12,566;0;0,998;26,922;-1,852;14,301;1,852;0;0,994;87,526;-0,036;-1,281;12,563;0;0,998;26,449;-1,848;14,233;1,848;0;0,993;89,702;-0,036;-1,267;12,463;0;0,998;29,685;;0,9935;0,998;88,47675;29,52325
72;-1,802;13,932;1,802;0;0,991;103,163;-0,044;-1,102;11,801;0;0,998;29,241;-1,8;13,953;1,8;0;0,991;103,905;-0,045;-1,089;11,787;0;0,998;26,755;-1,8;13,971;1,8;0;0,99;104,454;-0,045;-1,078;11,776;0;0,998;23,98;-1,8;13,965;1,8;0;0,99;104,387;-0,045;-1,08;11,773;0;0,998;24,347;;0,9905;0,998;103,97725;26,08075
73;-1,81;13,932;1,81;0;0,99;106,614;-0,046;-1,07;11,68;0;0,998;24,82;-1,806;13,919;1,806;0;0,99;105,408;-0,045;-1,081;11,714;0;0,998;27,236;-1,8;13,886;1,8;0;0,991;103,841;-0,044;-1,104;11,769;0;0,998;34,86;-1,802;13,899;1,802;0;0,99;104,616;-0,044;-1,093;11,74;0;0,998;31,505;;0,99025;0,998;105,11975;29,60525
74;-1,826;12,689;1,826;0;0,993;92,422;-0,04;-1,193;10,762;0;0,999;14,262;-1,827;12,685;1,827;0;0,993;90,749;-0,039;-1,209;10,805;0;0,999;15,412;-1,828;12,693;1,828;0;0,993;90,554;-0,039;-1,21;10,812;0;0,999;14,149;-1,825;12,676;1,825;0;0,993;91,351;-0,039;-1,201;10,778;0;0,999;14,802;;0,993;0,999;91,269;14,65625
75;-1,768;13,999;1,768;0;0,989;107,616;-0,048;-1,003;11,67;0;0,999;13,778;-1,771;14,001;1,771;0;0,989;108,402;-0,048;-1,002;11,662;0;0,998;16,857;-1,775;14,001;1,775;0;0,989;109,968;-0,049;-0,99;11,613;0;0,999;15,778;-1,777;14,007;1,777;0;0,989;110,611;-0,05;-0,983;11,59;0;0,999;12,768;;0,989;0,99875;109,14925;14,79525
76;-1,813;13,839;1,813;0;0,991;103,299;-0,043;-1,128;11,753;0;0,998;37,087;-1,814;13,875;1,814;0;0,991;104,098;-0,043;-1,122;11,769;0;0,998;37,462;-1,816;13,903;1,816;0;0,991;104,885;-0,043;-1,127;11,804;0;0,998;41,607;-1,814;13,894;1,814;0;0,991;104,362;-0,042;-1,136;11,828;0;0,997;43,968;;0,991;0,99775;104,161;40,031
77;-1,832;14,002;1,832;0;0,993;91,609;-0,039;-1,206;12,099;0;0,999;14,862;-1,833;13,985;1,833;0;0,993;91,972;-0,039;-1,204;12,071;0;0,999;14,642;-1,834;13,995;1,834;0;0,993;92,217;-0,039;-1,206;12,085;0;0,999;16,662;-1,832;13,998;1,832;0;0,993;92,02;-0,039;-1,208;12,099;0;0,999;17,87;;0,993;0,999;91,9545;16,009
78;-1,85;13,802;1,85;0;0,993;94,314;-0,039;-1,235;11,929;0;0,998;32,062;-1,85;13,807;1,85;0;0,992;95,779;-0,038;-1,235;11,936;0;0,998;37,751;-1,848;13,804;1,848;0;0,993;94,88;-0,038;-1,234;11,937;0;0,998;35,061;-1,847;13,793;1,847;0;0,993;93,722;-0,038;-1,237;11,938;0;0,998;32,405;;0,99275;0,998;94,67375;34,31975
79;-1,791;13,944;1,791;0;0,99;104,168;-0,045;-1,066;11,738;0;0,998;20,232;-1,786;13,952;1,786;0;0,99;105,029;-0,046;-1,053;11,719;0;0,998;19,555;-1,789;13,966;1,789;0;0,99;105,986;-0,047;-1,046;11,705;0;0,998;19,103;-1,789;13,954;1,789;0;0,99;105,309;-0,046;-1,054;11,718;0;0,998;20,531;;0,99;0,998;105,123;19,85525
80;-1,83;13,681;1,83;0;0,992;99,333;-0,042;-1,164;11,653;0;0,998;28,85;-1,827;13,667;1,827;0;0,992;99,156;-0,041;-1,167;11,657;0;0,998;31,03;-1,824;13,653;1,824;0;0,992;99,099;-0,041;-1,165;11,646;0;0,998;31,293;-1,824;13,64;1,824;0;0,992;98,595;-0,041;-1,166;11,635;0;0,998;29,429;;0,992;0,998;99,04575;30,1505
81;-1,815;14,09;1,815;0;0,992;97,383;-0,042;-1,141;12,038;0;0,999;14,235;-1,818;14,103;1,818;0;0,992;98,9;-0,043;-1,131;12,012;0;0,999;14,215;-1,816;14,094;1,816;0;0,992;98,208;-0,043;-1,137;12,027;0;0,999;15,587;-1,811;14,107;1,811;0;0,992;98,093;-0,042;-1,135;12,048;0;0,999;16,841;;0,992;0,999;98,146;15,2195
82;-1,803;13,924;1,803;0;0,99;104,522;-0,045;-1,089;11,75;0;0,998;28,582;-1,803;13,923;1,803;0;0,99;105,087;-0,045;-1,085;11,736;0;0,998;29,003;-1,805;13,936;1,805;0;0,99;105,09;-0,045;-1,088;11,754;0;0,998;29,947;-1,803;13,918;1,803;0;0,99;104,704;-0,045;-1,09;11,751;0;0,998;30,547;;0,99;0,998;104,85075;29,51975
83;-1,833;13,83;1,833;0;0,992;96,269;-0,04;-1,2;11,904;0;0,998;31,918;-1,831;13,793;1,831;0;0,992;96,982;-0,04;-1,19;11,842;0;0,998;31,025;-1,829;13,749;1,829;0;0,992;98,362;-0,04;-1,193;11,814;0;0,998;38,674;-1,826;13,72;1,826;0;0,991;100,959;-0,039;-1,197;11,806;0;0,997;49,635;;0,99175;0,99775;98,143;37,813
84;-1,823;13,832;1,823;0;0,992;99,783;-0,042;-1,151;11,785;0;0,998;27,809;-1,823;13,812;1,823;0;0,991;100,841;-0,042;-1,154;11,778;0;0,998;34,359;-1,823;13,793;1,823;0;0,991;100,268;-0,042;-1,159;11,772;0;0,998;34,001;-1,823;13,794;1,823;0;0,992;99,802;-0,042;-1,158;11,772;0;0,998;31,821;;0,9915;0,998;100,1735;31,9975
85;-1,79;14,322;1,79;0;0,991;103,283;-0,045;-1,067;12,119;0;0,999;15,421;-1,786;14,258;1,786;0;0,99;104,931;-0,046;-1,047;12,008;0;0,999;14,676;-1,787;14,244;1,787;0;0,99;104,644;-0,046;-1,051;12,004;0;0,999;15,249;-1,788;14,245;1,788;0;0,99;104,886;-0,046;-1,052;12,002;0;0,999;16,363;;0,99025;0,999;104,436;15,42725
86;-1,803;13,928;1,803;0;0,99;105,03;-0,045;-1,086;11,747;0;0,998;29,686;-1,802;13,912;1,802;0;0,99;105,851;-0,045;-1,08;11,715;0;0,998;30,964;-1,802;13,9;1,802;0;0,99;105,783;-0,045;-1,079;11,698;0;0,998;29,865;-1,803;13,889;1,803;0;0,99;105,661;-0,045;-1,081;11,691;0;0,998;29,905;;0,99;0,998;105,58125;30,105
87;-1,813;14,349;1,813;0;0,992;96,006;-0,041;-1,158;12,356;0;0,998;19,191;-1,816;14,366;1,816;0;0,992;96,655;-0,041;-1,154;12,352;0;0,998;18,375;-1,817;14,349;1,817;0;0,992;96,624;-0,041;-1,16;12,35;0;0,998;21,299;-1,819;14,35;1,819;0;0,992;96,934;-0,041;-1,159;12,341;0;0,998;20,848;;0,992;0,998;96,55475;19,92825
88;-1,793;14,147;1,793;0;0,99;105,527;-0,046;-1,057;11,907;0;0,998;20,89;-1,79;14,152;1,79;0;0,99;105,625;-0,046;-1,048;11,894;0;0,998;17,451;-1,784;14,146;1,784;0;0,99;105,89;-0,046;-1,048;11,905;0;0,998;22,877;-1,787;14,147;1,787;0;0,99;105,231;-0,046;-1,054;11,916;0;0,998;21,31;;0,99;0,998;105,56825;20,632
89;-1,814;14,173;1,814;0;0,991;100,486;-0,043;-1,126;12,08;0;0,998;22,801;-1,812;14,162;1,812;0;0,991;100,328;-0,043;-1,126;12,075;0;0,998;23,092;-1,81;14,155;1,81;0;0,991;99,932;-0,043;-1,128;12,081;0;0,998;23,511;-1,811;14,165;1,811;0;0,991;99,956;-0,043;-1,125;12,08;0;0,998;21,576;;0,991;0,998;100,1755;22,745
90;-1,826;13,939;1,826;0;0,993;94,009;-0,04;-1,19;12,003;0;0,998;20,39;-1,827;13,936;1,827;0;0,993;94,05;-0,04;-1,192;12,005;0;0,998;21,655;-1,826;13,93;1,826;0;0,993;94,087;-0,04;-1,192;11,998;0;0,998;21,565;-1,829;13,925;1,829;0;0,993;94,231;-0,04;-1,19;11,98;0;0,998;19,796;;0,993;0,998;94,09425;20,8515
91;-1,83;13,943;1,83;0;0,992;96,853;-0,038;-1,226;12,105;0;0,997;45,053;-1,83;13,941;1,83;0;0,992;95,48;-0,038;-1,222;12,093;0;0,998;39,512;-1,831;13,939;1,831;0;0,992;96,396;-0,039;-1,214;12,061;0;0,998;38,898;-1,838;13,975;1,838;0;0,992;99,222;-0,041;-1,188;11,998;0;0,998;36,232;;0,992;0,99775;96,98775;39,92375
93;-1,807;13,941;1,807;0;0,991;101,115;-0,043;-1,114;11,831;0;0,998;22,765;-1,806;13,949;1,806;0;0,991;101,151;-0,043;-1,112;11,837;0;0,998;22,482;-1,808;13,967;1,808;0;0,991;101,397;-0,044;-1,11;11,845;0;0,998;21,754;-1,808;13,977;1,808;0;0,991;101,055;-0,043;-1,116;11,871;0;0,998;23,319;;0,991;0,998;101,1795;22,58
94;-1,847;13,855;1,847;0;0,993;89,942;-0,037;-1,251;12,041;0;0,998;23,813;-1,847;13,861;1,847;0;0,993;89,884;-0,037;-1,25;12,042;0;0,998;22,885;-1,847;13,871;1,847;0;0,993;90,964;-0,038;-1,243;12,036;0;0,998;24,564;-1,846;13,873;1,846;0;0,993;90,947;-0,038;-1,246;12,048;0;0,998;26,064;;0,993;0,998;90,43425;24,3315
95;-1,784;13,844;1,784;0;0,99;107,086;-0,047;-1,039;11,577;0;0,998;24,54;-1,783;13,85;1,783;0;0,99;107,273;-0,047;-1,034;11,569;0;0,998;22,778;-1,784;13,85;1,784;0;0,99;107,866;-0,047;-1,028;11,55;0;0,998;22,279;-1,784;13,846;1,784;0;0,99;107,827;-0,047;-1,027;11,542;0;0,998;21,177;;0,99;0,998;107,513;22,6935
96;-1,8;13,863;1,8;0;0,99;108,723;-0,048;-1,038;11,545;0;0,998;23,549;-1,797;13,879;1,797;0;0,99;108,558;-0,048;-1,035;11,561;0;0,998;22,571;-1,792;13,816;1,792;0;0,99;108,484;-0,047;-1,042;11,533;0;0,998;29,339;-1,793;13,82;1,793;0;0,989;109,083;-0,047;-1,045;11,544;0;0,998;33,752;;0,98975;0,998;108,712;27,30275
97;-1,831;14,133;1,831;0;0,992;97,558;-0,041;-1,179;12,148;0;0,998;28,049;-1,827;14,096;1,827;0;0,992;98,548;-0,042;-1,163;12,075;0;0,998;26,598;-1,823;14,086;1,823;0;0,992;99,122;-0,042;-1,153;12,044;0;0,998;25,549;-1,821;14,07;1,821;0;0,992;98,386;-0,041;-1,16;12,059;0;0,998;27,403;;0,992;0,998;98,4035;26,89975
99;-1,816;13,857;1,816;0;0,992;98,994;-0,042;-1,142;11,805;0;0,998;23,15;-1,814;13,847;1,814;0;0,992;98,227;-0,042;-1,145;11,809;0;0,998;21,85;-1,815;13,85;1,815;0;0,992;98,628;-0,042;-1,14;11,795;0;0,998;20,58;-1,815;13,857;1,815;0;0,992;98,799;-0,042;-1,137;11,793;0;0,998;19,649;;0,992;0,998;98,662;21,30725
100;-1,783;13,998;1,783;0;0,99;106,221;-0,047;-1,03;11,706;0;0,999;13,224;-1,784;13,987;1,784;0;0,99;106,064;-0,047;-1,033;11,704;0;0,999;14,323;-1,787;13,97;1,787;0;0,99;106,691;-0,047;-1,034;11,678;0;0,999;16,523;-1,784;13,984;1,784;0;0,99;106,354;-0,047;-1,035;11,704;0;0,998;17,262;;0,99;0,99875;106,3325;15,333
101;-1,811;14,016;1,811;0;0,991;100,178;-0,043;-1,125;11,929;0;0,998;22,477;-1,814;14,029;1,814;0;0,991;101,571;-0,044;-1,107;11,88;0;0,999;17,062;-1,813;14,022;1,813;0;0,991;102,341;-0,044;-1,106;11,871;0;0,998;21,243;-1,81;14,003;1,81;0;0,991;100,463;-0,043;-1,12;11,904;0;0,998;21,436;;0,991;0,99825;101,13825;20,5545
102;-1,825;13,892;1,825;0;0,992;97,98;-0,041;-1,163;11,877;0;0,998;24,93;-1,823;13,876;1,823;0;0,992;97,9;-0,041;-1,161;11,86;0;0,998;24,181;-1,822;13,878;1,822;0;0,992;97,941;-0,041;-1,161;11,865;0;0,998;24,932;-1,824;13,891;1,824;0;0,992;98,004;-0,041;-1,161;11,874;0;0,998;24,74;;0,992;0,998;97,95625;24,69575
103;-1,807;13,963;1,807;0;0,991;99,179;-0,043;-1,124;11,883;0;0,998;18,451;-1,805;13,971;1,805;0;0,991;99,082;-0,043;-1,123;11,897;0;0,998;19,083;-1,808;13,958;1,808;0;0,992;99,007;-0,042;-1,133;11,905;0;0,998;22,883;-1,811;13,95;1,811;0;0,992;98,969;-0,042;-1,135;11,893;0;0,998;21,83;;0,9915;0,998;99,05925;20,56175
104;-1,792;13,796;1,792;0;0,99;104,395;-0,046;-1,059;11,568;0;0,999;16,574;-1,794;13,838;1,794;0;0,99;105,609;-0,047;-1,047;11,567;0;0,999;14,265;-1,791;13,837;1,791;0;0,99;105,091;-0,046;-1,051;11,586;0;0,999;15,537;-1,79;13,836;1,79;0;0,99;104,876;-0,046;-1,052;11,589;0;0,999;15,329;;0,99;0,999;104,99275;15,42625
105;-1,832;13,95;1,832;0;0,992;96,513;-0,04;-1,19;11,995;0;0,998;28,485;-1,832;13,934;1,832;0;0,992;96,806;-0,041;-1,182;11,959;0;0,998;26,301;-1,832;13,921;1,832;0;0,992;96,931;-0,041;-1,183;11,948;0;0,998;27,305;-1,832;13,908;1,832;0;0,992;96,898;-0,04;-1,186;11,941;0;0,998;28,066;;0,992;0,998;96,787;27,53925
106;-1,81;13,929;1,81;0;0,991;99,794;-0,043;-1,128;11,851;0;0,998;22,066;-1,81;13,937;1,81;0;0,991;99,565;-0,043;-1,12;11,839;0;0,999;16,596;-1,806;13,924;1,806;0;0,992;98,841;-0,043;-1,126;11,854;0;0,998;18,546;-1,804;13,914;1,804;0;0,992;98,268;-0,043;-1,124;11,845;0;0,999;15,484;;0,9915;0,9985;99,117;18,173
107;-1,795;13,993;1,795;0;0,99;107,146;-0,047;-1,052;11,731;0;0,998;25,958;-1,794;13,994;1,794;0;0,99;106,982;-0,046;-1,061;11,761;0;0,998;30,412;-1,794;13,987;1,794;0;0,99;107,041;-0,046;-1,061;11,756;0;0,998;31,217;-1,795;14,001;1,795;0;0,99;107,376;-0,046;-1,053;11,74;0;0,998;27,451;;0,99;0,998;107,13625;28,7595
108;-1,808;13,804;1,808;0;0,991;101,982;-0,044;-1,109;11,677;0;0,998;24,095;-1,812;13,842;1,812;0;0,991;101,043;-0,043;-1,12;11,737;0;0,998;23,456;-1,813;13,848;1,813;0;0,991;100,569;-0,043;-1,126;11,757;0;0,998;23,715;-1,813;13,841;1,813;0;0,991;101,371;-0,043;-1,119;11,729;0;0,998;23,69;;0,991;0,998;101,24125;23,739
109;-1,813;14,038;1,813;0;0,992;99,004;-0,042;-1,135;11,974;0;0,998;20,771;-1,807;14,039;1,807;0;0,991;99,695;-0,043;-1,126;11,965;0;0,998;22,396;-1,808;14,046;1,808;0;0,991;100,683;-0,043;-1,118;11,945;0;0,998;22,321;-1,808;14,045;1,808;0;0,991;100,823;-0,043;-1,118;11,944;0;0,998;22,988;;0,99125;0,998;100,05125;22,119
111;-1,809;14,085;1,809;0;0,99;106,735;-0,043;-1,125;12,004;0;0,997;50,434;-1,808;14,083;1,808;0;0,991;104,117;-0,043;-1,12;11,991;0;0,998;39,633;-1,805;14,073;1,805;0;0,991;104,346;-0,042;-1,13;12,018;0;0,997;45,184;-1,81;14,089;1,81;0;0,99;107,63;-0,043;-1,127;12,008;0;0,997;53,444;;0,9905;0,99725;105,707;47,17375
112;-1,794;13,969;1,794;0;0,991;101,082;-0,044;-1,088;11,823;0;0,999;14,658;-1,793;13,98;1,793;0;0,991;100,908;-0,044;-1,09;11,841;0;0,999;15,309;-1,79;13,979;1,79;0;0,991;100,004;-0,043;-1,095;11,866;0;0,999;15,988;-1,788;13,972;1,788;0;0,991;99,703;-0,043;-1,094;11,859;0;0,999;14,158;;0,991;0,999;100,42425;15,02825
113;-1,797;13,918;1,797;0;0,99;108,173;-0,047;-1,048;11,639;0;0,998;28,398;-1,798;13,945;1,798;0;0,99;108,867;-0,047;-1,041;11,639;0;0,998;27,058;-1,797;13,927;1,797;0;0,99;108,542;-0,047;-1,042;11,628;0;0,998;26,586;-1,796;13,899;1,796;0;0,99;107,163;-0,046;-1,058;11,653;0;0,998;28,902;;0,99;0,998;108,18625;27,736
114;-1,81;14,121;1,81;0;0,992;98,523;-0,042;-1,138;12,075;0;0,998;21,814;-1,809;14,125;1,809;0;0,992;98,725;-0,042;-1,134;12,068;0;0,998;20,769;-1,811;14,111;1,811;0;0,992;98,419;-0,042;-1,139;12,066;0;0,998;21,277;-1,811;14,099;1,811;0;0,992;98,503;-0,042;-1,141;12,059;0;0,998;22,84;;0,992;0,998;98,5425;21,675
115;-1,777;14,163;1,777;0;0,989;108,583;-0,048;-1,002;11,805;0;0,999;13,307;-1,774;14,131;1,774;0;0,989;107,758;-0,048;-1,012;11,81;0;0,998;16,557;-1,774;14,114;1,774;0;0,989;107,66;-0,047;-1,019;11,815;0;0,998;21,399;-1,776;14,162;1,776;0;0,989;108,81;-0,048;-1,011;11,834;0;0,998;21,938;;0,989;0,99825;108,20275;18,30025
116;-1,816;14,003;1,816;0;0,992;98,144;-0,042;-1,145;11,96;0;0,998;20,417;-1,815;13,983;1,815;0;0,992;97,641;-0,042;-1,152;11,964;0;0,998;22,588;-1,817;13,973;1,817;0;0,992;97,532;-0,042;-1,153;11,953;0;0,998;21,648;-1,817;13,963;1,817;0;0,992;97,395;-0,041;-1,156;11,952;0;0,998;22,85;;0,992;0,998;97,678;21,87575
117;-1,808;13,837;1,808;0;0,991;104,156;-0,044;-1,099;11,679;0;0,998;29,481;-1,809;13,841;1,809;0;0,991;104,413;-0,045;-1,097;11,676;0;0,998;29,44;-1,809;13,843;1,809;0;0,991;104,405;-0,045;-1,098;11,677;0;0,998;29,308;-1,809;13,845;1,809;0;0,991;104,113;-0,044;-1,098;11,682;0;0,998;28,529;;0,991;0,998;104,27175;29,1895
118;-1,805;13,972;1,805;0;0,991;100,411;-0,044;-1,108;11,852;0;0,999;16,713;-1,803;13,975;1,803;0;0,991;101,058;-0,044;-1,1;11,835;0;0,999;16,16;-1,803;13,973;1,803;0;0,991;101,061;-0,044;-1,101;11,836;0;0,999;16,868;-1,803;13,962;1,803;0;0,991;100,928;-0,044;-1,104;11,833;0;0,998;17,716;;0,991;0,99875;100,8645;16,86425
119;-1,831;13,874;1,831;0;0,991;102,272;-0,044;-1,135;11,758;0;0,998;27,625;-1,821;13,832;1,821;0;0,991;100,573;-0,042;-1,155;11,806;0;0,998;34,553;-1,822;13,84;1,822;0;0,991;100,959;-0,042;-1,15;11,794;0;0,998;33,199;-1,827;13,851;1,827;0;0,991;101,115;-0,043;-1,147;11,783;0;0,998;30,253;;0,991;0,998;101,22975;31,4075
120;-1,812;13,755;1,812;0;0,991;101,15;-0,043;-1,125;11,663;0;0,998;26,391;-1,811;13,758;1,811;0;0,991;101,272;-0,043;-1,12;11,653;0;0,998;24,718;-1,813;13,762;1,813;0;0,991;101,523;-0,044;-1,117;11,645;0;0,998;23,694;-1,815;13,773;1,815;0;0,991;101,949;-0,044;-1,119;11,654;0;0,998;25,416;;0,991;0,998;101,4735;25,05475
122;-1,783;13,858;1,783;0;0,988;112,988;-0,049;-0,995;11,459;0;0,998;32,721;-1,781;13,825;1,781;0;0,988;112,603;-0,049;-1;11,446;0;0,998;34,139;-1,781;13,811;1,781;0;0,988;113,019;-0,049;-0,995;11,418;0;0,998;33,907;-1,78;13,802;1,78;0;0,988;112,645;-0,049;-1,004;11,443;0;0,998;37,659;;0,988;0,998;112,81375;34,6065
123;-1,821;13,916;1,821;0;0,992;94,925;-0,04;-1,188;11,989;0;0,998;26,137;-1,821;13,92;1,821;0;0,992;94,779;-0,04;-1,186;11,988;0;0,998;24,726;-1,82;13,914;1,82;0;0,992;94,695;-0,04;-1,187;11,986;0;0,998;25,065;-1,818;13,898;1,818;0;0,992;93,85;-0,039;-1,194;12,001;0;0,998;26,487;;0,992;0,998;94,56225;25,60375
124;-1,823;13,748;1,823;0;0,992;98,419;-0,041;-1,161;11,734;0;0,998;27,028;-1,825;13,749;1,825;0;0,992;99,676;-0,042;-1,151;11,697;0;0,998;26,361;-1,823;13,727;1,823;0;0,992;98,956;-0,042;-1,157;11,7;0;0,998;27,457;-1,825;13,733;1,825;0;0,992;98,182;-0,041;-1,165;11,725;0;0,998;26,942;;0,992;0,998;98,80825;26,947
125;-1,811;13,626;1,811;0;0,991;102,946;-0,043;-1,117;11,512;0;0,998;31,259;-1,815;13,625;1,815;0;0,991;103,591;-0,044;-1,119;11,507;0;0,998;33,471;-1,824;13,66;1,824;0;0,99;106,383;-0,046;-1,095;11,441;0;0,998;29,964;-1,818;13,63;1,818;0;0,991;104,458;-0,044;-1,108;11,469;0;0,998;30,432;;0,99075;0,998;104,3445;31,2815
126;-1,813;13,98;1,813;0;0,991;101,636;-0,043;-1,128;11,894;0;0,998;29,696;-1,813;14,01;1,813;0;0,991;102,04;-0,043;-1,126;11,918;0;0,998;30,695;-1,815;14,01;1,815;0;0,991;102,307;-0,043;-1,123;11,904;0;0,998;29,606;-1,814;14,015;1,814;0;0,991;102,244;-0,043;-1,125;11,92;0;0,998;31,11;;0,991;0,998;102,05675;30,27675
127;-1,795;13,789;1,795;0;0,99;106,628;-0,045;-1,075;11,6;0;0,998;36,024;-1,799;13,825;1,799;0;0,989;109,31;-0,046;-1,058;11,57;0;0,998;38,175;-1,796;13,819;1,796;0;0,99;108,638;-0,046;-1,067;11,598;0;0,998;40,207;-1,797;13,82;1,797;0;0,99;108,237;-0,046;-1,064;11,589;0;0,998;36,918;;0,98975;0,998;108,20325;37,831
128;-1,809;13,902;1,809;0;0,991;103,25;-0,044;-1,099;11,742;0;0,998;24,409;-1,811;13,891;1,811;0;0,991;102,749;-0,044;-1,112;11,763;0;0,998;27,984;-1,814;13,888;1,814;0;0,991;102,906;-0,044;-1,116;11,765;0;0,998;29,493;-1,811;13,884;1,811;0;0,991;102,687;-0,044;-1,113;11,759;0;0,998;28,016;;0,991;0,998;102,898;27,4755
129;-1,816;14,479;1,816;0;0,992;96,961;-0,042;-1,147;12,444;0;0,999;15,644;-1,816;14,459;1,816;0;0,992;97,474;-0,042;-1,144;12,412;0;0,999;15,894;-1,815;14,44;1,815;0;0,992;97,873;-0,042;-1,138;12,379;0;0,999;15,134;-1,815;14,448;1,815;0;0,992;96,877;-0,042;-1,148;12,419;0;0,999;16,383;;0,992;0,999;97,29625;15,76375
130;-1,832;13,807;1,832;0;0,993;91,034;-0,038;-1,224;11,957;0;0,998;22,315;-1,83;13,796;1,83;0;0,993;90,834;-0,037;-1,237;11,991;0;0,998;28,802;-1,835;13,832;1,835;0;0,993;89,118;-0,037;-1,237;12,013;0;0,998;19,536;-1,834;13,824;1,834;0;0,993;88,545;-0,038;-1,234;11,996;0;0,999;15,132;;0,993;0,99825;89,88275;21,44625
131;-1,824;14,023;1,824;0;0,992;94,738;-0,04;-1,183;12,075;0;0,998;21,574;-1,824;14,025;1,824;0;0,992;94,876;-0,04;-1,183;12,073;0;0,998;21,499;-1,826;14,03;1,826;0;0,992;95,567;-0,041;-1,177;12,055;0;0,998;20,437;-1,826;14,026;1,826;0;0,992;95,338;-0,041;-1,179;12,057;0;0,998;20,454;;0,992;0,998;95,12975;20,991
132;-1,837;14,008;1,837;0;0,993;91,281;-0,039;-1,221;12,133;0;0,999;18,897;-1,837;14,013;1,837;0;0,993;91,291;-0,039;-1,219;12,133;0;0,999;18,054;-1,835;14,005;1,835;0;0,993;91,268;-0,039;-1,218;12,127;0;0,999;18,265;-1,833;13,991;1,833;0;0,993;90,549;-0,038;-1,225;12,139;0;0,998;19,997;;0,993;0,99875;91,09725;18,80325
133;-1,809;14,058;1,809;0;0,991;100,858;-0,043;-1,119;11,958;0;0,998;23,432;-1,809;14,057;1,809;0;0,991;101,188;-0,043;-1,117;11,95;0;0,998;23,751;-1,809;14,07;1,809;0;0,991;102,09;-0,044;-1,11;11,944;0;0,998;24,911;-1,807;14,077;1,807;0;0,991;102,398;-0,044;-1,105;11,939;0;0,998;24,212;;0,991;0,998;101,6335;24,0765
134;-1,825;14,054;1,825;0;0,992;96,384;-0,041;-1,175;12,076;0;0,998;23,866;-1,825;14,071;1,825;0;0,992;95,957;-0,04;-1,179;12,106;0;0,998;24,256;-1,826;14,074;1,826;0;0,992;96,6;-0,041;-1,171;12,083;0;0,998;22,539;-1,824;14,057;1,824;0;0,992;96,121;-0,041;-1,173;12,078;0;0,998;22,465;;0,992;0,998;96,2655;23,2815
135;-1,803;13,881;1,803;0;0,99;104,418;-0,045;-1,088;11,705;0;0,998;27,591;-1,8;13,895;1,8;0;0,99;104,87;-0,045;-1,075;11,688;0;0,998;24,05;-1,794;13,89;1,794;0;0,99;104,854;-0,045;-1,067;11,679;0;0,998;22,979;-1,795;13,89;1,795;0;0,99;105,358;-0,046;-1,062;11,658;0;0,998;21,588;;0,99;0,998;104,875;24,052
136;-1,802;13,863;1,802;0;0,991;103,369;-0,044;-1,106;11,745;0;0,998;32,451;-1,803;13,881;1,803;0;0,99;104,5;-0,044;-1,096;11,728;0;0,998;31,933;-1,805;13,882;1,805;0;0,99;104,534;-0,045;-1,093;11,713;0;0,998;29,528;-1,806;13,875;1,806;0;0,99;104,63;-0,044;-1,097;11,717;0;0,998;31,713;;0,99025;0,998;104,25825;31,40625
137;-1,784;14,041;1,784;0;0,989;109,456;-0,047;-1,036;11,762;0;0,998;35,112;-1,784;14,035;1,784;0;0,989;109,823;-0,047;-1,029;11,735;0;0,998;33,365;-1,785;14,043;1,785;0;0,989;109,138;-0,047;-1,04;11,775;0;0,998;35,322;-1,786;14,061;1,786;0;0,989;108,294;-0,047;-1,042;11,797;0;0,998;31,774;;0,989;0,998;109,17775;33,89325
138;-1,816;13,743;1,816;0;0,991;102,007;-0,043;-1,129;11,652;0;0,998;30,621;-1,813;13,738;1,813;0;0,991;101,751;-0,043;-1,131;11,662;0;0,998;31,979;-1,813;13,74;1,813;0;0,991;102,072;-0,043;-1,125;11,647;0;0,998;30,551;-1,815;13,75;1,815;0;0,991;102,483;-0,043;-1,123;11,643;0;0,998;30,075;;0,991;0,998;102,07825;30,8065
139;-1,808;13,782;1,808;0;0,99;104,691;-0,043;-1,116;11,676;0;0,998;39,901;-1,806;13,787;1,806;0;0,991;103,663;-0,044;-1,107;11,657;0;0,998;31,868;-1,804;13,814;1,804;0;0,99;105,548;-0,045;-1,083;11,622;0;0,998;30,409;-1,801;13,801;1,801;0;0,99;104,434;-0,044;-1,092;11,644;0;0,998;30,96;;0,99025;0,998;104,584;33,2845
140;-1,793;14,254;1,793;0;0,99;104,891;-0,045;-1,067;12,043;0;0,998;23,256;-1,794;14,258;1,794;0;0,99;105,101;-0,046;-1,066;12,041;0;0,998;23,318;-1,794;14,257;1,794;0;0,99;104,745;-0,045;-1,072;12,061;0;0,998;25,454;-1,798;14,28;1,798;0;0,99;105,107;-0,045;-1,073;12,073;0;0,998;25,457;;0,99;0,998;104,961;24,37125
141;-1,804;13,872;1,804;0;0,99;106,104;-0,045;-1,084;11,682;0;0,998;33,325;-1,801;13,878;1,801;0;0,99;105,658;-0,045;-1,084;11,694;0;0,998;32,278;-1,8;13,907;1,8;0;0,99;105,694;-0,045;-1,078;11,711;0;0,998;30,34;-1,8;13,926;1,8;0;0,99;105,825;-0,045;-1,076;11,723;0;0,998;29,952;;0,99;0,998;105,82025;31,47375
142;-1,822;13,792;1,822;0;0,991;104,952;-0,044;-1,115;11,64;0;0,998;34,218;-1,82;13,793;1,82;0;0,991;104,733;-0,044;-1,112;11,638;0;0,998;32,665;-1,812;13,785;1,812;0;0,991;104,312;-0,044;-1,108;11,643;0;0,998;32,891;-1,811;13,799;1,811;0;0,99;105,203;-0,045;-1,097;11,626;0;0,998;31,969;;0,99075;0,998;104,8;32,93575
144;-1,821;14,27;1,821;0;0,993;92,965;-0,04;-1,178;12,313;0;0,999;10,335;-1,822;14,269;1,822;0;0,993;92,74;-0,04;-1,179;12,312;0;0,999;9,101;-1,821;14,275;1,821;0;0,993;92,707;-0,04;-1,177;12,315;0;0,999;8,183;-1,821;14,282;1,821;0;0,993;93,043;-0,04;-1,175;12,319;0;0,999;9,302;;0,993;0,999;92,86375;9,23025
145;-1,804;14,023;1,804;0;0,991;102,366;-0,044;-1,101;11,884;0;0,998;23,792;-1,804;14,019;1,804;0;0,991;101,905;-0,044;-1,104;11,888;0;0,998;22,945;-1,803;14,028;1,803;0;0,991;102,616;-0,045;-1,092;11,863;0;0,998;19,928;-1,803;14,031;1,803;0;0,991;103,42;-0,045;-1,088;11,855;0;0,998;22,155;;0,991;0,998;102,57675;22,205
146;-1,814;14,096;1,814;0;0,992;98,841;-0,042;-1,15;12,075;0;0,998;27,926;-1,815;14,08;1,815;0;0,991;100,407;-0,041;-1,157;12,077;0;0,998;37,31;-1,816;14,082;1,816;0;0,991;101,912;-0,041;-1,156;12,071;0;0,998;41,8;-1,816;14,089;1,816;0;0,991;99,801;-0,041;-1,154;12,074;0;0,998;33,076;;0,99125;0,998;100,24025;35,028
147;-1,813;13,883;1,813;0;0,991;103,343;-0,044;-1,115;11,757;0;0,998;30,972;-1,814;13,884;1,814;0;0,991;102,718;-0,043;-1,122;11,776;0;0,998;31,187;-1,813;13,884;1,813;0;0,991;102,537;-0,043;-1,12;11,774;0;0,998;29,966;-1,813;13,894;1,813;0;0,991;102,564;-0,043;-1,121;11,787;0;0,998;30,563;;0,991;0,998;102,7905;30,672
148;-1,793;13,873;1,793;0;0,99;104,912;-0,045;-1,07;11,671;0;0,998;25,318;-1,793;13,868;1,793;0;0,99;104,898;-0,045;-1,068;11,661;0;0,998;24,089;-1,795;13,878;1,795;0;0,99;105,26;-0,046;-1,062;11,647;0;0,998;21,19;-1,797;13,882;1,797;0;0,99;104,81;-0,046;-1,068;11,662;0;0,998;20,976;;0,99;0,998;104,97;22,89325
149;-1,809;14,232;1,809;0;0,992;98,729;-0,043;-1,13;12,165;0;0,998;18,505;-1,811;14,208;1,811;0;0,992;98,123;-0,042;-1,143;12,176;0;0,998;22,28;-1,814;14,213;1,814;0;0,992;98,695;-0,042;-1,14;12,162;0;0,998;21,747;-1,814;14,212;1,814;0;0,992;99,132;-0,042;-1,137;12,152;0;0,998;22,24;;0,992;0,998;98,66975;21,193
150;-1,819;13,802;1,819;0;0,991;100,052;-0,042;-1,141;11,736;0;0,998;25,818;-1,818;13,791;1,818;0;0,991;99,921;-0,042;-1,142;11,734;0;0,998;26,623;-1,821;13,793;1,821;0;0,991;100,723;-0,043;-1,138;11,715;0;0,998;26,818;-1,821;13,777;1,821;0;0,991;100,504;-0,042;-1,144;11,716;0;0,998;28,697;;0,991;0,998;100,3;26,989
151;-1,838;13,596;1,838;0;0,992;99,015;-0,039;-1,212;11,693;0;0,997;44,776;-1,846;13,611;1,846;0;0,992;100,513;-0,041;-1,197;11,635;0;0,998;41,234;-1,843;13,601;1,843;0;0,992;99,193;-0,04;-1,207;11,666;0;0,998;41,574;-1,843;13,6;1,843;0;0,992;99,361;-0,04;-1,207;11,664;0;0,998;42,123;;0,992;0,99775;99,5205;42,42675
152;-1,784;14,004;1,784;0;0,99;107,724;-0,047;-1,041;11,741;0;0,998;28,949;-1,788;14,016;1,788;0;0,989;108,786;-0,047;-1,037;11,73;0;0,998;30,385;-1,789;14,035;1,789;0;0,989;109,316;-0,047;-1,037;11,747;0;0,998;32,656;-1,787;14,035;1,787;0;0,99;107,453;-0,047;-1,042;11,768;0;0,998;26,56;;0,9895;0,998;108,31975;29,6375
153;-1,804;14,265;1,804;0;0,992;97,339;-0,042;-1,129;12,211;0;0,999;13,5;-1,805;14,294;1,805;0;0,992;96,887;-0,042;-1,142;12,275;0;0,998;18,51;-1,805;14,284;1,805;0;0,992;96,887;-0,041;-1,158;12,313;0;0,998;27,53;-1,806;14,262;1,806;0;0,992;98,249;-0,042;-1,13;12,206;0;0,998;18,314;;0,992;0,99825;97,3405;19,4635
154;-1,918;15,287;1,918;0;0,997;55,384;-0,022;-1,561;14,201;0;0,999;18,221;-1,92;15,418;1,92;0;0,997;54,606;-0,022;-1,569;14,35;0;0,999;18,45;-1,922;15,409;1,922;0;0,997;53,95;-0,022;-1,574;14,349;0;0,999;17,837;-1,913;15,164;1,913;0;0,997;58,124;-0,024;-1,536;14,016;0;0,999;17,461;;0,997;0,999;55,516;17,99225
155;-1,831;13,87;1,831;0;0,991;100,695;-0,043;-1,152;11,801;0;0,998;28,367;-1,83;13,852;1,83;0;0,992;100,039;-0,042;-1,16;11,813;0;0,998;30,257;-1,826;13,832;1,826;0;0,992;99,62;-0,042;-1,161;11,808;0;0,998;30,83;-1,826;13,828;1,826;0;0,992;99,617;-0,042;-1,161;11,804;0;0,998;30,813;;0,99175;0,998;99,99275;30,06675
156;-1,813;13,975;1,813;0;0,991;100,209;-0,042;-1,143;11,935;0;0,998;30,802;-1,815;13,971;1,815;0;0,991;100,587;-0,042;-1,139;11,915;0;0,998;29,873;-1,814;13,967;1,814;0;0,992;99,419;-0,042;-1,142;11,923;0;0,998;26,537;-1,814;13,971;1,814;0;0,991;101,058;-0,043;-1,132;11,896;0;0,998;28,858;;0,99125;0,998;100,31825;29,0175
157;-1,807;13,986;1,807;0;0,991;101,235;-0,044;-1,111;11,869;0;0,998;21,918;-1,809;13,943;1,809;0;0,991;101,742;-0,044;-1,108;11,809;0;0,998;21,297;-1,81;13,953;1,81;0;0,991;101,622;-0,044;-1,111;11,825;0;0,998;21,964;-1,809;13,957;1,809;0;0,991;101,104;-0,043;-1,118;11,856;0;0,998;24,335;;0,991;0,998;101,42575;22,3785
158;-1,793;14,198;1,793;0;0,991;101,661;-0,044;-1,087;12,047;0;0,998;17,325;-1,794;14,201;1,794;0;0,991;102,05;-0,045;-1,081;12,033;0;0,999;15,856;-1,793;14,187;1,793;0;0,991;101,751;-0,044;-1,09;12,048;0;0,998;20,242;-1,793;14,19;1,793;0;0,991;101,334;-0,044;-1,087;12,042;0;0,999;15,86;;0,991;0,9985;101,699;17,32075
159;-1,806;14,121;1,806;0;0,991;99,91;-0,043;-1,115;12,018;0;0,999;17,393;-1,808;14,133;1,808;0;0,992;97,631;-0,042;-1,132;12,077;0;0,999;14,737;-1,807;14,126;1,807;0;0,992;97,031;-0,042;-1,136;12,082;0;0,999;13,981;-1,808;14,117;1,808;0;0,992;98,824;-0,043;-1,121;12,025;0;0,999;13,505;;0,99175;0,999;98,349;14,904
160;-1,81;13,885;1,81;0;0,991;101,945;-0,043;-1,115;11,771;0;0,998;26,277;-1,81;13,887;1,81;0;0,991;102,31;-0,044;-1,111;11,759;0;0,998;25,562;-1,812;13,896;1,812;0;0,991;102,571;-0,044;-1,114;11,773;0;0,998;27,866;-1,811;13,892;1,811;0;0,991;102,56;-0,044;-1,113;11,768;0;0,998;27,496;;0,991;0,998;102,3465;26,80025
161;-1,79;13,947;1,79;0;0,99;108,166;-0,047;-1,037;11,652;0;0,998;25,27;-1,786;13,89;1,786;0;0,99;107,523;-0,047;-1,038;11,612;0;0,998;24,926;-1,786;13,886;1,786;0;0,99;107,197;-0,046;-1,045;11,631;0;0,998;27,521;-1,789;13,882;1,789;0;0,99;108,23;-0,047;-1,04;11,602;0;0,998;28,575;;0,99;0,998;107,779;26,573
162;-1,792;14,223;1,792;0;0,991;102,475;-0,045;-1,074;12,037;0;0,999;14,167;-1,793;14,229;1,793;0;0,991;103,02;-0,046;-1,065;12,012;0;0,999;10,09;-1,79;14,223;1,79;0;0,99;103,797;-0,046;-1,061;12,007;0;0,999;15,393;-1,79;14,227;1,79;0;0,99;104,409;-0,046;-1,055;11,99;0;0,999;14,588;;0,9905;0,999;103,42525;13,5595
163;-1,813;13,81;1,813;0;0,991;102,076;-0,043;-1,121;11,705;0;0,998;28,576;-1,815;13,831;1,815;0;0,991;102,3;-0,043;-1,126;11,735;0;0,998;31,135;-1,812;13,817;1,812;0;0,991;102,701;-0,043;-1,128;11,734;0;0,998;35,032;-1,814;13,82;1,814;0;0,991;102,893;-0,043;-1,121;11,712;0;0,998;31,858;;0,991;0,998;102,4925;31,65025
164;-1,815;13,957;1,815;0;0,991;101,535;-0,043;-1,13;11,873;0;0,998;29,54;-1,817;13,954;1,817;0;0,991;102,31;-0,043;-1,127;11,854;0;0,998;30,634;-1,82;13,941;1,82;0;0,991;104,037;-0,043;-1,135;11,857;0;0,998;40,256;-1,818;13,937;1,818;0;0,991;102,837;-0,043;-1,137;11,865;0;0,998;37,266;;0,991;0,998;102,67975;34,424
165;-1,817;14,096;1,817;0;0,992;98,578;-0,042;-1,144;12,047;0;0,998;21,504;-1,817;14,086;1,817;0;0,992;98,706;-0,042;-1,145;12,041;0;0,998;22,925;-1,815;14,075;1,815;0;0,992;97,775;-0,042;-1,148;12,046;0;0,998;21,187;-1,814;14,082;1,814;0;0,992;97,552;-0,042;-1,148;12,054;0;0,998;20,32;;0,992;0,998;98,15275;21,484
166;-1,808;14,12;1,808;0;0,992;97,527;-0,042;-1,132;12,061;0;0,999;13,485;-1,808;14,119;1,808;0;0,992;97,545;-0,042;-1,133;12,066;0;0,999;15,019;-1,809;14,117;1,809;0;0,992;97,893;-0,042;-1,132;12,056;0;0,999;15,098;-1,809;14,116;1,809;0;0,992;98,102;-0,043;-1,128;12,042;0;0,999;13,489;;0,992;0,999;97,76675;14,27275
168;-1,802;14,034;1,802;0;0,99;105,798;-0,046;-1,075;11,821;0;0,998;27,766;-1,803;14,039;1,803;0;0,99;105,291;-0,045;-1,08;11,839;0;0,998;27,689;-1,802;14,031;1,802;0;0,99;105,033;-0,045;-1,079;11,829;0;0,998;26,048;-1,8;14,016;1,8;0;0,99;104,916;-0,045;-1,079;11,822;0;0,998;26,8;;0,99;0,998;105,2595;27,07575
169;-1,826;13,597;1,826;0;0,992;98,503;-0,042;-1,16;11,57;0;0,998;25,282;-1,826;13,585;1,826;0;0,992;98,884;-0,042;-1,158;11,553;0;0,998;26,141;-1,822;13,566;1,822;0;0,992;97,79;-0,041;-1,169;11,576;0;0,998;28,297;-1,823;13,573;1,823;0;0,992;98,027;-0,041;-1,17;11,586;0;0,998;29,824;;0,992;0,998;98,301;27,386
170;-1,829;13,901;1,829;0;0,992;99,625;-0,041;-1,167;11,886;0;0,998;32,355;-1,828;13,914;1,828;0;0,992;99,039;-0,042;-1,161;11,885;0;0,998;27,361;-1,827;13,928;1,827;0;0,992;98,742;-0,042;-1,159;11,896;0;0,998;25,484;-1,826;13,919;1,826;0;0,992;98,846;-0,042;-1,162;11,898;0;0,998;27,861;;0,992;0,998;99,063;28,26525
171;-1,798;13,798;1,798;0;0,989;110,47;-0,046;-1,069;11,58;0;0,997;48,107;-1,8;13,812;1,8;0;0,989;110,376;-0,046;-1,058;11,551;0;0,998;42,099;-1,8;13,796;1,8;0;0,989;109,147;-0,046;-1,058;11,537;0;0,998;36,816;-1,8;13,78;1,8;0;0,99;108,466;-0,046;-1,061;11,531;0;0,998;35,181;;0,98925;0,99775;109,61475;40,55075
173;-1,818;14,024;1,818;0;0,991;100,535;-0,042;-1,152;11,997;0;0,998;34,214;-1,818;14,012;1,818;0;0,992;99,666;-0,042;-1,151;11,983;0;0,998;30,29;-1,818;13,997;1,818;0;0,992;99,111;-0,042;-1,152;11,97;0;0,998;28,178;-1,818;13,995;1,818;0;0,992;99,479;-0,042;-1,154;11,972;0;0,998;30,379;;0,99175;0,998;99,69775;30,76525
174;-1,842;13,633;1,842;0;0,992;95,925;-0,039;-1,226;11,756;0;0,998;37,462;-1,842;13,626;1,842;0;0,992;96,037;-0,038;-1,235;11,779;0;0,998;41,461;-1,844;13,628;1,844;0;0,992;96,083;-0,039;-1,219;11,724;0;0,998;34,456;-1,846;13,635;1,846;0;0,992;96,983;-0,04;-1,2;11,669;0;0,998;28,64;;0,992;0,998;96,257;35,50475
175;-1,805;14,268;1,805;0;0,992;97,705;-0,043;-1,125;12,2;0;0,999;12,491;-1,805;14,277;1,805;0;0,992;97,493;-0,042;-1,128;12,217;0;0,999;12,853;-1,807;14,269;1,807;0;0,992;97,225;-0,042;-1,132;12,215;0;0,999;12,683;-1,806;14,267;1,806;0;0,992;97,564;-0,042;-1,127;12,203;0;0,999;12,275;;0,992;0,999;97,49675;12,5755
176;-1,79;13,766;1,79;0;0,99;106,917;-0,047;-1,043;11,493;0;0,998;22,318;-1,785;13,736;1,785;0;0,99;105,971;-0,046;-1,054;11,51;0;0,998;26,492;-1,789;13,763;1,789;0;0,99;107,731;-0,047;-1,041;11,487;0;0,998;26,372;-1,787;13,75;1,787;0;0,99;106,372;-0,046;-1,059;11,534;0;0,998;30,449;;0,99;0,998;106,74775;26,40775
177;-1,818;14,067;1,818;0;0,991;99,884;-0,043;-1,136;11,992;0;0,998;23,107;-1,816;14,054;1,816;0;0,991;99,731;-0,043;-1,135;11,981;0;0,998;22,641;-1,815;14,042;1,815;0;0,992;99,147;-0,042;-1,142;11,994;0;0,998;24,484;-1,816;14,033;1,816;0;0,992;99,207;-0,042;-1,146;11,994;0;0,998;26,448;;0,9915;0,998;99,49225;24,17
178;-1,812;13,881;1,812;0;0,991;102,587;-0,044;-1,111;11,746;0;0,998;25,67;-1,809;13,86;1,809;0;0,991;101,608;-0,043;-1,117;11,754;0;0,998;26,167;-1,809;13,871;1,809;0;0,991;102,086;-0,044;-1,111;11,747;0;0,998;25,138;-1,81;13,875;1,81;0;0,991;102,563;-0,044;-1,108;11,739;0;0,998;25,32;;0,991;0,998;102,211;25,57375
179;-1,791;13,833;1,791;0;0,99;104,324;-0,045;-1,07;11,639;0;0,998;23,573;-1,8;13,833;1,8;0;0,99;105,186;-0,046;-1,07;11,613;0;0,998;23,242;-1,807;13,797;1,807;0;0,991;103,889;-0,044;-1,106;11,661;0;0,998;31,945;-1,798;13,853;1,798;0;0,99;105,101;-0,045;-1,072;11,643;0;0,998;24,704;;0,99025;0,998;104,625;25,866
180;-1,802;13,918;1,802;0;0,99;105,366;-0,045;-1,082;11,725;0;0,998;29,361;-1,801;13,928;1,801;0;0,99;105,954;-0,046;-1,073;11,713;0;0,998;28,36;-1,801;13,92;1,801;0;0,99;105,939;-0,045;-1,081;11,73;0;0,998;32,585;-1,805;13,937;1,805;0;0,99;107,3;-0,046;-1,077;11,72;0;0,998;34,87;;0,99;0,998;106,13975;31,294
181;-1,815;13,721;1,815;0;0,991;102,994;-0,043;-1,122;11,612;0;0,998;32,168;-1,814;13,733;1,814;0;0,991;103,383;-0,044;-1,116;11,608;0;0,998;31,422;-1,814;13,739;1,814;0;0,991;103,501;-0,044;-1,115;11,611;0;0,998;31,554;-1,814;13,736;1,814;0;0,991;103,681;-0,044;-1,117;11,613;0;0,998;33,07;;0,991;0,998;103,38975;32,0535
182;-1,807;13,884;1,807;0;0,991;103,975;-0,044;-1,102;11,738;0;0,998;30,64;-1,805;13,872;1,805;0;0,991;103,59;-0,043;-1,11;11,758;0;0,998;34,161;-1,805;13,875;1,805;0;0,991;103,553;-0,043;-1,111;11,763;0;0,998;34,316;-1,808;13,894;1,808;0;0,991;104,149;-0,044;-1,106;11,757;0;0,998;32,962;;0,991;0,998;103,81675;33,01975
183;-1,79;14,067;1,79;0;0,99;103,874;-0,046;-1,061;11,846;0;0,999;14,8;-1,791;14,07;1,791;0;0,99;104,411;-0,046;-1,058;11,84;0;0,999;16,187;-1,789;14,068;1,789;0;0,99;104,168;-0,046;-1,06;11,848;0;0,998;16,991;-1,787;14,068;1,787;0;0,99;104,012;-0,046;-1,059;11,851;0;0,999;16,802;;0,99;0,99875;104,11625;16,195
184;-1,827;14,201;1,827;0;0,993;92,614;-0,039;-1,198;12,288;0;0,999;17,914;-1,822;14,168;1,822;0;0,992;95,585;-0,041;-1,171;12,186;0;0,998;19,344;-1,818;14,131;1,818;0;0,992;96,807;-0,041;-1,157;12,12;0;0,998;19,792;-1,818;14,125;1,818;0;0,992;96,635;-0,041;-1,158;12,116;0;0,998;19,252;;0,99225;0,99825;95,41025;19,0755
185;-1,821;13,833;1,821;0;0,992;95,502;-0,041;-1,166;11,841;0;0,999;16,798;-1,818;13,831;1,818;0;0,992;95,374;-0,041;-1,17;11,861;0;0,998;20,497;-1,808;13,818;1,808;0;0,992;95,288;-0,041;-1,157;11,836;0;0,999;17,802;-1,799;13,836;1,799;0;0,992;97,745;-0,043;-1,118;11,763;0;0,999;11,637;;0,992;0,99875;95,97725;16,6835
186;-1,875;13,811;1,875;0;0,996;70,34;-0,03;-1,396;12,354;0;0,999;8,451;-1,879;13,955;1,879;0;0,996;69,592;-0,03;-1,408;12,52;0;0,999;9,622;-1,867;14,023;1,867;0;0,995;74,827;-0,033;-1,347;12,44;0;0,999;1,646;-1,855;13,969;1,855;0;0,996;70,326;-0,03;-1,373;12,503;0;0,999;6,8;;0,99575;0,999;71,27125;6,62975
187;-1,821;14,161;1,821;0;0,993;89,396;-0,038;-1,209;12,296;0;0,999;11,822;-1,82;14,179;1,82;0;0,993;89,167;-0,039;-1,203;12,303;0;0,999;7,76;-1,821;14,195;1,821;0;0,993;90,132;-0,039;-1,194;12,286;0;0,999;5,338;-1,821;14,16;1,821;0;0,993;90,467;-0,039;-1,197;12,262;0;0,999;10,093;;0,993;0,999;89,7905;8,75325
188;-1,825;14,26;1,825;0;0,993;87,579;-0,037;-1,226;12,438;0;0,999;11,489;-1,823;14,257;1,823;0;0,994;86,226;-0,036;-1,24;12,483;0;0,999;14,842;-1,824;14,266;1,824;0;0,994;86,144;-0,037;-1,24;12,486;0;0,999;13,368;-1,825;14,257;1,825;0;0,994;86,109;-0,037;-1,23;12,445;0;0,999;5,921;;0,99375;0,999;86,5145;11,405
189;-1,842;14,092;1,842;0;0,993;91,694;-0,038;-1,235;12,246;0;0,998;25,752;-1,841;14,119;1,841;0;0,993;92,001;-0,038;-1,227;12,25;0;0,998;23,326;-1,84;14,123;1,84;0;0,993;91,22;-0,038;-1,233;12,275;0;0,998;23,565;-1,839;14,123;1,839;0;0,993;91,944;-0,038;-1,227;12,258;0;0,998;23,834;;0,993;0,998;91,71475;24,11925
190;-1,832;14,141;1,832;0;0,994;84,341;-0,036;-1,249;12,368;0;0,999;5,556;-1,833;14,139;1,833;0;0,994;84,602;-0,037;-1,246;12,353;0;0,999;3,884;-1,834;14,153;1,834;0;0,994;84,802;-0,037;-1,242;12,349;0;0,999;0,54;-1,836;14,172;1,836;0;0,994;85,632;-0,037;-1,239;12,356;0;0,999;2,268;;0,994;0,999;84,84425;3,062
191;-1,803;14,103;1,803;0;0,991;99,385;-0,043;-1,112;12,001;0;0,999;14,639;-1,803;14,099;1,803;0;0,991;100,505;-0,044;-1,099;11,956;0;0,999;11,848;-1,798;14,096;1,798;0;0,991;100,223;-0,044;-1,099;11,969;0;0,999;13,957;-1,797;14,08;1,797;0;0,992;98,304;-0,043;-1,114;12,001;0;0,999;13,367;;0,99125;0,999;99,60425;13,45275
192;-1,8;14,007;1,8;0;0,991;100,867;-0,044;-1,101;11,878;0;0,998;17,618;-1,797;13,982;1,797;0;0,991;101,686;-0,044;-1,09;11,829;0;0,999;17,117;-1,796;13,957;1,796;0;0,991;103,205;-0,045;-1,083;11,787;0;0,998;22,089;-1,798;13,974;1,798;0;0,99;104,294;-0,045;-1,082;11,796;0;0,998;26,444;;0,99075;0,99825;102,513;20,817
193;-1,822;13,948;1,822;0;0,992;97,171;-0,041;-1,164;11,944;0;0,998;22,95;-1,825;13,955;1,825;0;0,992;96,976;-0,041;-1,17;11,962;0;0,998;24;-1,823;13,965;1,823;0;0,992;96,363;-0,041;-1,175;11,993;0;0,998;24,873;-1,826;13,975;1,826;0;0,992;96,45;-0,041;-1,176;11,995;0;0,998;23,873;;0,992;0,998;96,74;23,924
194;-1,78;14,047;1,78;0;0,988;113,027;-0,05;-0,982;11,618;0;0,998;27,106;-1,78;14,054;1,78;0;0,988;113,024;-0,05;-0,984;11,632;0;0,998;28,424;-1,78;14,047;1,78;0;0,988;112,526;-0,049;-0,989;11,641;0;0,998;28,701;-1,78;14,042;1,78;0;0,988;112,415;-0,05;-0,989;11,635;0;0,998;27,724;;0,988;0,998;112,748;27,98875
195;-1,804;14,367;1,804;0;0,991;100,263;-0,043;-1,111;12,257;0;0,998;18,008;-1,8;14,341;1,8;0;0,991;100,16;-0,043;-1,105;12,227;0;0,999;16,5;-1,8;14,337;1,8;0;0,991;101,397;-0,044;-1,095;12,189;0;0,999;16,38;-1,804;14,394;1,804;0;0,991;101,55;-0,044;-1,094;12,234;0;0,999;14,492;;0,991;0,99875;100,8425;16,345
196;-1,777;13,813;1,777;0;0,989;109,29;-0,048;-1,008;11,473;0;0,998;22,42;-1,774;13,801;1,774;0;0,989;108,701;-0,048;-1,011;11,48;0;0,998;22,96;-1,774;13,824;1,774;0;0,989;109,536;-0,048;-1,005;11,481;0;0,998;23,495;-1,775;13,846;1,775;0;0,989;110,147;-0,048;-1,001;11,492;0;0,998;24,841;;0,989;0,998;109,4185;23,429
197;-1,809;14,166;1,809;0;0,992;97,758;-0,042;-1,134;12,114;0;0,999;16,323;-1,809;14,134;1,809;0;0,991;100,232;-0,043;-1,12;12,037;0;0,998;20,58;-1,811;14,116;1,811;0;0,991;101,149;-0,043;-1,125;12,028;0;0,998;27,172;-1,808;14,111;1,808;0;0,991;99,963;-0,043;-1,121;12,018;0;0,998;20,012;;0,99125;0,99825;99,7755;21,02175
198;-1,821;13,708;1,821;0;0,991;100,634;-0,043;-1,137;11,627;0;0,998;25,718;-1,819;13,699;1,819;0;0,991;101,121;-0,043;-1,138;11,626;0;0,998;29,586;-1,819;13,69;1,819;0;0,991;100,99;-0,042;-1,143;11,632;0;0,998;31,312;-1,822;13,708;1,822;0;0,991;101,657;-0,043;-1,139;11,63;0;0,998;31,233;;0,991;0,998;101,1005;29,46225
199;-1,796;13,948;1,796;0;0,991;101,466;-0,044;-1,093;11,809;0;0,998;18,618;-1,796;13,952;1,796;0;0,991;101,857;-0,044;-1,091;11,805;0;0,998;19,463;-1,796;13,946;1,796;0;0,991;101,915;-0,044;-1,093;11,804;0;0,998;20,712;-1,797;13,943;1,797;0;0,991;101,968;-0,044;-1,091;11,794;0;0,998;19,574;;0,991;0,998;101,8015;19,59175
200;-1,808;13,927;1,808;0;0,991;100,711;-0,043;-1,118;11,827;0;0,998;22,534;-1,81;13,918;1,81;0;0,991;101,327;-0,043;-1,118;11,812;0;0,998;24,688;-1,805;13,919;1,805;0;0,991;101,193;-0,043;-1,112;11,807;0;0,998;22,998;-1,803;13,913;1,803;0;0,991;100,999;-0,043;-1,112;11,808;0;0,998;23,199;;0,991;0,998;101,0575;23,35475
201;-1,79;13,969;1,79;0;0,99;105,273;-0,046;-1,061;11,748;0;0,998;23,566;-1,788;13,976;1,788;0;0,99;105,67;-0,045;-1,065;11,775;0;0,998;29,49;-1,788;13,982;1,788;0;0,99;105,506;-0,046;-1,057;11,756;0;0,998;23,964;-1,789;13,98;1,789;0;0,99;105,412;-0,046;-1,054;11,743;0;0,998;21,061;;0,99;0,998;105,46525;24,52025
202;-1,797;14,007;1,797;0;0,99;106,119;-0,046;-1,065;11,78;0;0,998;26,936;-1,796;14,003;1,796;0;0,99;106,054;-0,046;-1,064;11,774;0;0,998;26,397;-1,796;14,001;1,796;0;0,99;106,29;-0,046;-1,062;11,768;0;0,998;26,904;-1,795;14,005;1,795;0;0,99;106,068;-0,046;-1,063;11,779;0;0,998;26,974;;0,99;0,998;106,13275;26,80275
203;-1,793;13,68;1,793;0;0,99;106,455;-0,046;-1,061;11,452;0;0,998;28,707;-1,793;13,689;1,793;0;0,99;106,931;-0,046;-1,054;11,44;0;0,998;27,262;-1,793;13,683;1,793;0;0,99;107,419;-0,047;-1,049;11,42;0;0,998;27,257;-1,792;13,654;1,792;0;0,99;106,952;-0,046;-1,058;11,418;0;0,998;29,8;;0,99;0,998;106,93925;28,2565
204;-1,793;14,342;1,793;0;0,991;98,638;-0,043;-1,109;12,261;0;0,999;14,905;-1,794;14,346;1,794;0;0,991;99,399;-0,043;-1,101;12,235;0;0,999;12,586;-1,789;14,302;1,789;0;0,991;99,059;-0,044;-1,093;12,185;0;0,999;8,807;-1,786;14,279;1,786;0;0,991;99,096;-0,043;-1,099;12,189;0;0,999;15,523;;0,991;0,999;99,048;12,95525
205;-1,8;13,875;1,8;0;0,99;104,418;-0,045;-1,076;11,67;0;0,998;21,898;-1,798;13,907;1,798;0;0,99;105,442;-0,046;-1,06;11,663;0;0,998;19,555;-1,798;13,922;1,798;0;0,99;105,799;-0,046;-1,064;11,686;0;0,998;23,395;-1,796;13,905;1,796;0;0,99;105,466;-0,045;-1,069;11,694;0;0,998;26,475;;0,99;0,998;105,28125;22,83075
206;-1,815;14,053;1,815;0;0,992;97,7;-0,042;-1,146;12,019;0;0,998;19,763;-1,814;14,042;1,814;0;0,992;96,934;-0,042;-1,149;12,019;0;0,999;17,984;-1,816;14,046;1,816;0;0,992;97,322;-0,041;-1,155;12,034;0;0,998;22,358;-1,816;14,053;1,816;0;0,992;96,93;-0,041;-1,159;12,054;0;0,998;22,729;;0,992;0,99825;97,2215;20,7085
207;-1,785;14,177;1,785;0;0,99;105,052;-0,046;-1,043;11,919;0;0,999;13,762;-1,782;14,167;1,782;0;0,99;105,295;-0,047;-1,039;11,904;0;0,999;13,864;-1,782;14,16;1,782;0;0,99;104,919;-0,046;-1,043;11,912;0;0,999;15,093;-1,786;14,17;1,786;0;0,99;105,503;-0,047;-1,041;11,903;0;0,999;14,417;;0,99;0,999;105,19225;14,284
208;-1,811;13,67;1,811;0;0,99;106,915;-0,046;-1,081;11,449;0;0,998;32,141;-1,812;13,655;1,812;0;0,99;106,574;-0,045;-1,088;11,452;0;0,998;33,692;-1,813;13,65;1,813;0;0,99;106,643;-0,045;-1,093;11,459;0;0,998;35,864;-1,813;13,658;1,813;0;0,99;106,865;-0,045;-1,087;11,449;0;0,998;34,06;;0,99;0,998;106,74925;33,93925
209;-1,818;13,979;1,818;0;0,991;101,497;-0,043;-1,13;11,885;0;0,998;27,657;-1,818;13,978;1,818;0;0,991;101,581;-0,043;-1,128;11,878;0;0,998;26,952;-1,816;13,967;1,816;0;0,991;100,92;-0,043;-1,134;11,89;0;0,998;27,977;-1,815;13,951;1,815;0;0,991;100,395;-0,042;-1,142;11,904;0;0,998;30,579;;0,991;0,998;101,09825;28,29125
210;-1,835;14,076;1,835;0;0,992;95,751;-0,039;-1,204;12,156;0;0,998;30,874;-1,838;14,117;1,838;0;0,993;94,179;-0,039;-1,216;12,225;0;0,998;28,64;-1,839;14,139;1,839;0;0,992;95,347;-0,04;-1,198;12,187;0;0,998;23,797;-1,837;14,131;1,837;0;0,992;95,572;-0,04;-1,194;12,174;0;0,998;24,052;;0,99225;0,998;95,21225;26,84075
211;-1,852;14,828;1,852;0;0,995;79,846;-0,034;-1,305;13,162;0;0,999;7,205;-1,869;15,085;1,869;0;0,995;72,577;-0,031;-1,369;13,562;0;0,999;4,743;-1,871;15,08;1,871;0;0,995;73,157;-0,031;-1,37;13,557;0;0,999;6,975;-1,87;15,064;1,87;0;0,995;73,011;-0,031;-1,372;13,547;0;0,999;7,732;;0,995;0,999;74,64775;6,66375
212;-1,794;14,08;1,794;0;0,99;104,187;-0,045;-1,069;11,874;0;0,998;20,217;-1,793;14,084;1,793;0;0,99;104,126;-0,045;-1,074;11,896;0;0,998;23,63;-1,792;14,083;1,792;0;0,99;104,174;-0,045;-1,072;11,891;0;0,998;23,032;-1,791;14,063;1,791;0;0,99;103,964;-0,045;-1,073;11,879;0;0,998;23,507;;0,99;0,998;104,11275;22,5965
213;-1,832;14,341;1,832;0;0,993;90,935;-0,039;-1,214;12,462;0;0,999;16,374;-1,839;14,293;1,839;0;0,993;89,498;-0,038;-1,235;12,455;0;0,999;17,616;-1,84;14,292;1,84;0;0,993;90,11;-0,038;-1,229;12,431;0;0,999;16,234;-1,836;14,294;1,836;0;0,993;90,306;-0,038;-1,228;12,443;0;0,999;19,064;;0,993;0,999;90,21225;17,322
215;-1,828;13,958;1,828;0;0,992;96,208;-0,041;-1,176;11,973;0;0,998;21,747;-1,825;13,941;1,825;0;0,992;95,12;-0,04;-1,185;11,992;0;0,998;23,394;-1,828;13,959;1,828;0;0,992;95,807;-0,041;-1,179;11,985;0;0,998;21,768;-1,828;13,963;1,828;0;0,992;95,205;-0,04;-1,185;12,007;0;0,998;22,381;;0,992;0,998;95,585;22,3225
216;-1,803;14,077;1,803;0;0,991;103,592;-0,044;-1,098;11,929;0;0,998;28,54;-1,803;14,044;1,803;0;0,991;103,126;-0,044;-1,096;11,894;0;0,998;25,72;-1,802;14,037;1,802;0;0,991;103,318;-0,044;-1,092;11,877;0;0,998;24,67;-1,801;14,046;1,801;0;0,991;103,406;-0,045;-1,089;11,88;0;0,998;24,18;;0,991;0,998;103,3605;25,7775
217;-1,802;14,259;1,802;0;0,991;100,228;-0,043;-1,108;12,146;0;0,999;17,23;-1,8;14,236;1,8;0;0,991;101,201;-0,044;-1,098;12,1;0;0,998;17,687;-1,798;14,224;1,798;0;0,991;101,34;-0,044;-1,094;12,082;0;0,999;17,19;-1,799;14,214;1,799;0;0,991;101,16;-0,044;-1,098;12,08;0;0,998;18,006;;0,991;0,9985;100,98225;17,52825
218;-1,797;14,055;1,797;0;0,991;103,904;-0,045;-1,081;11,876;0;0,998;24,203;-1,804;14,063;1,804;0;0,99;104,77;-0,045;-1,087;11,88;0;0,998;28,017;-1,802;14,049;1,802;0;0,99;104,555;-0,045;-1,083;11,861;0;0,998;26,044;-1,798;14,052;1,798;0;0,99;104,156;-0,045;-1,079;11,862;0;0,998;23,385;;0,99025;0,998;104,34625;25,41225
219;-1,809;13,862;1,809;0;0,991;103,135;-0,043;-1,114;11,749;0;0,998;32,145;-1,811;13,842;1,811;0;0,991;103;-0,044;-1,111;11,712;0;0,998;28,703;-1,809;13,865;1,809;0;0,991;102,894;-0,044;-1,104;11,72;0;0,998;25,374;-1,806;13,91;1,806;0;0,991;103,157;-0,044;-1,1;11,762;0;0,998;26,269;;0,991;0,998;103,0465;28,12275
220;-1,796;14,207;1,796;0;0,99;105,319;-0,046;-1,056;11,957;0;0,999;17,31;-1,794;14,183;1,794;0;0,99;104,098;-0,045;-1,069;11,977;0;0,998;19,78;-1,795;14,152;1,795;0;0,991;103,449;-0,045;-1,079;11,974;0;0,998;21,87;-1,798;14,171;1,798;0;0,99;104,481;-0,046;-1,068;11,949;0;0,998;18,408;;0,99025;0,99825;104,33675;19,342
221;-1,796;14,002;1,796;0;0,99;107,801;-0,047;-1,048;11,726;0;0,998;26,778;-1,792;13,996;1,792;0;0,99;106,794;-0,046;-1,053;11,746;0;0,998;26,381;-1,79;13,976;1,79;0;0,99;106,452;-0,046;-1,055;11,738;0;0,998;26,691;-1,79;13,954;1,79;0;0,99;106,44;-0,046;-1,058;11,727;0;0,998;28,67;;0,99;0,998;106,87175;27,13
222;-1,815;13,78;1,815;0;0,991;102,696;-0,044;-1,112;11,641;0;0,998;25,492;-1,817;13,802;1,817;0;0,991;103,576;-0,045;-1,106;11,637;0;0,998;25,342;-1,817;13,814;1,817;0;0,991;104,047;-0,045;-1,104;11,642;0;0,998;26,451;-1,814;13,802;1,814;0;0,991;103,125;-0,044;-1,115;11,674;0;0,998;29,747;;0,991;0,998;103,361;26,758
223;-1,829;14,057;1,829;0;0,992;95,402;-0,04;-1,19;12,112;0;0,998;25,098;-1,828;14,057;1,828;0;0,992;95,662;-0,04;-1,187;12,105;0;0,998;25,216;-1,832;14,052;1,832;0;0,992;95,53;-0,04;-1,195;12,114;0;0,998;26,975;-1,831;14,057;1,831;0;0,992;95,488;-0,04;-1,191;12,108;0;0,998;25,023;;0,992;0,998;95,5205;25,578
224;-1,808;13,886;1,808;0;0,991;102,875;-0,044;-1,108;11,754;0;0,998;27,846;-1,809;13,904;1,809;0;0,991;103,528;-0,044;-1,099;11,745;0;0,998;26,048;-1,809;13,908;1,809;0;0,991;103,623;-0,044;-1,1;11,752;0;0,998;27,113;-1,808;13,911;1,808;0;0,991;103,754;-0,044;-1,099;11,753;0;0,998;27,355;;0,991;0,998;103,445;27,0905
225;-1,84;14,126;1,84;0;0,993;91,573;-0,038;-1,226;12,258;0;0,998;21,561;-1,839;14,138;1,839;0;0,993;89,683;-0,038;-1,235;12,302;0;0,999;18,932;-1,84;14,135;1,84;0;0,993;89,879;-0,038;-1,236;12,299;0;0,998;19,665;-1,839;14,104;1,839;0;0,993;90,472;-0,038;-1,235;12,267;0;0,998;22,2;;0,993;0,99825;90,40175;20,5895
226;-1,818;13,822;1,818;0;0,992;99,591;-0,042;-1,141;11,762;0;0,998;24,432;-1,819;13,808;1,819;0;0,992;99,53;-0,042;-1,145;11,759;0;0,998;26,173;-1,819;13,795;1,819;0;0,992;99,06;-0,042;-1,149;11,756;0;0,998;25,752;-1,82;13,798;1,82;0;0,992;99,487;-0,042;-1,149;11,754;0;0,998;26,954;;0,992;0,998;99,417;25,82775
227;-1,816;13,997;1,816;0;0,991;100,66;-0,043;-1,131;11,91;0;0,998;24,91;-1,818;13,98;1,818;0;0,991;100,095;-0,042;-1,139;11,915;0;0,998;26,143;-1,818;13,994;1,818;0;0,991;100,07;-0,043;-1,137;11,921;0;0,998;24,442;-1,817;14;1,817;0;0,991;100,609;-0,043;-1,137;11,93;0;0,998;27,59;;0,991;0,998;100,3585;25,77125
228;-1,826;13,976;1,826;0;0,992;95,042;-0,039;-1,198;12,064;0;0,998;29,221;-1,832;13,997;1,832;0;0,992;96,295;-0,04;-1,189;12,04;0;0,998;27,184;-1,833;14,013;1,833;0;0,992;98,292;-0,041;-1,175;12,01;0;0,998;28,416;-1,835;14,01;1,835;0;0,992;99,334;-0,042;-1,169;11,984;0;0,998;29,227;;0,992;0,998;97,24075;28,512
230;-1,807;13,817;1,807;0;0,99;105,331;-0,045;-1,084;11,616;0;0,998;27,621;-1,805;13,795;1,805;0;0,99;105,157;-0,045;-1,088;11,612;0;0,998;30,156;-1,804;13,793;1,804;0;0,99;105,503;-0,045;-1,082;11,594;0;0,998;28,946;-1,803;13,79;1,803;0;0,99;105,87;-0,045;-1,081;11,593;0;0,998;31,124;;0,99;0,998;105,46525;29,46175
231;-1,822;13,969;1,822;0;0,992;96,914;-0,042;-1,157;11,944;0;0,999;17,464;-1,823;13,952;1,823;0;0,992;96,488;-0,041;-1,167;11,957;0;0,998;21,22;-1,822;13,928;1,822;0;0,992;96,603;-0,041;-1,174;11,953;0;0,998;25,537;-1,823;13,932;1,823;0;0,992;97,347;-0,041;-1,166;11,931;0;0,998;24,35;;0,992;0,99825;96,838;22,14275
233;-1,815;13,821;1,815;0;0,991;102,41;-0,044;-1,116;11,693;0;0,998;26,086;-1,815;13,827;1,815;0;0,991;102,958;-0,044;-1,109;11,679;0;0,998;25,236;-1,816;13,822;1,816;0;0,991;102,873;-0,044;-1,111;11,679;0;0,998;25,67;-1,814;13,801;1,814;0;0,991;102,537;-0,044;-1,117;11,679;0;0,998;27,911;;0,991;0,998;102,6945;26,22575
234;-1,804;13,628;1,804;0;0,99;106,736;-0,046;-1,07;11,394;0;0,998;29,038;-1,802;13,626;1,802;0;0,99;106,641;-0,046;-1,07;11,398;0;0,998;29,604;-1,803;13,64;1,803;0;0,99;107,027;-0,046;-1,071;11,414;0;0,998;31,868;-1,803;13,647;1,803;0;0,99;107,249;-0,046;-1,069;11,413;0;0,998;31,576;;0,99;0,998;106,91325;30,5215
235;-1,826;13,934;1,826;0;0,992;99,004;-0,041;-1,168;11,933;0;0,998;31,767;-1,825;13,934;1,825;0;0,992;98,787;-0,041;-1,165;11,926;0;0,998;29,762;-1,824;13,947;1,824;0;0,992;99,316;-0,042;-1,151;11,898;0;0,998;25,147;-1,823;13,942;1,823;0;0,992;98,942;-0,042;-1,158;11,918;0;0,998;27,817;;0,992;0,998;99,01225;28,62325
236;-1,857;13,936;1,857;0;0,994;85,551;-0,035;-1,303;12,25;0;0,998;26,935;-1,858;13,953;1,858;0;0,994;87,682;-0,036;-1,287;12,214;0;0,998;26,777;-1,854;13,942;1,854;0;0,994;86,072;-0,035;-1,291;12,231;0;0,998;25,068;-1,854;13,942;1,854;0;0,994;85,914;-0,036;-1,286;12,215;0;0,998;21,865;;0,994;0,998;86,30475;25,16125
237;-1,792;14,097;1,792;0;0,99;107,984;-0,047;-1,035;11,792;0;0,998;22,083;-1,791;14,086;1,791;0;0,99;107,555;-0,047;-1,043;11,808;0;0,998;25,222;-1,79;14,082;1,79;0;0,99;107,721;-0,047;-1,047;11,818;0;0,998;28,853;-1,79;14,08;1,79;0;0,99;107,856;-0,047;-1,043;11,807;0;0,998;27,751;;0,99;0,998;107,779;25,97725
238;-1,815;13,849;1,815;0;0,991;104,746;-0,045;-1,094;11,654;0;0,998;25,7;-1,813;13,845;1,813;0;0,991;104,193;-0,045;-1,098;11,67;0;0,998;26,596;-1,812;13,852;1,812;0;0,991;104,229;-0,045;-1,099;11,68;0;0,998;27,423;-1,813;13,857;1,813;0;0,991;104,525;-0,045;-1,099;11,683;0;0,998;28,567;;0,991;0,998;104,42325;27,0715
239;-1,828;14,146;1,828;0;0,992;94,489;-0,039;-1,198;12,229;0;0,998;25,996;-1,829;14,143;1,829;0;0,992;95,345;-0,04;-1,194;12,212;0;0,998;27,325;-1,828;14,139;1,828;0;0,992;95,775;-0,04;-1,186;12,184;0;0,998;25,178;-1,828;14,143;1,828;0;0,992;96,311;-0,041;-1,179;12,168;0;0,998;24,179;;0,992;0,998;95,48;25,6695
240;-1,818;13,502;1,818;0;0,991;102,271;-0,042;-1,144;11,451;0;0,998;37,881;-1,818;13,519;1,818;0;0,991;102,921;-0,043;-1,137;11,447;0;0,998;37,406;-1,817;13,521;1,817;0;0,991;102,723;-0,042;-1,138;11,455;0;0,998;37,558;-1,818;13,526;1,818;0;0,991;103,502;-0,042;-1,14;11,46;0;0,998;40,736;;0,991;0,998;102,85425;38,39525
241;-1,817;13,645;1,817;0;0,992;99,614;-0,042;-1,138;11,579;0;0,998;23,568;-1,816;13,642;1,816;0;0,992;99,524;-0,042;-1,138;11,576;0;0,998;23,163;-1,816;13,64;1,816;0;0,992;99,383;-0,042;-1,139;11,579;0;0,998;23,176;-1,816;13,638;1,816;0;0,992;99,35;-0,042;-1,139;11,579;0;0,998;23,34;;0,992;0,998;99,46775;23,31175
242;-1,811;13,837;1,811;0;0,991;103,64;-0,044;-1,106;11,693;0;0,998;29,313;-1,808;13,844;1,808;0;0,991;104,468;-0,045;-1,096;11,679;0;0,998;29,743;-1,808;13,848;1,808;0;0,99;104,655;-0,045;-1,091;11,668;0;0,998;28,035;-1,809;13,838;1,809;0;0,991;104,01;-0,045;-1,097;11,672;0;0,998;27,368;;0,99075;0,998;104,19325;28,61475
243;-1,809;14,19;1,809;0;0,991;102,699;-0,044;-1,108;12,057;0;0,998;26,617;-1,814;14,158;1,814;0;0,991;102,248;-0,043;-1,121;12,051;0;0,998;29,006;-1,816;14,163;1,816;0;0,991;103,014;-0,044;-1,114;12,027;0;0,998;27,645;-1,815;14,153;1,815;0;0,991;103,06;-0,044;-1,118;12,034;0;0,998;30,73;;0,991;0,998;102,75525;28,4995
244;-1,899;14,41;1,899;0;0,995;79,317;-0,029;-1,444;13,056;0;0,997;46,78;-1,9;14,335;1,9;0;0,993;89,112;-0,031;-1,421;12,909;0;0,996;61,069;-1,894;14,289;1,894;0;0,993;90,894;-0,028;-1,464;13,012;0;0,996;71,48;-1,895;14,377;1,895;0;0,994;86,484;-0,03;-1,432;13;0;0,997;59,006;;0,99375;0,9965;86,45175;59,58375
245;-1,815;13,869;1,815;0;0,991;101,47;-0,043;-1,121;11,758;0;0,998;24,506;-1,816;13,867;1,816;0;0,991;101,513;-0,043;-1,128;11,775;0;0,998;28,112;-1,82;13,881;1,82;0;0,991;101,981;-0,043;-1,128;11,777;0;0,998;28,293;-1,82;13,875;1,82;0;0,991;101,679;-0,043;-1,134;11,787;0;0,998;29,705;;0,991;0,998;101,66075;27,654
246;-1,789;14,068;1,789;0;0,99;105,912;-0,046;-1,052;11,826;0;0,998;22,87;-1,786;14,067;1,786;0;0,99;106,192;-0,046;-1,047;11,818;0;0,998;23,047;-1,787;14,069;1,787;0;0,99;106,454;-0,047;-1,042;11,803;0;0,998;21,009;-1,786;14,069;1,786;0;0,99;106,678;-0,047;-1,042;11,804;0;0,998;22,708;;0,99;0,998;106,309;22,4085
247;-1,806;13,904;1,806;0;0,991;103,161;-0,045;-1,095;11,74;0;0,998;23,025;-1,806;13,917;1,806;0;0,991;103,294;-0,045;-1,093;11,748;0;0,998;23,047;-1,803;13,907;1,803;0;0,991;102,596;-0,044;-1,101;11,771;0;0,998;25,542;-1,802;13,895;1,802;0;0,991;102,375;-0,044;-1,101;11,762;0;0,998;24,92;;0,991;0,998;102,8565;24,1335
248;-1,818;14,052;1,818;0;0,992;97,037;-0,042;-1,155;12,032;0;0,998;19,104;-1,818;14,042;1,818;0;0,992;96,956;-0,041;-1,159;12,035;0;0,998;21,326;-1,817;14,032;1,817;0;0,992;96,911;-0,041;-1,16;12,033;0;0,998;22,586;-1,818;14,03;1,818;0;0,992;96,876;-0,041;-1,159;12,023;0;0,998;20,867;;0,992;0,998;96,945;20,97075
249;-1,81;14,307;1,81;0;0,992;99,158;-0,041;-1,151;12,302;0;0,998;31,743;-1,809;14,306;1,809;0;0,991;99,39;-0,041;-1,154;12,311;0;0,998;34,264;-1,81;14,31;1,81;0;0,991;99,628;-0,042;-1,144;12,282;0;0,998;30,061;-1,811;14,318;1,811;0;0,992;99,232;-0,042;-1,14;12,273;0;0,998;25,554;;0,9915;0,998;99,352;30,4055
250;-1,848;14,083;1,848;0;0,993;88,933;-0,037;-1,251;12,268;0;0,999;19,36;-1,847;14,079;1,847;0;0,994;87,881;-0,037;-1,254;12,276;0;0,999;16,799;-1,847;14,086;1,847;0;0,994;88,204;-0,038;-1,248;12,262;0;0,999;14,294;-1,845;14,086;1,845;0;0,993;88,333;-0,037;-1,246;12,263;0;0,999;15,133;;0,9935;0,999;88,33775;16,3965
251;-1,83;13,613;1,83;0;0,991;103,545;-0,041;-1,173;11,613;0;0,997;48,748;-1,831;13,623;1,831;0;0,991;103,923;-0,041;-1,173;11,621;0;0,997;49,65;-1,827;13,616;1,827;0;0,991;101,122;-0,041;-1,166;11,605;0;0,998;38,839;-1,827;13,629;1,827;0;0,991;101,686;-0,042;-1,156;11,585;0;0,998;36,588;;0,991;0,9975;102,569;43,45625
252;-1,829;13,78;1,829;0;0,993;93,832;-0,039;-1,204;11,879;0;0,998;25,787;-1,83;13,768;1,83;0;0,993;94,215;-0,038;-1,219;11,907;0;0,998;33,361;-1,835;13,731;1,835;0;0,993;94,031;-0,038;-1,234;11,903;0;0,998;37,154;-1,835;13,745;1,835;0;0,993;94,168;-0,038;-1,222;11,88;0;0,998;32,702;;0,993;0,998;94,0615;32,251
253;-1,796;14,032;1,796;0;0,99;106,574;-0,045;-1,071;11,827;0;0,998;33,101;-1,798;14,035;1,798;0;0,99;106,654;-0,046;-1,068;11,816;0;0,998;31,217;-1,799;14,033;1,799;0;0,99;107,259;-0,046;-1,067;11,803;0;0,998;32,468;-1,799;14,028;1,799;0;0,99;107,074;-0,046;-1,067;11,799;0;0,998;31,653;;0,99;0,998;106,89025;32,10975
254;-1,812;14,389;1,812;0;0,992;99,352;-0,043;-1,132;12,319;0;0,998;21,327;-1,81;14,372;1,81;0;0,992;98,438;-0,042;-1,138;12,328;0;0,998;21,783;-1,81;14,385;1,81;0;0,992;98,933;-0,042;-1,134;12,327;0;0,998;21,557;-1,811;14,386;1,811;0;0,992;99,045;-0,042;-1,136;12,333;0;0,998;23,165;;0,992;0,998;98,942;21,958
255;-1,787;14,105;1,787;0;0,99;107,069;-0,047;-1,044;11,842;0;0,998;25,301;-1,788;14,094;1,788;0;0,99;106,841;-0,047;-1,04;11,818;0;0,998;21,257;-1,79;14,102;1,79;0;0,99;106,974;-0,047;-1,038;11,812;0;0,998;18,857;-1,787;14,087;1,787;0;0,99;106,565;-0,046;-1,049;11,841;0;0,998;25,753;;0,99;0,998;106,86225;22,792
256;-1,82;13,839;1,82;0;0,992;99,218;-0,04;-1,175;11,875;0;0,998;37,896;-1,821;13,847;1,821;0;0,992;97,84;-0,041;-1,168;11,858;0;0,998;28,745;-1,824;13,846;1,824;0;0,992;97,924;-0,041;-1,17;11,855;0;0,998;28,616;-1,826;13,856;1,826;0;0,992;98,359;-0,041;-1,169;11,858;0;0,998;29,546;;0,992;0,998;98,33525;31,20075
257;-1,816;14,007;1,816;0;0,993;93,351;-0,04;-1,173;12,048;0;0,999;12,297;-1,812;13,987;1,812;0;0,993;92,841;-0,04;-1,169;12,029;0;0,999;9,362;-1,812;13,984;1,812;0;0,992;93,53;-0,041;-1,164;12,01;0;0,999;9,664;-1,813;13,985;1,813;0;0,992;93,587;-0,041;-1,162;12,004;0;0,999;8,152;;0,9925;0,999;93,32725;9,86875
258;-1,814;13,996;1,814;0;0,991;100,898;-0,043;-1,125;11,901;0;0,998;24,641;-1,811;13,998;1,811;0;0,991;100,62;-0,043;-1,124;11,905;0;0,998;23,665;-1,811;13,998;1,811;0;0,991;101,08;-0,043;-1,116;11,883;0;0,998;21,589;-1,807;13,964;1,807;0;0,991;100,556;-0,043;-1,117;11,866;0;0,998;22,134;;0,991;0,998;100,7885;23,00725
259;-1,817;13,765;1,817;0;0,991;102,006;-0,043;-1,125;11,658;0;0,998;27,833;-1,814;13,754;1,814;0;0,991;102,559;-0,043;-1,122;11,646;0;0,998;30,304;-1,815;13,743;1,815;0;0,991;102,616;-0,043;-1,121;11,633;0;0,998;30,209;-1,813;13,737;1,813;0;0,991;102,447;-0,043;-1,12;11,628;0;0,998;29,661;;0,991;0,998;102,407;29,50175
260;-1,807;14,01;1,807;0;0,991;102,561;-0,044;-1,099;11,855;0;0,998;21,569;-1,804;14,008;1,804;0;0,991;102,447;-0,044;-1,098;11,859;0;0,998;22,189;-1,804;14,007;1,804;0;0,991;102,02;-0,044;-1,103;11,873;0;0,998;22,787;-1,805;14,011;1,805;0;0,991;102,009;-0,044;-1,102;11,874;0;0,998;22,25;;0,991;0,998;102,25925;22,19875
261;-1,853;14,059;1,853;0;0,994;87,825;-0,036;-1,272;12,291;0;0,998;22,755;-1,845;14,061;1,845;0;0,994;87,512;-0,036;-1,263;12,289;0;0,998;20,862;-1,845;14,054;1,845;0;0,994;88,071;-0,037;-1,253;12,253;0;0,999;18,24;-1,845;14,051;1,845;0;0,993;88,276;-0,037;-1,257;12,26;0;0,998;20,775;;0,99375;0,99825;87,921;20,658
262;-1,812;13,813;1,812;0;0,991;101,713;-0,044;-1,11;11,677;0;0,998;20,847;-1,811;13,783;1,811;0;0,991;100,909;-0,043;-1,121;11,683;0;0,998;23,603;-1,814;13,778;1,814;0;0,991;101,118;-0,043;-1,129;11,695;0;0,998;27,769;-1,815;13,789;1,815;0;0,991;101,559;-0,043;-1,126;11,691;0;0,998;27,446;;0,991;0,998;101,32475;24,91625
263;-1,827;14,028;1,827;0;0,992;95,372;-0,041;-1,179;12,057;0;0,998;20,271;-1,83;14,041;1,83;0;0,992;94,763;-0,04;-1,184;12,076;0;0,999;18,399;-1,829;14,03;1,829;0;0,992;95,86;-0,041;-1,177;12,044;0;0,998;19,888;-1,825;14,005;1,825;0;0,992;95,843;-0,041;-1,178;12,035;0;0,998;22,886;;0,992;0,99825;95,4595;20,361
264;-1,827;13,907;1,827;0;0,992;98,051;-0,041;-1,174;11,922;0;0,998;30,175;-1,83;13,904;1,83;0;0,992;98,509;-0,04;-1,192;11,964;0;0,998;38,539;-1,833;13,91;1,833;0;0,992;99,391;-0,04;-1,195;11,967;0;0,998;41,308;-1,83;13,922;1,83;0;0,992;98,539;-0,041;-1,17;11,913;0;0,998;28,363;;0,992;0,998;98,6225;34,59625
265;-1,816;14,143;1,816;0;0,992;98,722;-0,041;-1,158;12,142;0;0,998;30,518;-1,816;14,123;1,816;0;0,992;99,209;-0,041;-1,166;12,146;0;0,998;36,081;-1,817;14,103;1,817;0;0,991;100,047;-0,041;-1,167;12,126;0;0,998;39,288;-1,817;14,063;1,817;0;0,992;99,601;-0,041;-1,164;12,075;0;0,998;36,153;;0,99175;0,998;99,39475;35,51
266;-1,802;13,981;1,802;0;0,991;103,273;-0,044;-1,093;11,821;0;0,998;24,607;-1,801;13,995;1,801;0;0,991;103,649;-0,045;-1,088;11,824;0;0,998;24,417;-1,803;14,011;1,803;0;0,99;104,539;-0,046;-1,074;11,793;0;0,998;19,832;-1,803;14,004;1,803;0;0,991;103,912;-0,045;-1,08;11,804;0;0,998;19,758;;0,99075;0,998;103,84325;22,1535
267;-1,814;13,894;1,814;0;0,991;101,258;-0,043;-1,131;11,816;0;0,998;29,192;-1,814;13,906;1,814;0;0,991;101,836;-0,043;-1,123;11,805;0;0,998;28,071;-1,815;13,898;1,815;0;0,991;101,553;-0,043;-1,129;11,812;0;0,998;29,4;-1,815;13,901;1,815;0;0,991;101,758;-0,043;-1,127;11,806;0;0,998;28,783;;0,991;0,998;101,60125;28,8615
268;-1,792;14,019;1,792;0;0,99;105,715;-0,046;-1,062;11,797;0;0,998;25,74;-1,792;14,038;1,792;0;0,99;106,972;-0,047;-1,046;11,768;0;0,998;23,209;-1,792;14,048;1,792;0;0,99;107,865;-0,047;-1,045;11,773;0;0,998;27,325;-1,788;14,039;1,788;0;0,99;106,806;-0,047;-1,039;11,759;0;0,998;20,078;;0,99;0,998;106,8395;24,088
269;-1,811;13,869;1,811;0;0,991;101,315;-0,044;-1,115;11,752;0;0,998;22,476;-1,81;13,888;1,81;0;0,991;101,473;-0,044;-1,11;11,758;0;0,998;20,71;-1,806;13,866;1,806;0;0,991;100,586;-0,043;-1,118;11,77;0;0,998;22,724;-1,806;13,872;1,806;0;0,991;101,376;-0,043;-1,112;11,761;0;0,998;23,866;;0,991;0,998;101,1875;22,444
270;-1,84;13,926;1,84;0;0,993;93,225;-0,038;-1,225;12,055;0;0,998;28,028;-1,84;13,916;1,84;0;0,993;92,253;-0,038;-1,233;12,068;0;0,998;27,85;-1,842;13,89;1,842;0;0,993;94,462;-0,039;-1,217;11,987;0;0,998;28,26;-1,837;13,887;1,837;0;0,992;94,823;-0,039;-1,208;11,973;0;0,998;28,028;;0,99275;0,998;93,69075;28,0415
271;-1,805;14,507;1,805;0;0,993;92,094;-0,041;-1,156;12,531;0;0,999;-0,232;-1,805;14,494;1,805;0;0,993;91,853;-0,041;-1,157;12,523;0;0,999;-0,362;-1,804;14,49;1,804;0;0,993;92,89;-0,041;-1,147;12,492;0;0,999;-1,279;-1,804;14,487;1,804;0;0,992;92,997;-0,041;-1,146;12,485;0;0,999;-1,247;;0,99275;0,999;92,4585;-0,78
272;-1,83;14,367;1,83;0;0,993;90,663;-0,039;-1,21;12,478;0;0,999;13,166;-1,831;14,404;1,831;0;0,993;89,386;-0,038;-1,223;12,553;0;0,999;14,653;-1,827;14,428;1,827;0;0,993;89,268;-0,038;-1,219;12,575;0;0,999;13,653;-1,828;14,451;1,828;0;0,993;89,499;-0,039;-1,213;12,579;0;0,999;10,529;;0,993;0,999;89,704;13,00025
273;-1,786;14,023;1,786;0;0,99;108,106;-0,046;-1,049;11,78;0;0,998;34,369;-1,788;14,051;1,788;0;0,99;106,487;-0,046;-1,058;11,828;0;0,998;29,738;-1,786;14,034;1,786;0;0,99;106,959;-0,046;-1,054;11,804;0;0,998;30,938;-1,783;13,997;1,783;0;0,989;108,853;-0,046;-1,042;11,742;0;0,998;35,979;;0,98975;0,998;107,60125;32,756
274;-1,799;13,901;1,799;0;0,99;104,722;-0,045;-1,079;11,709;0;0,998;26,213;-1,8;13,875;1,8;0;0,99;105,683;-0,045;-1,077;11,674;0;0,998;29,628;-1,8;13,891;1,8;0;0,99;105,87;-0,046;-1,072;11,676;0;0,998;27,977;-1,798;13,915;1,798;0;0,99;105,251;-0,045;-1,073;11,71;0;0,998;26,597;;0,99;0,998;105,3815;27,60375
275;-1,818;13,936;1,818;0;0,992;99,472;-0,042;-1,142;11,877;0;0,998;24,059;-1,818;13,93;1,818;0;0,991;99,742;-0,042;-1,139;11,865;0;0,998;24,32;-1,822;13,936;1,822;0;0,991;100,536;-0,043;-1,138;11,852;0;0,998;24,797;-1,822;13,933;1,822;0;0,992;99,613;-0,042;-1,149;11,884;0;0,998;26,624;;0,9915;0,998;99,84075;24,95
276;-1,85;14,601;1,85;0;0,995;78,114;-0,034;-1,305;12,942;0;0,999;0,167;-1,853;14,609;1,853;0;0,995;78,712;-0,034;-1,306;12,943;0;0,999;1,516;-1,853;14,612;1,853;0;0,995;78,114;-0,034;-1,316;12,977;0;0,999;5,754;-1,851;14,618;1,851;0;0,995;78,33;-0,034;-1,312;12,977;0;0,999;5,4;;0,995;0,999;78,3175;3,20925
277;-1,814;14,177;1,814;0;0,992;99,42;-0,042;-1,137;12,117;0;0,998;23,636;-1,816;14,186;1,816;0;0,992;98,998;-0,042;-1,142;12,137;0;0,998;23,494;-1,815;14,193;1,815;0;0,992;98,816;-0,042;-1,141;12,142;0;0,998;22,254;-1,816;14,206;1,816;0;0,992;98,74;-0,042;-1,137;12,14;0;0,998;18,879;;0,992;0,998;98,9935;22,06575
278;-1,851;13,8;1,851;0;0,993;91,236;-0,037;-1,261;12,004;0;0,998;31,672;-1,848;13,799;1,848;0;0,993;91,37;-0,037;-1,25;11,979;0;0,998;28,498;-1,847;13,789;1,847;0;0,993;91,893;-0,037;-1,255;11,986;0;0,998;32,968;-1,85;13,789;1,85;0;0,993;93,933;-0,037;-1,254;11,976;0;0,998;38,676;;0,993;0,998;92,108;32,9535
279;-1,796;14,132;1,796;0;0,99;104,463;-0,045;-1,072;11,929;0;0,998;22,509;-1,799;14,116;1,799;0;0,991;103,743;-0,045;-1,083;11,937;0;0,998;23,352;-1,801;14,118;1,801;0;0,991;103,917;-0,045;-1,079;11,92;0;0,998;20,362;-1,799;14,121;1,799;0;0,99;104,36;-0,046;-1,072;11,908;0;0,998;19,735;;0,9905;0,998;104,12075;21,4895
281;-1,816;13,966;1,816;0;0,991;100,074;-0,043;-1,135;11,892;0;0,998;24,331;-1,815;13,973;1,815;0;0,991;99,996;-0,042;-1,141;11,922;0;0,998;27,981;-1,815;13,987;1,815;0;0,991;100,296;-0,042;-1,137;11,922;0;0,998;27,165;-1,814;13,98;1,814;0;0,991;100,061;-0,042;-1,141;11,931;0;0,998;28,602;;0,991;0,998;100,10675;27,01975
282;-1,809;14,055;1,809;0;0,991;104,624;-0,045;-1,097;11,888;0;0,998;30,16;-1,807;14,038;1,807;0;0,991;104,398;-0,044;-1,102;11,891;0;0,998;32,494;-1,806;14,008;1,806;0;0,991;103,643;-0,043;-1,112;11,897;0;0,998;34,779;-1,809;14,039;1,809;0;0,991;103,928;-0,044;-1,102;11,888;0;0,998;29,631;;0,991;0,998;104,14825;31,766
283;-1,793;13,982;1,793;0;0,99;106,076;-0,046;-1,057;11,742;0;0,998;24,101;-1,791;13,971;1,791;0;0,99;105,851;-0,046;-1,056;11,734;0;0,998;23,642;-1,792;13,973;1,792;0;0,99;106,32;-0,046;-1,057;11,736;0;0,998;26,068;-1,795;13,979;1,795;0;0,99;107,009;-0,046;-1,056;11,729;0;0,998;27,436;;0,99;0,998;106,314;25,31175
284;-1,792;13,94;1,792;0;0,993;89,592;-0,04;-1,156;12,006;0;0,999;-5,678;-1,824;13,835;1,824;0;0,992;95,218;-0,04;-1,177;11,866;0;0,998;20,134;-1,819;13,829;1,819;0;0,993;92,326;-0,038;-1,204;11,957;0;0,998;24,249;-1,826;13,842;1,826;0;0,992;96,337;-0,041;-1,174;11,857;0;0,998;22,565;;0,9925;0,99825;93,36825;15,3175
285;-1,805;14,304;1,805;0;0,992;95,604;-0,041;-1,15;12,308;0;0,999;16,481;-1,805;14,296;1,805;0;0,992;95,567;-0,041;-1,143;12,282;0;0,999;12,068;-1,809;14,298;1,809;0;0,992;95,937;-0,042;-1,144;12,274;0;0,999;12,189;-1,809;14,287;1,809;0;0,992;95,371;-0,041;-1,152;12,286;0;0,999;14,132;;0,992;0,999;95,61975;13,7175
286;-1,811;14,021;1,811;0;0,991;102,904;-0,044;-1,106;11,874;0;0,998;25,082;-1,811;14,02;1,811;0;0,991;103,008;-0,044;-1,102;11,863;0;0,998;23,641;-1,809;14,01;1,809;0;0,991;102,646;-0,044;-1,106;11,869;0;0,998;24,873;-1,813;14,037;1,813;0;0,991;104,013;-0,045;-1,093;11,846;0;0,998;22,381;;0,991;0,998;103,14275;23,99425
287;-1,727;13,428;1,727;0;0,985;123,562;-0,057;-0,823;10,675;0;0,998;28,871;-1,73;13,45;1,73;0;0,984;124,535;-0,057;-0,813;10,659;0;0,998;27,568;-1,732;13,464;1,732;0;0,984;125,257;-0,058;-0,807;10,651;0;0,998;28,163;-1,731;13,466;1,731;0;0,984;125,578;-0,058;-0,806;10,651;0;0,998;30,072;;0,98425;0,998;124,733;28,6685
288;-1,847;14,038;1,847;0;0,994;82,891;-0,035;-1,281;12,313;0;0,999;9,212;-1,85;14,048;1,85;0;0,994;83,508;-0,036;-1,278;12,308;0;0,999;8,97;-1,851;14,058;1,851;0;0,994;84,327;-0,036;-1,275;12,304;0;0,999;10,026;-1,854;14,07;1,854;0;0,994;85,852;-0,037;-1,265;12,278;0;0,999;9,224;;0,994;0,999;84,1445;9,358
289;-1,816;13,919;1,816;0;0,991;100,998;-0,043;-1,126;11,822;0;0,998;24,633;-1,814;13,923;1,814;0;0,991;101,685;-0,043;-1,124;11,822;0;0,998;27,478;-1,812;13,925;1,812;0;0,991;101,565;-0,043;-1,123;11,826;0;0,998;27,266;-1,809;13,903;1,809;0;0,991;100,437;-0,042;-1,13;11,837;0;0,998;27,477;;0,991;0,998;101,17125;26,7135
290;-1,815;13,983;1,815;0;0,991;100,03;-0,043;-1,135;11,911;0;0,998;24,566;-1,813;13,995;1,813;0;0,991;100,783;-0,043;-1,125;11,9;0;0,998;24,047;-1,811;14,002;1,811;0;0,991;101,247;-0,043;-1,122;11,904;0;0,998;25,808;-1,812;14,017;1,812;0;0,991;101,854;-0,044;-1,115;11,896;0;0,998;24,569;;0,991;0,998;100,9785;24,7475
291;-1,817;14,197;1,817;0;0,991;100,857;-0,043;-1,13;12,109;0;0,998;25,607;-1,815;14,197;1,815;0;0,991;100,94;-0,043;-1,129;12,11;0;0,998;26,3;-1,815;14,177;1,815;0;0,991;101,183;-0,043;-1,125;12,077;0;0,998;25,044;-1,814;14,154;1,814;0;0,991;100,127;-0,042;-1,136;12,092;0;0,998;26,756;;0,991;0,998;100,77675;25,92675
292;-1,798;14,159;1,798;0;0,991;101,819;-0,044;-1,088;11,999;0;0,999;15,993;-1,797;14,154;1,797;0;0,991;101,52;-0,044;-1,09;12,002;0;0,999;16,049;-1,798;14,165;1,798;0;0,991;102,224;-0,045;-1,084;11,992;0;0,999;15,744;-1,801;14,188;1,801;0;0,991;103,315;-0,045;-1,076;11,984;0;0,999;15,208;;0,991;0,999;102,2195;15,7485
294;-1,824;13,527;1,824;0;0,991;102,747;-0,043;-1,141;11,45;0;0,998;36,021;-1,822;13,522;1,822;0;0,991;102,612;-0,042;-1,143;11,456;0;0,998;37,11;-1,822;13,53;1,822;0;0,991;102,912;-0,043;-1,132;11,431;0;0,998;33,437;-1,823;13,534;1,823;0;0,991;103,173;-0,043;-1,129;11,421;0;0,998;32,393;;0,991;0,998;102,861;34,74025
295;-1,814;13,924;1,814;0;0,991;101,081;-0,043;-1,124;11,823;0;0,998;24,331;-1,813;13,926;1,813;0;0,991;101,178;-0,043;-1,121;11,821;0;0,998;24,027;-1,815;13,919;1,815;0;0,991;100,129;-0,043;-1,134;11,844;0;0,998;24,335;-1,816;13,911;1,816;0;0,992;99,391;-0,042;-1,14;11,855;0;0,998;24,129;;0,99125;0,998;100,44475;24,2055
296;-1,82;14,114;1,82;0;0,992;96,609;-0,041;-1,165;12,119;0;0,998;21,881;-1,819;14,11;1,819;0;0,992;96,607;-0,041;-1,163;12,113;0;0,998;21,447;-1,819;14,109;1,819;0;0,992;96,746;-0,041;-1,162;12,11;0;0,998;21,875;-1,818;14,107;1,818;0;0,992;96,537;-0,041;-1,162;12,11;0;0,998;21,166;;0,992;0,998;96,62475;21,59225
297;-1,83;13,862;1,83;0;0,992;99,095;-0,042;-1,165;11,838;0;0,998;28,576;-1,825;13,862;1,825;0;0,992;98,854;-0,041;-1,166;11,858;0;0,998;30,639;-1,823;13,88;1,823;0;0,992;99,595;-0,042;-1,153;11,839;0;0,998;27,943;-1,824;13,865;1,824;0;0,992;99,112;-0,041;-1,163;11,853;0;0,998;30,605;;0,992;0,998;99,164;29,44075
298;-1,798;14,338;1,798;0;0,991;101,247;-0,044;-1,092;12,189;0;0,999;15,206;-1,798;14,338;1,798;0;0,991;101,837;-0,045;-1,086;12,169;0;0,999;14,264;-1,798;14,337;1,798;0;0,991;101,785;-0,045;-1,086;12,171;0;0,999;14,434;-1,798;14,334;1,798;0;0,991;101,841;-0,045;-1,081;12,153;0;0,999;11,02;;0,991;0,999;101,6775;13,731
299;-1,809;13,939;1,809;0;0,991;100,441;-0,043;-1,117;11,835;0;0,998;20,137;-1,809;13,946;1,809;0;0,991;99,987;-0,043;-1,12;11,849;0;0,998;19,321;-1,811;13,942;1,811;0;0,991;100,549;-0,044;-1,115;11,823;0;0,999;17,779;-1,811;13,932;1,811;0;0,991;100,667;-0,044;-1,115;11,814;0;0,998;18,479;;0,991;0,99825;100,411;18,929
301;-1,79;13,988;1,79;0;0,99;106,405;-0,047;-1,046;11,723;0;0,998;20,975;-1,786;14,002;1,786;0;0,99;106,69;-0,047;-1,042;11,737;0;0,998;22,554;-1,785;14,004;1,785;0;0,99;106,405;-0,046;-1,046;11,754;0;0,998;23,935;-1,788;13,989;1,788;0;0,99;106,462;-0,046;-1,046;11,732;0;0,998;23,149;;0,99;0,998;106,4905;22,65325
302;-1,824;14,144;1,824;0;0,992;95,038;-0,04;-1,18;12,182;0;0,998;20,42;-1,826;14,134;1,826;0;0,992;95,039;-0,04;-1,184;12,18;0;0,998;22,031;-1,826;14,149;1,826;0;0,992;95,204;-0,04;-1,183;12,19;0;0,998;21,759;-1,827;14,153;1,827;0;0,992;95,276;-0,04;-1,185;12,198;0;0,998;22,874;;0,992;0,998;95,13925;21,771
303;-1,78;14,04;1,78;0;0,99;104,281;-0,045;-1,067;11,872;0;0,998;28,381;-1,779;14,04;1,779;0;0,99;104,034;-0,044;-1,071;11,886;0;0,998;29,611;-1,782;14,053;1,782;0;0,99;104,32;-0,045;-1,068;11,88;0;0,998;27,459;-1,782;14,035;1,782;0;0,99;103,392;-0,045;-1,064;11,85;0;0,998;20,171;;0,99;0,998;104,00675;26,4055
304;-1,807;14,138;1,807;0;0,991;101,361;-0,043;-1,113;12,025;0;0,998;23,46;-1,808;14,14;1,808;0;0,991;101,187;-0,044;-1,113;12,024;0;0,998;21,896;-1,804;14,125;1,804;0;0,991;101,393;-0,044;-1,107;12,002;0;0,998;21,747;-1,804;14,114;1,804;0;0,991;101,695;-0,044;-1,102;11,977;0;0,998;20,489;;0,991;0,998;101,409;21,898
305;-1,832;14,145;1,832;0;0,993;88,16;-0,038;-1,228;12,305;0;0,999;10,653;-1,824;14,149;1,824;0;0,993;89,463;-0,039;-1,207;12,271;0;0,999;9,022;-1,825;14,158;1,825;0;0,993;90,183;-0,039;-1,205;12,271;0;0,999;10,832;-1,828;14,161;1,828;0;0,993;90,251;-0,039;-1,209;12,278;0;0,999;12,274;;0,993;0,999;89,51425;10,69525
306;-1,831;14,015;1,831;0;0,992;95,601;-0,04;-1,187;12,054;0;0,998;23,333;-1,827;14,035;1,827;0;0,992;94,893;-0,04;-1,186;12,084;0;0,998;21,89;-1,826;14,073;1,826;0;0,992;94,883;-0,04;-1,182;12,114;0;0,998;20,146;-1,83;14,08;1,83;0;0,993;94,169;-0,04;-1,192;12,137;0;0,998;19,741;;0,99225;0,998;94,8865;21,2775
307;-1,813;13,886;1,813;0;0,991;100,395;-0,043;-1,127;11,8;0;0,998;23,746;-1,814;13,877;1,814;0;0,991;100,512;-0,043;-1,129;11,793;0;0,998;24,627;-1,815;13,887;1,815;0;0,991;100,834;-0,043;-1,126;11,791;0;0,998;24,006;-1,815;13,867;1,815;0;0,991;100,365;-0,043;-1,133;11,791;0;0,998;25,398;;0,991;0,998;100,5265;24,44425
308;-1,804;14,012;1,804;0;0,99;105,23;-0,045;-1,09;11,839;0;0,998;32,102;-1,803;14,015;1,803;0;0,99;105,039;-0,045;-1,083;11,825;0;0,998;28,282;-1,802;14,022;1,802;0;0,99;105,337;-0,045;-1,077;11,816;0;0,998;26,778;-1,803;14,021;1,803;0;0,99;105,928;-0,045;-1,079;11,817;0;0,998;30,281;;0,99;0,998;105,3835;29,36075
309;-1,827;14,207;1,827;0;0,992;99,494;-0,042;-1,162;12,182;0;0,998;30,113;-1,828;14,236;1,828;0;0,992;99,55;-0,042;-1,163;12,212;0;0,998;30,511;-1,823;14,235;1,823;0;0,992;99,235;-0,042;-1,159;12,216;0;0,998;29,84;-1,819;14,225;1,819;0;0,992;98,957;-0,041;-1,158;12,215;0;0,998;30,191;;0,992;0,998;99,309;30,16375
310;-1,811;13,999;1,811;0;0,991;100,276;-0,043;-1,126;11,912;0;0,998;22,905;-1,81;13,996;1,81;0;0,991;100,195;-0,043;-1,126;11,915;0;0,998;23,539;-1,808;14,003;1,808;0;0,991;100,764;-0,043;-1,123;11,917;0;0,998;25,535;-1,806;14,013;1,806;0;0,991;100,697;-0,043;-1,119;11,921;0;0,998;24,101;;0,991;0,998;100,483;24,02
312;-1,825;14,319;1,825;0;0,993;93,606;-0,039;-1,208;12,441;0;0,998;28,626;-1,825;14,31;1,825;0;0,993;93,508;-0,039;-1,208;12,432;0;0,998;28,082;-1,824;14,31;1,824;0;0,993;92,748;-0,039;-1,206;12,43;0;0,998;24,642;-1,824;14,304;1,824;0;0,993;93,153;-0,039;-1,201;12,408;0;0,998;23,75;;0,993;0,998;93,25375;26,275
313;-1,812;14,008;1,812;0;0,991;101,362;-0,042;-1,136;11,951;0;0,998;33,186;-1,812;14,014;1,812;0;0,991;101,771;-0,043;-1,125;11,92;0;0,998;29,071;-1,811;14,005;1,811;0;0,991;101,217;-0,043;-1,13;11,934;0;0,998;30,2;-1,812;14,01;1,812;0;0,991;101,875;-0,043;-1,13;11,934;0;0,998;32,475;;0,991;0,998;101,55625;31,233
314;-1,809;14,097;1,809;0;0,991;103,006;-0,043;-1,125;12,015;0;0,998;36,416;-1,808;14,086;1,808;0;0,991;103,297;-0,044;-1,11;11,961;0;0,998;31,029;-1,806;14,063;1,806;0;0,991;104,068;-0,044;-1,1;11,914;0;0,998;30,586;-1,804;14,043;1,804;0;0,99;104,373;-0,043;-1,111;11,936;0;0,998;38,486;;0,99075;0,998;103,686;34,12925
315;-1,831;13,908;1,831;0;0,993;93,566;-0,04;-1,198;11,984;0;0,998;20,484;-1,833;13,927;1,833;0;0,992;94,492;-0,04;-1,193;11,978;0;0,998;20,267;-1,831;13,889;1,831;0;0,992;95,543;-0,041;-1,183;11,918;0;0,998;21,163;-1,83;13,885;1,83;0;0,992;95,599;-0,04;-1,185;11,921;0;0,998;22,672;;0,99225;0,998;94,8;21,1465
316;-1,824;14,258;1,824;0;0,993;92,335;-0,039;-1,194;12,34;0;0,999;15,692;-1,822;14,234;1,822;0;0,993;91,75;-0,039;-1,203;12,351;0;0,998;19,773;-1,824;14,242;1,824;0;0,993;92,114;-0,039;-1,195;12,325;0;0,999;14,818;-1,825;14,239;1,825;0;0,993;92,361;-0,04;-1,189;12,304;0;0,999;11,905;;0,993;0,99875;92,14;15,547
317;-1,82;13,943;1,82;0;0,992;95,685;-0,04;-1,177;11,984;0;0,998;24,161;-1,82;13,923;1,82;0;0,992;95,925;-0,041;-1,172;11,953;0;0,998;23,293;-1,821;13,932;1,821;0;0,992;96,149;-0,041;-1,167;11,942;0;0,998;20,605;-1,821;13,925;1,821;0;0,992;96,13;-0,041;-1,171;11,945;0;0,998;22,439;;0,992;0,998;95,97225;22,6245
318;-1,839;13,752;1,839;0;0,993;92,344;-0,038;-1,227;11,889;0;0,998;25,894;-1,84;13,757;1,84;0;0,993;92,762;-0,039;-1,224;11,883;0;0,998;25,679;-1,838;13,756;1,838;0;0,993;92,346;-0,038;-1,227;11,899;0;0,998;26,751;-1,84;13,76;1,84;0;0,993;92,353;-0,038;-1,229;11,9;0;0,998;26,332;;0,993;0,998;92,45125;26,164
319;-1,806;13,91;1,806;0;0,991;100,476;-0,043;-1,116;11,81;0;0,998;21,437;-1,809;13,934;1,809;0;0,991;101,195;-0,044;-1,109;11,804;0;0,998;18,951;-1,807;13,923;1,807;0;0,991;100,971;-0,044;-1,111;11,803;0;0,998;20,103;-1,807;13,902;1,807;0;0,991;100,643;-0,043;-1,12;11,812;0;0,998;24,126;;0,991;0,998;100,82125;21,15425
320;-1,842;14,183;1,842;0;0,993;89,877;-0,037;-1,244;12,361;0;0,998;22,191;-1,841;14,157;1,841;0;0,993;89,968;-0,037;-1,242;12,335;0;0,998;22,603;-1,84;14,134;1,84;0;0,993;90,293;-0,038;-1,238;12,302;0;0,998;22,248;-1,841;14,143;1,841;0;0,993;90,736;-0,038;-1,233;12,292;0;0,998;20,749;;0,993;0,998;90,2185;21,94775
321;-1,797;13,892;1,797;0;0,991;103,306;-0,045;-1,083;11,719;0;0,998;22,28;-1,798;13,884;1,798;0;0,991;103,461;-0,045;-1,084;11,711;0;0,998;22,96;-1,796;13,875;1,796;0;0,991;103,805;-0,045;-1,074;11,68;0;0,998;20,29;-1,795;13,88;1,795;0;0,99;104,347;-0,046;-1,066;11,66;0;0,998;18,215;;0,99075;0,998;103,72975;20,93625
322;-1,835;14,142;1,835;0;0,993;88,931;-0,038;-1,232;12,308;0;0,999;15,728;-1,837;14,144;1,837;0;0,993;88,674;-0,038;-1,235;12,311;0;0,999;14,809;-1,841;14,154;1,841;0;0,993;89,016;-0,038;-1,233;12,305;0;0,999;13,126;-1,844;14,172;1,844;0;0,994;87,903;-0,037;-1,247;12,356;0;0,999;14,561;;0,99325;0,999;88,631;14,556
323;-1,811;14,087;1,811;0;0,991;101,5;-0,043;-1,118;11,98;0;0,998;25,359;-1,814;14,102;1,814;0;0,991;103,146;-0,044;-1,107;11,95;0;0,998;25,464;-1,812;14,087;1,812;0;0,991;101,761;-0,044;-1,116;11,97;0;0,998;24,754;-1,81;14,072;1,81;0;0,991;101,221;-0,043;-1,121;11,975;0;0,998;25,806;;0,991;0,998;101,907;25,34575
324;-1,778;14,073;1,778;0;0,989;108,011;-0,048;-1,016;11,753;0;0,998;18,755;-1,78;14,069;1,78;0;0,99;107,744;-0,048;-1,017;11,748;0;0,999;16,533;-1,78;14,056;1,78;0;0,99;107,212;-0,047;-1,026;11,76;0;0,998;18,856;-1,782;14,053;1,782;0;0,99;107,173;-0,047;-1,031;11,766;0;0,998;20,693;;0,98975;0,99825;107,535;18,70925
325;-1,81;13,955;1,81;0;0,991;99,349;-0,042;-1,132;11,891;0;0,998;22,588;-1,812;13,962;1,812;0;0,991;100,462;-0,043;-1,122;11,863;0;0,998;21,459;-1,812;13,954;1,812;0;0,991;99,875;-0,043;-1,126;11,867;0;0,998;20,795;-1,81;13,963;1,81;0;0,991;100,129;-0,043;-1,121;11,866;0;0,998;20,021;;0,991;0,998;99,95375;21,21575
326;-1,821;14,063;1,821;0;0,993;93,085;-0,04;-1,187;12,134;0;0,999;17,23;-1,818;14,055;1,818;0;0,992;94,207;-0,04;-1,173;12,092;0;0,999;15,956;-1,818;14,054;1,818;0;0,992;94,164;-0,04;-1,174;12,092;0;0,999;15,849;-1,819;14,036;1,819;0;0,992;93,94;-0,04;-1,177;12,083;0;0,999;16,736;;0,99225;0,999;93,849;16,44275
327;-1,796;14,058;1,796;0;0,99;107,435;-0,047;-1,052;11,794;0;0,998;27,177;-1,793;14,047;1,793;0;0,99;106,58;-0,046;-1,063;11,825;0;0,998;30,238;-1,793;14,041;1,793;0;0,99;106,433;-0,046;-1,062;11,815;0;0,998;28,854;-1,79;14,022;1,79;0;0,99;106,024;-0,045;-1,071;11,833;0;0,998;33,2;;0,99;0,998;106,618;29,86725
328;-1,793;13,88;1,793;0;0,99;106,774;-0,046;-1,05;11,622;0;0,998;24,509;-1,793;13,872;1,793;0;0,99;106,461;-0,046;-1,052;11,617;0;0,998;23,409;-1,792;13,878;1,792;0;0,99;107,264;-0,047;-1,043;11,597;0;0,998;22,637;-1,79;13,876;1,79;0;0,99;106,998;-0,047;-1,044;11,606;0;0,998;23,307;;0,99;0,998;106,87425;23,4655
329;-1,813;14,418;1,813;0;0,992;96,123;-0,041;-1,152;12,406;0;0,999;15,949;-1,816;14,413;1,816;0;0,992;96,153;-0,041;-1,154;12,4;0;0,999;15,806;-1,817;14,404;1,817;0;0,992;95,996;-0,041;-1,157;12,395;0;0,999;15,777;-1,817;14,403;1,817;0;0,992;96,271;-0,041;-1,154;12,385;0;0,999;15,469;;0,992;0,999;96,13575;15,75025
330;-1,817;14,13;1,817;0;0,992;95,995;-0,041;-1,16;12,128;0;0,999;17,415;-1,817;14,096;1,817;0;0,992;96,495;-0,042;-1,152;12,072;0;0,999;15,27;-1,815;14,058;1,815;0;0,992;97,006;-0,042;-1,147;12,025;0;0,999;16,449;-1,814;14,069;1,814;0;0,992;96,762;-0,042;-1,149;12,045;0;0,999;16,866;;0,992;0,999;96,5645;16,5
331;-1,82;14,136;1,82;0;0,992;93,78;-0,04;-1,177;12,179;0;0,999;14,905;-1,819;14,136;1,819;0;0,992;94,088;-0,04;-1,172;12,168;0;0,999;14,395;-1,822;14,134;1,822;0;0,992;94,159;-0,041;-1,174;12,163;0;0,999;13,935;-1,822;14,13;1,822;0;0,992;94,309;-0,04;-1,176;12,163;0;0,999;15,62;;0,992;0,999;94,084;14,71375
332;-1,864;13,959;1,864;0;0,995;77,552;-0,034;-1,328;12,353;0;0,999;13,226;-1,864;13,877;1,864;0;0,995;77,335;-0,035;-1,323;12,266;0;0,999;10,826;-1,864;13,952;1,864;0;0,994;78,823;-0,035;-1,319;12,321;0;0,999;14,123;-1,86;14,08;1,86;0;0,994;80,261;-0,035;-1,311;12,423;0;0,999;14,374;;0,9945;0,999;78,49275;13,13725
333;-1,793;14,009;1,793;0;0,99;103,903;-0,046;-1,064;11,79;0;0,999;15,663;-1,794;14,018;1,794;0;0,99;104,576;-0,046;-1,062;11,789;0;0,998;17,53;-1,792;14,005;1,792;0;0,99;104,048;-0,045;-1,065;11,795;0;0,998;18,57;-1,793;14,007;1,793;0;0,99;104,414;-0,046;-1,061;11,779;0;0,999;16,835;;0,99;0,9985;104,23525;17,1495
334;-1,822;14,029;1,822;0;0,992;95,743;-0,041;-1,173;12,056;0;0,998;21,757;-1,823;14,043;1,823;0;0,992;96,423;-0,041;-1,169;12,05;0;0,998;21,514;-1,822;14,041;1,822;0;0,992;96,545;-0,041;-1,169;12,054;0;0,998;23,022;-1,823;14,038;1,823;0;0,992;96,269;-0,041;-1,171;12,052;0;0,998;22,02;;0,992;0,998;96,245;22,07825
336;-1,798;13,938;1,798;0;0,99;105,353;-0,045;-1,082;11,758;0;0,998;31,422;-1,798;13,944;1,798;0;0,99;105,496;-0,045;-1,078;11,751;0;0,998;29,872;-1,798;13,936;1,798;0;0,99;105,06;-0,045;-1,079;11,749;0;0,998;28,951;-1,797;13,929;1,797;0;0,99;104,786;-0,045;-1,084;11,76;0;0,998;30,591;;0,99;0,998;105,17375;30,209
337;-1,805;14,116;1,805;0;0,991;100,992;-0,044;-1,107;11,991;0;0,998;19,151;-1,802;14,119;1,802;0;0,991;100,466;-0,043;-1,111;12,017;0;0,998;20,792;-1,802;14,128;1,802;0;0,991;99,902;-0,043;-1,119;12,05;0;0,998;22,599;-1,803;14,138;1,803;0;0,991;99,954;-0,043;-1,12;12,058;0;0,998;22,5;;0,991;0,998;100,3285;21,2605
338;-1,813;14,151;1,813;0;0,992;96,605;-0,042;-1,148;12,126;0;0,999;15,694;-1,81;14,128;1,81;0;0,992;96,16;-0,041;-1,152;12,126;0;0,998;18,341;-1,811;14,133;1,811;0;0,992;96,945;-0,042;-1,146;12,11;0;0,999;18,015;-1,815;14,147;1,815;0;0,992;96,818;-0,042;-1,149;12,122;0;0,999;16,979;;0,992;0,99875;96,632;17,25725
339;-1,827;13,966;1,827;0;0,992;98,758;-0,042;-1,159;11,932;0;0,998;25,121;-1,825;13,94;1,825;0;0,992;97,766;-0,041;-1,17;11,945;0;0,998;27,469;-1,823;13,926;1,823;0;0,992;97,275;-0,041;-1,176;11,956;0;0,998;29,286;-1,824;13,948;1,824;0;0,992;99,472;-0,041;-1,167;11,948;0;0,998;33,944;;0,992;0,998;98,31775;28,955
340;-1,83;13,899;1,83;0;0,993;94,201;-0,039;-1,201;11,983;0;0,998;24,861;-1,834;13,912;1,834;0;0,992;95,257;-0,04;-1,194;11,964;0;0,998;23,975;-1,833;13,901;1,833;0;0,993;94,417;-0,039;-1,204;11,985;0;0,998;25,901;-1,833;13,898;1,833;0;0,993;93,896;-0,04;-1,2;11,971;0;0,998;21,634;;0,99275;0,998;94,44275;24,09275
341;-1,841;13,99;1,841;0;0,993;88,758;-0,037;-1,244;12,174;0;0,999;18,257;-1,842;14,006;1,842;0;0,993;89,244;-0,038;-1,241;12,175;0;0,999;17,936;-1,843;14,013;1,843;0;0,993;89,821;-0,038;-1,241;12,182;0;0,998;20,427;-1,842;14,011;1,842;0;0,993;89,573;-0,037;-1,244;12,192;0;0,998;21,462;;0,993;0,9985;89,349;19,5205
342;-1,787;14,211;1,787;0;0,991;102,972;-0,044;-1,08;12,058;0;0,998;24,238;-1,788;14,21;1,788;0;0,99;103,544;-0,044;-1,083;12,064;0;0,998;28,597;-1,788;14,205;1,788;0;0,991;103,242;-0,044;-1,078;12,044;0;0,998;24,127;-1,789;14,208;1,789;0;0,991;103,345;-0,045;-1,07;12,02;0;0,998;19,253;;0,99075;0,998;103,27575;24,05375
343;-1,83;13,825;1,83;0;0,992;95,925;-0,041;-1,182;11,853;0;0,998;22,879;-1,83;13,839;1,83;0;0,992;96,395;-0,041;-1,181;11,863;0;0,998;24,322;-1,828;13,838;1,828;0;0,992;96,428;-0,04;-1,183;11,878;0;0,998;27,133;-1,829;13,862;1,829;0;0,992;97,405;-0,041;-1,175;11,87;0;0,998;26,188;;0,992;0,998;96,53825;25,1305
344;-1,807;13,968;1,807;0;0,991;101,635;-0,043;-1,116;11,865;0;0,998;26,829;-1,808;13,961;1,808;0;0,991;101,912;-0,044;-1,113;11,846;0;0,998;25,939;-1,808;13,951;1,808;0;0,991;101,954;-0,044;-1,11;11,827;0;0,998;24,525;-1,808;13,944;1,808;0;0,991;101,729;-0,043;-1,114;11,832;0;0,998;25,541;;0,991;0,998;101,8075;25,7085
345;-1,792;14,1;1,792;0;0,99;108,457;-0,047;-1,038;11,806;0;0,998;27,068;-1,793;14,09;1,793;0;0,99;108,54;-0,047;-1,036;11,786;0;0,998;25,557;-1,793;14,079;1,793;0;0,99;108,326;-0,047;-1,038;11,783;0;0,998;25,89;-1,793;14,07;1,793;0;0,99;108,174;-0,047;-1,041;11,782;0;0,998;26,592;;0,99;0,998;108,37425;26,27675
347;-1,807;13,855;1,807;0;0,991;103,393;-0,044;-1,102;11,709;0;0,998;27,719;-1,804;13,85;1,804;0;0,991;103,234;-0,044;-1,102;11,712;0;0,998;28,377;-1,807;13,858;1,807;0;0,991;104,118;-0,044;-1,098;11,7;0;0,998;29,436;-1,806;13,861;1,806;0;0,991;104,273;-0,044;-1,096;11,699;0;0,998;29,372;;0,991;0,998;103,7545;28,726
348;-1,813;14,023;1,813;0;0,991;104,223;-0,045;-1,097;11,843;0;0,998;25,945;-1,812;14,005;1,812;0;0,991;103,825;-0,045;-1,101;11,841;0;0,998;26,706;-1,811;13,965;1,811;0;0,991;103,552;-0,044;-1,102;11,806;0;0,998;26,291;-1,811;13,937;1,811;0;0,991;103,315;-0,044;-1,106;11,793;0;0,998;27,639;;0,991;0,998;103,72875;26,64525
349;-1,81;13,721;1,81;0;0,99;108,352;-0,044;-1,114;11,606;0;0,997;52,144;-1,81;13,735;1,81;0;0,99;105,679;-0,044;-1,103;11,585;0;0,998;37,829;-1,807;13,736;1,807;0;0,99;105,262;-0,044;-1,097;11,574;0;0,998;34,036;-1,808;13,735;1,808;0;0,99;105,419;-0,045;-1,094;11,561;0;0,998;32,853;;0,99;0,99775;106,178;39,2155
350;-1,801;13,671;1,801;0;0,99;106,071;-0,045;-1,078;11,471;0;0,998;31,546;-1,808;13,636;1,808;0;0,99;106,424;-0,045;-1,085;11,438;0;0,998;33,656;-1,809;13,665;1,809;0;0,99;106,634;-0,046;-1,08;11,446;0;0,998;31,167;-1,807;13,664;1,807;0;0,99;106,402;-0,045;-1,083;11,463;0;0,998;33,061;;0,99;0,998;106,38275;32,3575
351;-1,841;14,283;1,841;0;0,994;82,358;-0,036;-1,273;12,555;0;0,999;5,95;-1,838;14,232;1,838;0;0,994;82,683;-0,036;-1,267;12,495;0;0,999;5,319;-1,838;14,232;1,838;0;0,994;83,705;-0,036;-1,258;12,466;0;0,999;3,892;-1,833;14,213;1,833;0;0,994;83,576;-0,036;-1,257;12,458;0;0,999;5,829;;0,994;0,999;83,0805;5,2475
352;-1,809;13,947;1,809;0;0,991;100,16;-0,043;-1,127;11,873;0;0,998;24,697;-1,81;13,959;1,81;0;0,991;100,823;-0,043;-1,121;11,863;0;0,998;23,983;-1,811;13,967;1,811;0;0,991;101,777;-0,044;-1,115;11,848;0;0,998;24,558;-1,811;13,965;1,811;0;0,991;101,651;-0,043;-1,118;11,858;0;0,998;26,019;;0,991;0,998;101,10275;24,81425
353;-1,835;14,038;1,835;0;0,993;92,51;-0,039;-1,215;12,151;0;0,998;22,355;-1,833;14,042;1,833;0;0,993;93,501;-0,039;-1,212;12,151;0;0,998;26,075;-1,831;14,037;1,831;0;0,993;93,066;-0,039;-1,207;12,137;0;0,998;22,528;-1,835;14,014;1,835;0;0,993;92,655;-0,039;-1,215;12,128;0;0,998;23,332;;0,993;0,998;92,933;23,5725
354;-1,797;14,01;1,797;0;0,99;105,018;-0,045;-1,073;11,805;0;0,998;25,208;-1,796;14,026;1,796;0;0,99;105,375;-0,046;-1,068;11,808;0;0,998;24,69;-1,794;14,02;1,794;0;0,99;105,229;-0,045;-1,072;11,823;0;0,998;27,817;-1,794;14,017;1,794;0;0,99;104,942;-0,045;-1,075;11,83;0;0,998;28,149;;0,99;0,998;105,141;26,466
355;-1,838;13,975;1,838;0;0,993;94,452;-0,04;-1,204;12,045;0;0,998;23,41;-1,835;13,958;1,835;0;0,993;93,598;-0,039;-1,209;12,055;0;0,998;24,458;-1,837;13,964;1,837;0;0,993;94,111;-0,04;-1,206;12,043;0;0,998;23,672;-1,839;13,966;1,839;0;0,993;94,349;-0,04;-1,205;12,037;0;0,998;23,354;;0,993;0,998;94,1275;23,7235
356;-1,84;14,141;1,84;0;0,993;90,785;-0,038;-1,241;12,317;0;0,998;25,681;-1,842;14,16;1,842;0;0,993;89,132;-0,037;-1,248;12,351;0;0,998;21,331;-1,842;14,188;1,842;0;0,993;89,277;-0,038;-1,24;12,358;0;0,999;18,045;-1,84;14,174;1,84;0;0,993;90,783;-0,038;-1,231;12,321;0;0,998;20,862;;0,993;0,99825;89,99425;21,47975
357;-1,815;14,299;1,815;0;0,992;98,185;-0,042;-1,145;12,259;0;0,998;21,213;-1,817;14,291;1,817;0;0,992;97,948;-0,042;-1,149;12,258;0;0,998;21,29;-1,816;14,279;1,816;0;0,992;97,852;-0,042;-1,15;12,251;0;0,998;21,698;-1,817;14,287;1,817;0;0,992;98,347;-0,042;-1,142;12,233;0;0,998;19,123;;0,992;0,998;98,083;20,831
358;-1,808;13,874;1,808;0;0,99;108,494;-0,045;-1,093;11,699;0;0,997;45,787;-1,807;13,86;1,807;0;0,99;106,681;-0,045;-1,095;11,693;0;0,998;39,46;-1,804;13,846;1,804;0;0,99;105,604;-0,044;-1,098;11,698;0;0,998;37,625;-1,8;13,839;1,8;0;0,99;105,535;-0,044;-1,101;11,711;0;0,998;40,211;;0,99;0,99775;106,5785;40,77075
359;-1,821;14,004;1,821;0;0,992;97,442;-0,041;-1,159;11,991;0;0,998;22,582;-1,821;14,003;1,821;0;0,992;97,867;-0,042;-1,153;11,971;0;0,998;21,202;-1,82;14;1,82;0;0,992;97,463;-0,041;-1,158;11,984;0;0,998;22,088;-1,823;14,002;1,823;0;0,992;97,468;-0,041;-1,164;11,996;0;0,998;24,147;;0,992;0,998;97,56;22,50475
360;-1,771;13,83;1,771;0;0,989;110,917;-0,048;-1,002;11,491;0;0,998;32,123;-1,77;13,825;1,77;0;0,989;110,761;-0,048;-1;11,479;0;0,998;30,082;-1,772;13,835;1,772;0;0,988;112,178;-0,049;-0,993;11,463;0;0,998;33,076;-1,771;13,829;1,771;0;0,988;112,893;-0,049;-0,99;11,45;0;0,998;35,651;;0,9885;0,998;111,68725;32,733
361;-1,799;13,984;1,799;0;0,99;104,238;-0,045;-1,087;11,818;0;0,998;28,402;-1,799;13,989;1,799;0;0,99;104,537;-0,045;-1,08;11,801;0;0,998;26,017;-1,798;13,992;1,798;0;0,99;104,552;-0,045;-1,079;11,802;0;0,998;25,552;-1,797;13,986;1,797;0;0,99;104,351;-0,045;-1,083;11,813;0;0,998;27,793;;0,99;0,998;104,4195;26,941
362;-1,832;13,853;1,832;0;0,992;94,44;-0,04;-1,201;11,93;0;0,998;24,883;-1,833;13,859;1,833;0;0,992;94,494;-0,039;-1,203;11,941;0;0,998;25,876;-1,834;13,863;1,834;0;0,993;94,37;-0,04;-1,202;11,941;0;0,998;24,578;-1,834;13,857;1,834;0;0,993;94,141;-0,039;-1,203;11,937;0;0,998;23,987;;0,9925;0,998;94,36125;24,831
363;-1,819;14,047;1,819;0;0,992;97,438;-0,042;-1,153;12,02;0;0,998;19,879;-1,816;14,05;1,816;0;0,992;97,847;-0,041;-1,156;12,039;0;0,998;25,06;-1,817;14,042;1,817;0;0,992;97,308;-0,041;-1,159;12,04;0;0,998;24,06;-1,817;14,033;1,817;0;0,992;97,05;-0,041;-1,159;12,031;0;0,998;22,743;;0,992;0,998;97,41075;22,9355
364;-1,811;13,992;1,811;0;0,991;100,305;-0,043;-1,125;11,902;0;0,998;22,421;-1,809;13,967;1,809;0;0,991;100,128;-0,043;-1,128;11,895;0;0,998;24,815;-1,809;13,957;1,809;0;0,991;100,245;-0,043;-1,125;11,875;0;0,998;23,653;-1,812;13,983;1,812;0;0,991;101,328;-0,044;-1,112;11,852;0;0,998;19,638;;0,991;0,998;100,5015;22,63175
365;-1,874;14,258;1,874;0;0,995;75,978;-0,032;-1,362;12,713;0;0,999;16,462;-1,876;14,184;1,876;0;0,995;75,916;-0,033;-1,363;12,644;0;0,999;17,5;-1,877;14,467;1,877;0;0,995;72,71;-0,031;-1,388;12,982;0;0,999;13,123;-1,88;14,648;1,88;0;0,995;73,446;-0,031;-1,389;13,154;0;0,999;13,503;;0,995;0,999;74,5125;15,147
366;-1,807;13,942;1,807;0;0,991;100,712;-0,043;-1,119;11,847;0;0,998;23,658;-1,808;13,94;1,808;0;0,991;100,671;-0,043;-1,119;11,844;0;0,998;23,144;-1,809;13,938;1,809;0;0,991;100,894;-0,043;-1,119;11,839;0;0,998;23,817;-1,808;13,953;1,808;0;0,991;101,111;-0,043;-1,117;11,849;0;0,998;24,014;;0,991;0,998;100,847;23,65825
367;-1,786;14,092;1,786;0;0,99;106,02;-0,046;-1,052;11,857;0;0,998;24,746;-1,784;14,087;1,784;0;0,99;106,047;-0,046;-1,046;11,843;0;0,998;23,273;-1,782;14,076;1,782;0;0,99;105,973;-0,046;-1,041;11,823;0;0,998;20,758;-1,785;14,077;1,785;0;0,99;106,566;-0,047;-1,038;11,805;0;0,998;20,198;;0,99;0,998;106,1515;22,24375
368;-1,798;13,78;1,798;0;0,99;104,606;-0,045;-1,076;11,583;0;0,998;24,453;-1,799;13,793;1,799;0;0,99;105,642;-0,045;-1,073;11,583;0;0,998;27,666;-1,797;13,776;1,797;0;0,99;105,176;-0,045;-1,074;11,575;0;0,998;26,855;-1,796;13,77;1,796;0;0,99;105,042;-0,045;-1,074;11,573;0;0,998;27,038;;0,99;0,998;105,1165;26,503
369;-1,81;13,676;1,81;0;0,991;104,063;-0,044;-1,103;11,523;0;0,998;29,89;-1,809;13,701;1,809;0;0,991;104,248;-0,044;-1,098;11,539;0;0,998;29,234;-1,808;13,686;1,808;0;0,991;103,895;-0,044;-1,105;11,548;0;0,998;31,677;-1,809;13,671;1,809;0;0,991;103,829;-0,044;-1,108;11,538;0;0,998;32,063;;0,991;0,998;104,00875;30,716
370;-1,807;14,241;1,807;0;0,991;103,932;-0,045;-1,084;12,042;0;0,998;20,121;-1,802;14,211;1,802;0;0,991;103,032;-0,045;-1,089;12,039;0;0,998;20,694;-1,801;14,186;1,801;0;0,991;103,617;-0,045;-1,089;12,02;0;0,998;25,21;-1,799;14,166;1,799;0;0,99;104,812;-0,045;-1,088;11,999;0;0,998;31,216;;0,99075;0,998;103,84825;24,31025
371;-1,814;13,868;1,814;0;0,991;101,112;-0,042;-1,137;11,807;0;0,998;31,495;-1,815;13,864;1,815;0;0,991;101,176;-0,043;-1,126;11,769;0;0,998;25,919;-1,814;13,874;1,814;0;0,991;101,094;-0,043;-1,122;11,769;0;0,998;23,574;-1,81;13,834;1,81;0;0,991;100,269;-0,043;-1,128;11,759;0;0,998;25,103;;0,991;0,998;100,91275;26,52275
372;-1,796;13,799;1,796;0;0,99;107,994;-0,046;-1,061;11,561;0;0,998;34,598;-1,798;13,802;1,798;0;0,989;108,905;-0,046;-1,06;11,557;0;0,998;37,877;-1,799;13,819;1,799;0;0,989;109,69;-0,046;-1,057;11,559;0;0,998;39,114;-1,796;13,785;1,796;0;0,99;107,443;-0,046;-1,068;11,569;0;0,998;35,58;;0,9895;0,998;108,508;36,79225
373;-1,834;14,409;1,834;0;0,993;89,385;-0,038;-1,23;12,571;0;0,999;17,154;-1,837;14,429;1,837;0;0,993;89,454;-0,038;-1,228;12,578;0;0,999;14,888;-1,836;14,439;1,836;0;0,993;88,728;-0,038;-1,233;12,605;0;0,999;14,697;-1,838;14,457;1,838;0;0,993;88,641;-0,038;-1,235;12,621;0;0,999;13,912;;0,993;0,999;89,052;15,16275
374;-1,816;14,005;1,816;0;0,991;100,646;-0,043;-1,134;11,932;0;0,998;27,264;-1,819;13,994;1,819;0;0,991;101,006;-0,043;-1,138;11,92;0;0,998;28,965;-1,818;13,993;1,818;0;0,991;101,012;-0,042;-1,142;11,933;0;0,998;31,156;-1,82;13,996;1,82;0;0,991;101,762;-0,042;-1,143;11,934;0;0,998;34,194;;0,991;0,998;101,1065;30,39475
375;-1,804;14,11;1,804;0;0,991;99,71;-0,043;-1,116;12,016;0;0,998;18,378;-1,804;14,102;1,804;0;0,991;99,694;-0,043;-1,116;12,01;0;0,998;18,636;-1,805;14,1;1,805;0;0,991;100,139;-0,043;-1,114;11,995;0;0,998;18,445;-1,807;14,084;1,807;0;0,991;100,206;-0,043;-1,117;11,983;0;0,998;19,695;;0,991;0,998;99,93725;18,7885
376;-1,811;13,911;1,811;0;0,991;102,393;-0,044;-1,112;11,782;0;0,998;25,976;-1,81;13,901;1,81;0;0,991;102,17;-0,043;-1,117;11,794;0;0,998;28,691;-1,811;13,896;1,811;0;0,991;102,319;-0,043;-1,12;11,791;0;0,998;29,849;-1,811;13,886;1,811;0;0,991;101,923;-0,043;-1,122;11,788;0;0,998;29,146;;0,991;0,998;102,20125;28,4155
377;-1,837;13,941;1,837;0;0,993;92,76;-0,039;-1,218;12,055;0;0,998;23,689;-1,832;13,971;1,832;0;0,993;94,231;-0,04;-1,199;12,044;0;0,998;23,084;-1,827;14,006;1,827;0;0,992;94,908;-0,04;-1,187;12,059;0;0,998;22,535;-1,828;13,995;1,828;0;0,992;95,002;-0,04;-1,187;12,043;0;0,998;22,163;;0,9925;0,998;94,22525;22,86775
378;-1,816;14,054;1,816;0;0,992;98,682;-0,042;-1,143;12,005;0;0,998;22,005;-1,81;14,034;1,81;0;0,992;98,842;-0,042;-1,142;12;0;0,998;25,606;-1,812;14,04;1,812;0;0,991;99,446;-0,043;-1,131;11,967;0;0,998;21,32;-1,809;14,023;1,809;0;0,992;98,765;-0,042;-1,136;11,973;0;0,998;22,169;;0,99175;0,998;98,93375;22,775
379;-1,799;14,278;1,799;0;0,991;100,515;-0,044;-1,103;12,16;0;0,998;17,717;-1,799;14,265;1,799;0;0,991;100,346;-0,043;-1,106;12,158;0;0,998;19,141;-1,801;14,261;1,801;0;0,991;100,611;-0,043;-1,107;12,15;0;0,998;19,912;-1,802;14,262;1,802;0;0,991;100,621;-0,043;-1,111;12,159;0;0,998;21,67;;0,991;0,998;100,52325;19,61
380;-1,739;13,159;1,739;0;0,985;124,471;-0,056;-0,845;10,439;0;0,997;41,456;-1,738;13,153;1,738;0;0,985;124,197;-0,056;-0,84;10,419;0;0,998;37,158;-1,738;13,148;1,738;0;0,985;124,602;-0,056;-0,85;10,444;0;0,997;44,722;-1,74;13,151;1,74;0;0,984;125,569;-0,056;-0,85;10,44;0;0,997;48,972;;0,98475;0,99725;124,70975;43,077
381;-1,8;14,316;1,8;0;0,992;98,264;-0,043;-1,118;12,241;0;0,999;14,248;-1,801;14,353;1,801;0;0,991;99,999;-0,043;-1,106;12,239;0;0,999;15,679;-1,801;14,305;1,801;0;0,991;101,192;-0,044;-1,093;12,152;0;0,999;13,945;-1,798;14,317;1,798;0;0,991;100,395;-0,044;-1,102;12,199;0;0,999;17,104;;0,99125;0,999;99,9625;15,244
382;-1,83;14,156;1,83;0;0,993;93,245;-0,04;-1,195;12,223;0;0,999;17,239;-1,828;14,143;1,828;0;0,993;92,275;-0,039;-1,202;12,236;0;0,999;17,589;-1,828;14,121;1,828;0;0,993;91,897;-0,039;-1,208;12,233;0;0,998;19,459;-1,829;14,106;1,829;0;0,993;91,488;-0,039;-1,21;12,224;0;0,999;18,711;;0,993;0,99875;92,22625;18,2495
383;-1,801;14,082;1,801;0;0,99;105,125;-0,046;-1,073;11,867;0;0,998;23,895;-1,799;14,072;1,799;0;0,99;104,815;-0,045;-1,073;11,862;0;0,998;23,182;-1,799;14,07;1,799;0;0,99;105,107;-0,045;-1,073;11,86;0;0,998;24,818;-1,799;14,07;1,799;0;0,99;105,025;-0,045;-1,073;11,863;0;0,998;24,793;;0,99;0,998;105,018;24,172
384;-1,825;13,898;1,825;0;0,992;94,024;-0,04;-1,187;11,957;0;0,998;19,394;-1,825;13,904;1,825;0;0,992;94,666;-0,04;-1,182;11,948;0;0,998;19,713;-1,824;13,909;1,824;0;0,992;95,578;-0,041;-1,175;11,935;0;0,998;20,652;-1,824;13,927;1,824;0;0,992;96,062;-0,041;-1,167;11,928;0;0,999;18,372;;0,992;0,99825;95,0825;19,53275
385;-1,822;14,113;1,822;0;0,992;94,823;-0,04;-1,178;12,152;0;0,998;19,7;-1,823;14,112;1,823;0;0,992;95,056;-0,04;-1,177;12,145;0;0,998;19,628;-1,821;14,126;1,821;0;0,992;94,844;-0,041;-1,172;12,151;0;0,999;16,846;-1,818;14,136;1,818;0;0,992;95,347;-0,041;-1,165;12,149;0;0,999;17,063;;0,992;0,9985;95,0175;18,30925
386;-1,827;13,674;1,827;0;0,991;101,502;-0,043;-1,146;11,6;0;0,998;31,069;-1,825;13,679;1,825;0;0,991;103,04;-0,044;-1,127;11,555;0;0,998;29,862;-1,822;13,67;1,822;0;0,991;102,543;-0,043;-1,139;11,592;0;0,998;35,067;-1,822;13,668;1,822;0;0,991;103,048;-0,042;-1,144;11,605;0;0,998;39,354;;0,991;0,998;102,53325;33,838
387;-1,826;14,074;1,826;0;0,992;94,137;-0,04;-1,186;12,126;0;0,999;18,636;-1,825;14,06;1,825;0;0,992;94,394;-0,04;-1,184;12,108;0;0,998;19,169;-1,824;14,064;1,824;0;0,992;93,978;-0,04;-1,182;12,112;0;0,999;17,032;-1,824;14,062;1,824;0;0,992;94,03;-0,04;-1,182;12,109;0;0,999;17,296;;0,992;0,99875;94,13475;18,03325
388;-1,8;13,702;1,8;0;0,99;105,634;-0,046;-1,073;11,487;0;0,998;26,726;-1,802;13,706;1,802;0;0,99;106,05;-0,046;-1,073;11,485;0;0,998;27,785;-1,801;13,697;1,801;0;0,99;105,541;-0,045;-1,079;11,5;0;0,998;29,446;-1,804;13,694;1,804;0;0,99;105,225;-0,045;-1,084;11,5;0;0,998;28,49;;0,99;0,998;105,6125;28,11175
390;-1,792;13,99;1,792;0;0,99;104,604;-0,045;-1,067;11,783;0;0,998;22,506;-1,791;14,004;1,791;0;0,99;105,853;-0,046;-1,061;11,783;0;0,998;26,816;-1,788;14,002;1,788;0;0,99;105,98;-0,046;-1,054;11,768;0;0,998;24,801;-1,788;13,998;1,788;0;0,99;106,041;-0,046;-1,053;11,758;0;0,998;24,106;;0,99;0,998;105,6195;24,55725
391;-1,803;14,009;1,803;0;0,991;100,776;-0,044;-1,103;11,877;0;0,999;16,271;-1,801;13,987;1,801;0;0,991;100,406;-0,043;-1,106;11,873;0;0,998;17,918;-1,803;13,992;1,803;0;0,991;100,758;-0,044;-1,104;11,864;0;0,999;17,11;-1,802;13,985;1,802;0;0,991;101,234;-0,044;-1,1;11,846;0;0,999;17,449;;0,991;0,99875;100,7935;17,187
392;-1,821;14,297;1,821;0;0,993;92,534;-0,04;-1,178;12,339;0;0,999;7,696;-1,821;14,272;1,821;0;0,993;92,764;-0,04;-1,181;12,324;0;0,999;11,358;-1,82;14,271;1,82;0;0,993;92,542;-0,04;-1,178;12,318;0;0,999;9,002;-1,822;14,28;1,822;0;0,993;91,923;-0,04;-1,181;12,329;0;0,999;5,662;;0,993;0,999;92,44075;8,4295
393;-1,808;14,006;1,808;0;0,991;101,834;-0,044;-1,112;11,888;0;0,998;25,116;-1,809;14,018;1,809;0;0,991;102,288;-0,044;-1,11;11,89;0;0,998;25,495;-1,808;14,016;1,808;0;0,991;101,868;-0,044;-1,112;11,897;0;0,998;25,12;-1,81;14,02;1,81;0;0,991;101,912;-0,044;-1,11;11,889;0;0,998;22,934;;0,991;0,998;101,9755;24,66625
394;-1,81;13,885;1,81;0;0,991;103,611;-0,044;-1,104;11,735;0;0,998;28,33;-1,812;13,894;1,812;0;0,991;104,458;-0,044;-1,104;11,737;0;0,998;31,17;-1,813;13,867;1,813;0;0,991;103,617;-0,044;-1,116;11,745;0;0,998;32,895;-1,812;13,845;1,812;0;0,991;103,632;-0,044;-1,115;11,722;0;0,998;32,735;;0,991;0,998;103,8295;31,2825
395;-1,81;14,011;1,81;0;0,991;103,77;-0,044;-1,101;11,854;0;0,998;27,693;-1,807;14,002;1,807;0;0,991;103,746;-0,044;-1,104;11,862;0;0,998;30,582;-1,81;14,002;1,81;0;0,991;104,498;-0,045;-1,096;11,83;0;0,998;28,706;-1,812;14,001;1,812;0;0,99;105,61;-0,045;-1,088;11,796;0;0,998;28,493;;0,99075;0,998;104,406;28,8685
396;-1,806;13,872;1,806;0;0,991;101,762;-0,044;-1,101;11,727;0;0,998;19,092;-1,806;13,848;1,806;0;0,991;100,88;-0,043;-1,114;11,742;0;0,998;22,302;-1,806;13,841;1,806;0;0,991;100,907;-0,043;-1,114;11,736;0;0,998;22,741;-1,804;13,83;1,804;0;0,991;101,223;-0,043;-1,111;11,721;0;0,998;23,403;;0,991;0,998;101,193;21,8845
397;-1,796;13,881;1,796;0;0,99;107,998;-0,047;-1,044;11,594;0;0,998;25,724;-1,795;13,873;1,795;0;0,99;107,578;-0,047;-1,048;11,599;0;0,998;26,093;-1,794;13,865;1,794;0;0,99;107,274;-0,047;-1,05;11,602;0;0,998;26,512;-1,797;13,854;1,797;0;0,99;107,975;-0,047;-1,051;11,584;0;0,998;28,95;;0,99;0,998;107,70625;26,81975
398;-1,837;14,12;1,837;0;0,993;94,317;-0,04;-1,204;12,194;0;0,998;23,751;-1,83;14,138;1,83;0;0,992;96,098;-0,04;-1,187;12,18;0;0,998;26,153;-1,828;14,143;1,828;0;0,992;96,718;-0,041;-1,181;12,173;0;0,998;26,939;-1,828;14,13;1,828;0;0,992;96,716;-0,04;-1,184;12,169;0;0,998;28,409;;0,99225;0,998;95,96225;26,313
401;-1,845;14,01;1,845;0;0,993;92,428;-0,039;-1,224;12,117;0;0,998;20,985;-1,847;14,021;1,847;0;0,993;91,74;-0,039;-1,232;12,149;0;0,998;21,57;-1,849;14,027;1,849;0;0,993;92,374;-0,039;-1,227;12,132;0;0,998;20,375;-1,846;13,993;1,846;0;0,993;91,25;-0,038;-1,238;12,142;0;0,998;23,166;;0,993;0,998;91,948;21,524
402;-1,789;14,131;1,789;0;0,991;101,411;-0,045;-1,078;11,965;0;0,999;12,211;-1,79;14,126;1,79;0;0,991;101,261;-0,045;-1,079;11,961;0;0,999;11,417;-1,79;14,129;1,79;0;0,991;101,942;-0,045;-1,069;11,935;0;0,999;8,232;-1,789;14,117;1,789;0;0,991;101,617;-0,045;-1,069;11,926;0;0,999;6,866;;0,991;0,999;101,55775;9,6815
