ECG (ms)
-6.000000
990.000000
1926.000000
2870.000000
3872.000000
4791.000000
5771.000000
6744.000000
7670.000000
8705.000000
9661.000000
10645.000000
11592.000000
12502.000000
13497.000000
14446.000000
15397.000000
16349.000000
17286.000000
18238.000000
19101.000000
19975.000000
20853.000000
21700.000000
22798.000000
23782.000000
24713.000000
25689.000000
26627.000000
27531.000000
28502.000000
29484.000000
30391.000000
31309.000000
32300.000000
33301.000000
34239.000000
35137.000000
36076.000000
37066.000000
38006.000000
38956.000000
39842.000000
40776.000000
41748.000000
42653.000000
43629.000000
44642.000000
45595.000000
46513.000000
47477.000000
48440.000000
49359.000000
50256.000000
51195.000000
52198.000000
53182.000000
54156.000000
55165.000000
56100.000000
57068.000000
58091.000000
59042.000000
59956.000000
60942.000000
61920.000000
62829.000000
63746.000000
64751.000000
65665.000000
66597.000000
67461.000000
68303.000000
69090.000000
69949.000000
71263.000000
72260.000000
73340.000000
74322.000000
75255.000000
76293.000000
77294.000000
78257.000000
79332.000000
80376.000000
81369.000000
82342.000000
83265.000000
84180.000000
85151.000000
86158.000000
87146.000000
88070.000000
89022.000000
90049.000000
91032.000000
91970.000000
92944.000000
93991.000000
95020.000000
95954.000000
96949.000000
97990.000000
98931.000000
99885.000000
100922.000000
101913.000000
102839.000000
103806.000000
104806.000000
105716.000000
106650.000000
107671.000000
108677.000000
109588.000000
110504.000000
111450.000000
112325.000000
113186.000000
114008.000000
115135.000000
116145.000000
117090.000000
118015.000000
119077.000000
120131.000000
121083.000000
122076.000000
123087.000000
124041.000000
124979.000000
125959.000000
126913.000000
127814.000000
128762.000000
129770.000000
130705.000000
131666.000000
132685.000000
133622.000000
134608.000000
135632.000000
136575.000000
137601.000000
138612.000000
139540.000000
140542.000000
141527.000000
142449.000000
143476.000000
144487.000000
145412.000000
146389.000000
147370.000000
148285.000000
149219.000000
150172.000000
151068.000000
152025.000000
152966.000000
153853.000000
154824.000000
155783.000000
156692.000000
157692.000000
158672.000000
159593.000000
160586.000000
161541.000000
162454.000000
163428.000000
164360.000000
165252.000000
166186.000000
167042.000000
167833.000000
168593.000000
169353.000000
170308.000000
171375.000000
172253.000000
173250.000000
174264.000000
175123.000000
176127.000000
177125.000000
177988.000000
179038.000000
180123.000000
181080.000000
182098.000000
183108.000000
184057.000000
185058.000000
186033.000000
186979.000000
187999.000000
189027.000000
189984.000000
190901.000000
191909.000000
192963.000000
193969.000000
194935.000000
195936.000000
196871.000000
197788.000000
198796.000000
199796.000000
200716.000000
201705.000000
202703.000000
203624.000000
204632.000000
205659.000000
206592.000000
207554.000000
208622.000000
209684.000000
210666.000000
211599.000000
212567.000000
213630.000000
214674.000000
215629.000000
216564.000000
217557.000000
218555.000000
219467.000000
220446.000000
221435.000000
222345.000000
223238.000000
224193.000000
225092.000000
225937.000000
226697.000000
227488.000000
228290.000000
229572.000000
230529.000000
231411.000000
232359.000000
233311.000000
234208.000000
235165.000000
236118.000000
237020.000000
237984.000000
238961.000000
239866.000000
240789.000000
241768.000000
242714.000000
243621.000000
244576.000000
245508.000000
246389.000000
247334.000000
248239.000000
249124.000000
250083.000000
251003.000000
251919.000000
252901.000000
253816.000000
254760.000000
255705.000000
256613.000000
257548.000000
258468.000000
259352.000000
260308.000000
261231.000000
262137.000000
263077.000000
263965.000000
264903.000000
265829.000000
266677.000000
267505.000000
268302.000000
269108.000000
270066.000000
271124.000000
272069.000000
273201.000000
274139.000000
275110.000000
276121.000000
276975.000000
277866.000000
278908.000000
279809.000000
280854.000000
281909.000000
282793.000000
283780.000000
284745.000000
285650.000000
286944.000000
287894.000000
288751.000000
289678.000000
290641.000000
291524.000000
292510.000000
293536.000000
294432.000000
295391.000000
296336.000000
297241.000000
298218.000000
299165.000000
300062.000000
301042.000000
302013.000000
302918.000000
303884.000000
304820.000000
305671.000000
306537.000000
307378.000000
308376.000000
309338.000000
310225.000000
311190.000000
312158.000000
313062.000000
314047.000000
315018.000000
315918.000000
316868.000000
317853.000000
318760.000000
319743.000000
320727.000000
321626.000000
322568.000000
323527.000000
324417.000000
325376.000000
326334.000000
327247.000000
328125.000000
328946.000000
329682.000000
330435.000000
331664.000000
332547.000000
333401.000000
334186.000000
334953.000000
335961.000000
336895.000000
337833.000000
338807.000000
339780.000000
340705.000000
341692.000000
342684.000000
343621.000000
344552.000000
345531.000000
346500.000000
347424.000000
348426.000000
349424.000000
350334.000000
351265.000000
352149.000000
352988.000000
353814.000000
354692.000000
355964.000000
357036.000000
357972.000000
358971.000000
359971.000000
360906.000000
361918.000000
362947.000000
363892.000000
364874.000000
365857.000000
366785.000000
367773.000000
368754.000000
369674.000000
370576.000000
371520.000000
372511.000000
373466.000000
374392.000000
375318.000000
376323.000000
377334.000000
378293.000000
379223.000000
380200.000000
381155.000000
382074.000000
383067.000000
384050.000000
384983.000000
385945.000000
386970.000000
387924.000000
388844.000000
389851.000000
390927.000000
391941.000000
392886.000000
393882.000000
394899.000000
395860.000000
396791.000000
397797.000000
398816.000000
399765.000000
400797.000000
401811.000000
402752.000000
403772.000000
404760.000000
405690.000000
406717.000000
407715.000000
408658.000000
409689.000000
410698.000000
411639.000000
412674.000000
413667.000000
414602.000000
415619.000000
416654.000000
417592.000000
418567.000000
419567.000000
420509.000000
421515.000000
422504.000000
423444.000000
424457.000000
425453.000000
426387.000000
427390.000000
428384.000000
429321.000000
430320.000000
431297.000000
432215.000000
433143.000000
434132.000000
435106.000000
436005.000000
436924.000000
437834.000000
438700.000000
439464.000000
440217.000000
441187.000000
442059.000000
443389.000000
444461.000000
445445.000000
446391.000000
447509.000000
448537.000000
449517.000000
450567.000000
451611.000000
452613.000000
453691.000000
454741.000000
455746.000000
456853.000000
457944.000000
458987.000000
459986.000000
461030.000000
462076.000000
463058.000000
464114.000000
465125.000000
466084.000000
467093.000000
468104.000000
469067.000000
469991.000000
470914.000000
471896.000000
472916.000000
473882.000000
474827.000000
475864.000000
476878.000000
477823.000000
478783.000000
479821.000000
480863.000000
481836.000000
482770.000000
483754.000000
484732.000000
485599.000000
486418.000000
487235.000000
488063.000000
489336.000000
490321.000000
491272.000000
492296.000000
493308.000000
494253.000000
495251.000000
496220.000000
497147.000000
498169.000000
499173.000000
500122.000000
501187.000000
502173.000000
503127.000000
504196.000000
505194.000000
506147.000000
507197.000000
508180.000000
509120.000000
510169.000000
511149.000000
512088.000000
513122.000000
514089.000000
515029.000000
516067.000000
517061.000000
518001.000000
519046.000000
520032.000000
520952.000000
521927.000000
522883.000000
523791.000000
524762.000000
525722.000000
526635.000000
527631.000000
528644.000000
529571.000000
530572.000000
531574.000000
532505.000000
533514.000000
534506.000000
535431.000000
536449.000000
537429.000000
538345.000000
539351.000000
540349.000000
541295.000000
542348.000000
543429.000000
544439.000000
545395.000000
546487.000000
547569.000000
548584.000000
549578.000000
550631.000000
551674.000000
552708.000000
553731.000000
554682.000000
555624.000000
556669.000000
557707.000000
558595.000000
559490.000000
560309.000000
561116.000000
562421.000000
563468.000000
564479.000000
565478.000000
566455.000000
567499.000000
568534.000000
569482.000000
570493.000000
571510.000000
572459.000000
573476.000000
574509.000000
575466.000000
576446.000000
577493.000000
578483.000000
579433.000000
580463.000000
581522.000000
582505.000000
583474.000000
584535.000000
585588.000000
586548.000000
587589.000000
588603.000000
589561.000000
590645.000000
591723.000000
592717.000000
593745.000000
594856.000000
595909.000000
596927.000000
598033.000000
599147.000000
600193.000000
601211.000000
602307.000000
603383.000000
604387.000000
605448.000000
606472.000000
607465.000000
608521.000000
609522.000000
610496.000000
611550.000000
612539.000000
613532.000000
614590.000000
615571.000000
616575.000000
617562.000000
618480.000000
619496.000000
620524.000000
621469.000000
622434.000000
623489.000000
624510.000000
625445.000000
626449.000000
627513.000000
628472.000000
629441.000000
630519.000000
631468.000000
632442.000000
633487.000000
634494.000000
635441.000000
636481.000000
637587.000000
638615.000000
639651.000000
640728.000000
641747.000000
642816.000000
643889.000000
644907.000000
645941.000000
647001.000000
647990.000000
649022.000000
650080.000000
651051.000000
652096.000000
653122.000000
654095.000000
655115.000000
656112.000000
657040.000000
658064.000000
659057.000000
659990.000000
661013.000000
661989.000000
662922.000000
663946.000000
664899.000000
665802.000000
666730.000000
667584.000000
668339.000000
669141.000000
670394.000000
671275.000000
672182.000000
673063.000000
673856.000000
674716.000000
675514.000000
676265.000000
677006.000000
677786.000000
679094.000000
680191.000000
681229.000000
682160.000000
682981.000000
683816.000000
684672.000000
685936.000000
687032.000000
688011.000000
689087.000000
690124.000000
691108.000000
692135.000000
693169.000000
694150.000000
695158.000000
696182.000000
697179.000000
698136.000000
699133.000000
700135.000000
701080.000000
702114.000000
703127.000000
704079.000000
705102.000000
706098.000000
707035.000000
708060.000000
709071.000000
710004.000000
711004.000000
711980.000000
712920.000000
713931.000000
714906.000000
715843.000000
716841.000000
717820.000000
718760.000000
719785.000000
720789.000000
721741.000000
722777.000000
723788.000000
724750.000000
725806.000000
726832.000000
727793.000000
728876.000000
729944.000000
730929.000000
731903.000000
732978.000000
734041.000000
735017.000000
736009.000000
737101.000000
738147.000000
739114.000000
740119.000000
741111.000000
742056.000000
743086.000000
744109.000000
745070.000000
746127.000000
747198.000000
748190.000000
749261.000000
750300.000000
751240.000000
752080.000000
752849.000000
753742.000000
754635.000000
755906.000000
756945.000000
757885.000000
759120.000000
760105.000000
761097.000000
762102.000000
763002.000000
764103.000000
765106.000000
766089.000000
767135.000000
768171.000000
769164.000000
770227.000000
771245.000000
772239.000000
773311.000000
774330.000000
775312.000000
776367.000000
777391.000000
778368.000000
779387.000000
780387.000000
781334.000000
782372.000000
783337.000000
784286.000000
785349.000000
786324.000000
787319.000000
788377.000000
789342.000000
790358.000000
791422.000000
792391.000000
793449.000000
794467.000000
795431.000000
796492.000000
797481.000000
798453.000000
799516.000000
800506.000000
801454.000000
802484.000000
803458.000000
804414.000000
805456.000000
806429.000000
807420.000000
808474.000000
809445.000000
810491.000000
811514.000000
812477.000000
813527.000000
814581.000000
815551.000000
816632.000000
817686.000000
818652.000000
819712.000000
820735.000000
821711.000000
822752.000000
823782.000000
824733.000000
825697.000000
826720.000000
827718.000000
828669.000000
829689.000000
830708.000000
831666.000000
832722.000000
833747.000000
834696.000000
835717.000000
836635.000000
837525.000000
838417.000000
839359.000000
840644.000000
841648.000000
842695.000000
843766.000000
844762.000000
845793.000000
846812.000000
847741.000000
848737.000000
849767.000000
850721.000000
851783.000000
852829.000000
853795.000000
854872.000000
855959.000000
856939.000000
858002.000000
859070.000000
860034.000000
861077.000000
862137.000000
863106.000000
864085.000000
865170.000000
866143.000000
867135.000000
868199.000000
869236.000000
870196.000000
871258.000000
872310.000000
873275.000000
874340.000000
875393.000000
876358.000000
877380.000000
878432.000000
879398.000000
880455.000000
881502.000000
882462.000000
883518.000000
884534.000000
885506.000000
886628.000000
887668.000000
888673.000000
889762.000000
890803.000000
891818.000000
892915.000000
893981.000000
895009.000000
896091.000000
897164.000000
898182.000000
899260.000000
900324.000000
901327.000000
902408.000000
903468.000000
904466.000000
905535.000000
906581.000000
907577.000000
908634.000000
909670.000000
910663.000000
911715.000000
912727.000000
913729.000000
914776.000000
915782.000000
916784.000000
917849.000000
918849.000000
919886.000000
920937.000000
921935.000000
922979.000000
924018.000000
925006.000000
926057.000000
927096.000000
928091.000000
929164.000000
930214.000000
931213.000000
932277.000000
933331.000000
934323.000000
935384.000000
936436.000000
937433.000000
938505.000000
939552.000000
940554.000000
941635.000000
942682.000000
943681.000000
944744.000000
945791.000000
946785.000000
947838.000000
948897.000000
949901.000000
950969.000000
952047.000000
953060.000000
954091.000000
955169.000000
956172.000000
957211.000000
958272.000000
959285.000000
960263.000000
961295.000000
962321.000000
963299.000000
964367.000000
965416.000000
966411.000000
967487.000000
968538.000000
969531.000000
970599.000000
971649.000000
972646.000000
973736.000000
974802.000000
975812.000000
976853.000000
977944.000000
978962.000000
980009.000000
981084.000000
982094.000000
983171.000000
984217.000000
985232.000000
986317.000000
987364.000000
988376.000000
989439.000000
990447.000000
991458.000000
992517.000000
993513.000000
994536.000000
995584.000000
996489.000000
997310.000000
998136.000000
999034.000000
1000346.000000
1001382.000000
1002391.000000
1003446.000000
1004434.000000
1005464.000000
1006500.000000
1007477.000000
1008500.000000
1009537.000000
1010512.000000
1011548.000000
1012589.000000
1013569.000000
1014615.000000
1015652.000000
1016641.000000
1017687.000000
1018740.000000
1019728.000000
1020766.000000
1021817.000000
1022810.000000
1023856.000000
1024927.000000
1025913.000000
1026972.000000
1028034.000000
1029031.000000
1030102.000000
1031180.000000
1032178.000000
1033215.000000
1034288.000000
1035334.000000
1036332.000000
1037371.000000
1038451.000000
1039477.000000
1040476.000000
1041538.000000
1042583.000000
1043578.000000
1044590.000000
1045638.000000
1046642.000000
1047625.000000
1048666.000000
1049687.000000
1050653.000000
1051687.000000
1052727.000000
1053702.000000
1054754.000000
1055796.000000
1056781.000000
1057823.000000
1058859.000000
1059845.000000
1060880.000000
1061917.000000
1062903.000000
1063953.000000
1065013.000000
1066014.000000
1067089.000000
1068155.000000
1069157.000000
1070220.000000
1071275.000000
1072266.000000
1073299.000000
1074359.000000
1075346.000000
1076396.000000
1077450.000000
1078441.000000
1079507.000000
1080539.000000
1081545.000000
1082628.000000
1083670.000000
1084676.000000
1085753.000000
1086774.000000
1087777.000000
1088838.000000
1089863.000000
1090854.000000
1091914.000000
1092936.000000
1093929.000000
1094986.000000
1095990.000000
1097001.000000
1098069.000000
1099076.000000
1100124.000000
1101184.000000
1102175.000000
1103226.000000
1104246.000000
1105239.000000
1106312.000000
1107332.000000
1108337.000000
1109410.000000
1110414.000000
1111432.000000
1112508.000000
1113506.000000
1114570.000000
1115600.000000
1116590.000000
1117650.000000
1118535.000000
1119295.000000
1120070.000000
1121422.000000
1122437.000000
1123413.000000
1124456.000000
1125411.000000
1126418.000000
1127474.000000
1128428.000000
1129454.000000
1130554.000000
1131541.000000
1132613.000000
1133690.000000
1134691.000000
1135762.000000
1136832.000000
1137830.000000
1138866.000000
1139922.000000
1140913.000000
1141937.000000
1142987.000000
1143979.000000
1144953.000000
1145964.000000
1146944.000000
1147878.000000
1148893.000000
1149903.000000
1150849.000000
1151863.000000
1152913.000000
1153868.000000
1154921.000000
1155945.000000
1156896.000000
1157943.000000
1158888.000000
1159750.000000
1160514.000000
1161256.000000
1162085.000000
1163020.000000
1163822.000000
1164579.000000
1165471.000000
1166272.000000
1167155.000000
1168180.000000
1169102.000000
1170070.000000
1171021.000000
1171920.000000
1172714.000000
1173488.000000
1174292.000000
1175249.000000
1176054.000000
1176817.000000
1177551.000000
1178256.000000
1178993.000000
1180219.000000
1181202.000000
1182170.000000
1183020.000000
1183794.000000
1184596.000000
1185422.000000
1186576.000000
1187595.000000
1188529.000000
1189541.000000
1190512.000000
1191435.000000
1192396.000000
1193384.000000
1194396.000000
1195322.000000
1196321.000000
1197289.000000
1198230.000000
1199254.000000
1200249.000000
1201122.000000
1202066.000000
1203052.000000
1203971.000000
1204970.000000
1205816.000000
1206584.000000
1207399.000000
1208691.000000
1209805.000000
1210749.000000
1211746.000000
1212842.000000
1213795.000000
1214800.000000
1215879.000000
1216852.000000
1217876.000000
1218990.000000
1219961.000000
1221039.000000
1222110.000000
1223092.000000
1224201.000000
1225261.000000
1226247.000000
1227354.000000
1228393.000000
1229420.000000
1230527.000000
1231532.000000
1232554.000000
1233671.000000
1234689.000000
1235669.000000
1236759.000000
1237812.000000
1238752.000000
1239735.000000
1240817.000000
1241858.000000
1242810.000000
1243923.000000
1244984.000000
1245939.000000
1247028.000000
1248082.000000
1249027.000000
1250100.000000
1251142.000000
1252075.000000
1253133.000000
1254183.000000
1255115.000000
1256138.000000
1257183.000000
1258116.000000
1259065.000000
1260192.000000
1261263.000000
1262226.000000
1263194.000000
1264409.000000
1265486.000000
1266435.000000
1267492.000000
1268611.000000
1269612.000000
1270562.000000
1271659.000000
1272731.000000
1273678.000000
1274714.000000
1275838.000000
1276850.000000
1277875.000000
1278995.000000
1280053.000000
1281038.000000
1282017.000000
1283155.000000
1284232.000000
1285220.000000
1286354.000000
1287410.000000
1288384.000000
1289504.000000
1290575.000000
1291546.000000
1292616.000000
1293602.000000
1294537.000000
1295583.000000
1296557.000000
1297451.000000
1298593.000000
1299619.000000
1300534.000000
1301585.000000
1302618.000000
1303527.000000
1304604.000000
1305639.000000
1306585.000000
1307687.000000
1308759.000000
1309690.000000
1310738.000000
1311813.000000
1312787.000000
1313878.000000
1314896.000000
1315874.000000
1317001.000000
1318041.000000
1318998.000000
1320073.000000
1321107.000000
1322089.000000
1323192.000000
1324290.000000
1325261.000000
1326247.000000
1327426.000000
1328528.000000
1329507.000000
1330634.000000
1331740.000000
1332774.000000
1333735.000000
1334782.000000
1335880.000000
1336839.000000
1337861.000000
1338973.000000
1340034.000000
1340997.000000
1341977.000000
1343046.000000
1343991.000000
1344930.000000
1346025.000000
1346980.000000
1348013.000000
1349092.000000
1350044.000000
1351091.000000
1352127.000000
1353070.000000
1354125.000000
1355202.000000
1356123.000000
1357108.000000
1358157.000000
1359107.000000
1360146.000000
1361137.000000
1361995.000000
1362866.000000
1363655.000000
1364510.000000
1365405.000000
1366763.000000
1367822.000000
1369029.000000
1370172.000000
1371186.000000
1372248.000000
1373228.000000
1374177.000000
1375427.000000
1376443.000000
1377532.000000
1378600.000000
1379627.000000
1380732.000000
1381783.000000
1382830.000000
1383940.000000
1384998.000000
1386036.000000
1387128.000000
1388150.000000
1389193.000000
1390284.000000
1391302.000000
1392381.000000
1393457.000000
1394454.000000
1395522.000000
1396583.000000
1397589.000000
1398677.000000
1399755.000000
1400773.000000
1401863.000000
1402942.000000
1403960.000000
1405046.000000
1406111.000000
1407121.000000
1408201.000000
1409243.000000
1410262.000000
1411359.000000
1412408.000000
1413425.000000
1414516.000000
1415572.000000
1416597.000000
1417695.000000
1418755.000000
1419786.000000
1420894.000000
1421934.000000
1422981.000000
1424094.000000
1425157.000000
1426181.000000
1427294.000000
1428380.000000
1429417.000000
1430520.000000
1431601.000000
1432643.000000
1433722.000000
1434749.000000
1435752.000000
1436740.000000
1437822.000000
1438793.000000
1439690.000000
1440802.000000
1441921.000000
1442930.000000
1443945.000000
1445017.000000
1446050.000000
1447058.000000
1448136.000000
1449218.000000
1450229.000000
1451288.000000
1452362.000000
1453374.000000
1454445.000000
1455524.000000
1456540.000000
1457624.000000
1458714.000000
1459733.000000
1460831.000000
1461917.000000
1462939.000000
1464001.000000
1465081.000000
1466107.000000
1467130.000000
1468226.000000
1469274.000000
1470295.000000
1471395.000000
1472458.000000
1473489.000000
1474622.000000
1475677.000000
1476711.000000
1477825.000000
1478881.000000
1479926.000000
1481036.000000
1482097.000000
1483135.000000
1484246.000000
1485289.000000
1486349.000000
1487452.000000
1488484.000000
1489569.000000
1490641.000000
1491662.000000
1492765.000000
1493834.000000
1494853.000000
1495946.000000
1496997.000000
1498020.000000
1499123.000000
1500161.000000
1501185.000000
1502284.000000
1503345.000000
1504370.000000
1505474.000000
1506552.000000
1507583.000000
1508692.000000
1509789.000000
1510815.000000
1511914.000000
1513015.000000
1514042.000000
1515142.000000
1516233.000000
1517261.000000
1518367.000000
1519450.000000
1520470.000000
1521568.000000
1522648.000000
1523664.000000
1524738.000000
1525778.000000
1526781.000000
1527872.000000
1528908.000000
1529901.000000
1530960.000000
1531914.000000
1532723.000000
1533525.000000
1534579.000000
1535464.000000
1536438.000000
1537480.000000
1538402.000000
1539431.000000
1540672.000000
1541700.000000
1542962.000000
1544095.000000
1545102.000000
1546376.000000
1547480.000000
1548445.000000
1549645.000000
1550698.000000
1551702.000000
1552776.000000
1553859.000000
1554873.000000
1555942.000000
1557042.000000
1558119.000000
1559132.000000
1560201.000000
1561292.000000
1562310.000000
1563391.000000
1564459.000000
1565468.000000
1566549.000000
1567624.000000
1568635.000000
1569665.000000
1570752.000000
1571788.000000
1572797.000000
1573892.000000
1574992.000000
1575990.000000
1576874.000000
1577659.000000
1578429.000000
1579798.000000
1580831.000000
1581741.000000
1582534.000000
1583351.000000
1584555.000000
1585522.000000
1586519.000000
1587492.000000
1588514.000000
1589596.000000
1590670.000000
1591691.000000
1592753.000000
1593823.000000
1594813.000000
1595858.000000
1596902.000000
1597860.000000
1598841.000000
1599877.000000
1600826.000000
1601809.000000
1602884.000000
1603862.000000
1604921.000000
1605990.000000
1606964.000000
1608046.000000
1609148.000000
1610151.000000
1611247.000000
1612358.000000
1613374.000000
1614487.000000
1615585.000000
1616580.000000
1617728.000000
1618811.000000
1619810.000000
1620898.000000
1621958.000000
1622942.000000
1624019.000000
1625092.000000
1626082.000000
1627176.000000
1628222.000000
1629195.000000
1630264.000000
1631280.000000
1632282.000000
1633426.000000
1634567.000000
1635586.000000
1636645.000000
1637742.000000
1638749.000000
1639859.000000
1640957.000000
1641957.000000
1642985.000000
1644105.000000
1645194.000000
1646207.000000
1647276.000000
1648434.000000
1649474.000000
1650464.000000
1651561.000000
1652591.000000
1653564.000000
1654639.000000
1655692.000000
1656675.000000
1657786.000000
1658892.000000
1659888.000000
1660958.000000
1662048.000000
1663036.000000
1664088.000000
1665177.000000
1666168.000000
1667266.000000
1668340.000000
1669342.000000
1670457.000000
1671516.000000
1672496.000000
1673587.000000
1674657.000000
1675639.000000
1676674.000000
1677763.000000
1678745.000000
1679786.000000
1680875.000000
1681858.000000
1682901.000000
1684015.000000
1685010.000000
1686031.000000
1687133.000000
1688153.000000
1689124.000000
1690190.000000
1691224.000000
1692189.000000
1693235.000000
1694314.000000
1695299.000000
1696301.000000
1697406.000000
1698439.000000
1699430.000000
1700529.000000
1701625.000000
1702613.000000
1703674.000000
1704743.000000
1705725.000000
1706709.000000
1707776.000000
1708780.000000
1709761.000000
1710833.000000
1711888.000000
1712857.000000
1713905.000000
1714964.000000
1715932.000000
1716933.000000
1717909.000000
1718799.000000
1719666.000000
1720530.000000
1721361.000000
1722327.000000
1723576.000000
1724599.000000
1725877.000000
1727000.000000
1727992.000000
1729168.000000
1730192.000000
1731253.000000
1732341.000000
1733367.000000
1734465.000000
1735560.000000
1736593.000000
1737674.000000
1738771.000000
1739810.000000
1740915.000000
1742007.000000
1743040.000000
1744145.000000
1745222.000000
1746260.000000
1747351.000000
1748427.000000
1749453.000000
1750527.000000
1751624.000000
1752697.000000
1753728.000000
1754821.000000
1755922.000000
1756949.000000
1758031.000000
1759159.000000
1760227.000000
1761275.000000
1762383.000000
1763492.000000
1764529.000000
1765662.000000
1766774.000000
1767821.000000
1768956.000000
1770071.000000
1771109.000000
1772214.000000
1773324.000000
1774356.000000
1775480.000000
1776546.000000
1777583.000000
1778709.000000
1779789.000000
1780822.000000
1781932.000000
1783059.000000
1784106.000000
1785222.000000
1786343.000000
1787383.000000
1788457.000000
1789558.000000
1790581.000000
1791647.000000
1792716.000000
1793734.000000
1794806.000000
1795860.000000
1796868.000000
1797956.000000
