ECG (ms)
535.000000
1833.000000
3025.000000
4182.000000
5293.000000
6334.000000
7207.000000
8144.000000
9111.000000
9962.000000
10868.000000
12006.000000
13095.000000
14248.000000
15413.000000
16542.000000
17670.000000
18785.000000
19910.000000
21072.000000
22259.000000
23368.000000
24401.000000
25403.000000
26391.000000
27504.000000
28729.000000
29990.000000
31202.000000
32390.000000
33559.000000
34705.000000
35854.000000
37060.000000
38301.000000
39591.000000
40831.000000
42088.000000
43360.000000
44629.000000
45852.000000
47082.000000
48314.000000
49562.000000
50759.000000
51939.000000
53071.000000
54256.000000
55467.000000
56657.000000
57822.000000
58967.000000
60135.000000
61229.000000
62228.000000
63154.000000
64148.000000
65202.000000
66306.000000
67465.000000
68580.000000
69685.000000
70788.000000
71885.000000
72975.000000
74073.000000
75191.000000
76286.000000
77376.000000
78460.000000
79530.000000
80602.000000
81708.000000
82817.000000
83912.000000
85011.000000
86129.000000
87240.000000
88336.000000
89439.000000
90530.000000
91615.000000
92637.000000
93585.000000
94497.000000
95434.000000
96531.000000
97707.000000
98838.000000
99904.000000
100950.000000
101998.000000
102989.000000
104015.000000
105043.000000
106056.000000
107103.000000
108151.000000
109204.000000
110253.000000
111307.000000
112410.000000
113526.000000
114622.000000
115716.000000
116773.000000
117837.000000
118883.000000
119829.000000
120778.000000
121795.000000
122850.000000
123954.000000
125044.000000
126096.000000
127066.000000
127920.000000
128827.000000
129745.000000
130689.000000
131626.000000
132649.000000
133743.000000
134864.000000
135964.000000
137049.000000
138112.000000
139140.000000
140179.000000
141125.000000
142080.000000
143099.000000
144369.000000
145616.000000
146815.000000
147932.000000
148992.000000
150017.000000
151024.000000
152110.000000
153228.000000
154345.000000
155478.000000
156594.000000
157642.000000
158627.000000
159593.000000
160558.000000
161598.000000
162717.000000
163899.000000
165056.000000
166193.000000
167258.000000
168304.000000
169338.000000
170418.000000
171511.000000
172586.000000
173667.000000
174732.000000
175780.000000
176828.000000
177830.000000
178844.000000
179899.000000
180979.000000
182037.000000
183049.000000
184050.000000
185041.000000
186010.000000
186919.000000
187825.000000
188853.000000
190032.000000
191234.000000
192389.000000
193519.000000
194599.000000
195636.000000
196665.000000
197670.000000
198736.000000
199907.000000
201081.000000
202216.000000
203285.000000
204308.000000
205322.000000
206356.000000
207391.000000
208459.000000
209569.000000
210649.000000
211683.000000
212632.000000
213561.000000
214559.000000
215697.000000
216851.000000
217993.000000
219103.000000
220169.000000
221193.000000
222293.000000
223470.000000
224682.000000
225831.000000
226963.000000
228075.000000
229175.000000
230214.000000
231193.000000
232173.000000
233203.000000
234304.000000
235506.000000
236665.000000
237845.000000
238972.000000
240110.000000
241173.000000
242235.000000
243320.000000
244588.000000
245903.000000
247132.000000
248278.000000
249435.000000
250538.000000
251626.000000
252717.000000
253736.000000
254719.000000
255697.000000
256771.000000
258001.000000
259230.000000
260458.000000
261621.000000
262695.000000
263698.000000
264585.000000
265406.000000
266274.000000
267471.000000
268770.000000
270059.000000
271322.000000
272553.000000
273760.000000
274923.000000
276033.000000
277139.000000
278291.000000
279408.000000
280605.000000
281888.000000
283079.000000
284210.000000
285346.000000
286470.000000
287566.000000
288642.000000
289705.000000
290802.000000
292041.000000
293285.000000
294491.000000
295583.000000
296595.000000
297578.000000
298656.000000
299798.000000
300939.000000
301995.000000
303025.000000
304003.000000
304958.000000
305909.000000
306933.000000
308055.000000
309198.000000
310275.000000
311278.000000
312234.000000
313161.000000
314101.000000
315112.000000
316209.000000
317321.000000
318382.000000
319465.000000
320521.000000
321553.000000
322553.000000
323546.000000
324546.000000
325605.000000
326674.000000
327752.000000
328805.000000
329792.000000
330793.000000
331850.000000
332956.000000
334056.000000
335094.000000
336068.000000
336993.000000
337951.000000
339061.000000
340244.000000
341439.000000
342583.000000
343720.000000
344810.000000
345935.000000
347121.000000
348260.000000
349324.000000
350363.000000
351411.000000
352526.000000
353682.000000
354888.000000
356047.000000
357126.000000
358098.000000
359012.000000
359964.000000
361116.000000
362398.000000
363696.000000
364875.000000
365923.000000
366991.000000
368120.000000
369268.000000
370402.000000
371479.000000
372495.000000
373457.000000
374416.000000
375433.000000
376620.000000
377854.000000
379058.000000
380225.000000
381396.000000
382485.000000
383599.000000
384761.000000
385990.000000
387227.000000
388387.000000
389586.000000
390717.000000
391850.000000
393017.000000
394162.000000
395216.000000
396244.000000
397262.000000
398314.000000
399394.000000
400458.000000
401559.000000
402743.000000
403925.000000
405078.000000
406159.000000
407227.000000
408263.000000
409302.000000
410346.000000
411367.000000
412329.000000
413342.000000
414425.000000
415493.000000
416624.000000
417772.000000
418884.000000
419928.000000
420917.000000
421886.000000
422852.000000
423910.000000
425082.000000
426273.000000
427421.000000
428516.000000
429526.000000
430585.000000
431677.000000
432800.000000
433844.000000
434834.000000
435707.000000
436550.000000
437506.000000
438667.000000
439892.000000
441137.000000
442323.000000
443528.000000
444658.000000
445704.000000
446703.000000
447706.000000
448799.000000
449975.000000
451115.000000
452250.000000
453320.000000
454428.000000
455485.000000
456452.000000
457432.000000
458493.000000
459594.000000
460493.000000
461410.000000
462500.000000
463638.000000
464762.000000
465798.000000
466799.000000
467812.000000
469016.000000
470243.000000
471412.000000
472566.000000
473661.000000
474813.000000
475977.000000
477096.000000
478178.000000
479209.000000
480220.000000
481288.000000
482474.000000
483676.000000
484831.000000
485927.000000
487022.000000
488119.000000
489208.000000
490262.000000
491271.000000
492314.000000
493418.000000
494655.000000
495841.000000
496974.000000
498084.000000
499123.000000
500079.000000
501020.000000
502020.000000
503100.000000
504271.000000
505374.000000
506405.000000
507409.000000
508495.000000
509593.000000
510691.000000
511778.000000
512823.000000
513786.000000
514766.000000
515864.000000
517098.000000
518280.000000
519378.000000
520393.000000
521398.000000
522454.000000
523573.000000
524688.000000
525698.000000
526668.000000
527712.000000
528820.000000
529943.000000
530978.000000
531961.000000
532999.000000
534095.000000
535228.000000
536298.000000
537306.000000
538275.000000
539270.000000
540345.000000
541470.000000
542543.000000
543589.000000
544562.000000
545492.000000
546422.000000
547451.000000
548554.000000
549688.000000
550787.000000
551840.000000
552904.000000
553901.000000
554871.000000
555862.000000
556956.000000
558063.000000
559139.000000
560179.000000
561149.000000
562118.000000
563143.000000
564177.000000
565188.000000
566241.000000
567276.000000
568259.000000
569298.000000
570364.000000
571423.000000
572485.000000
573507.000000
574501.000000
575583.000000
576733.000000
577918.000000
579054.000000
580107.000000
581091.000000
582088.000000
583193.000000
584323.000000
585387.000000
586403.000000
587592.000000
588764.000000
589858.000000
590956.000000
592037.000000
593201.000000
594404.000000
595661.000000
596905.000000
598091.000000
599298.000000
600506.000000
601678.000000
602779.000000
603829.000000
604893.000000
606100.000000
607355.000000
608558.000000
609752.000000
610881.000000
611941.000000
612949.000000
613954.000000
615001.000000
616200.000000
617364.000000
618449.000000
619440.000000
620487.000000
621660.000000
622813.000000
623934.000000
624984.000000
626011.000000
627071.000000
628218.000000
629366.000000
630444.000000
631477.000000
632482.000000
633453.000000
634428.000000
635444.000000
636633.000000
637827.000000
638974.000000
640050.000000
641067.000000
642024.000000
642927.000000
643838.000000
644902.000000
646096.000000
647249.000000
648359.000000
649372.000000
650407.000000
651463.000000
652487.000000
653495.000000
654568.000000
655663.000000
656693.000000
657782.000000
658851.000000
659867.000000
660927.000000
662042.000000
663154.000000
664264.000000
665359.000000
666447.000000
667583.000000
668806.000000
670035.000000
671245.000000
672439.000000
673557.000000
674618.000000
675675.000000
676717.000000
677763.000000
678969.000000
680175.000000
681380.000000
682510.000000
683626.000000
684704.000000
685753.000000
686828.000000
687909.000000
689074.000000
690297.000000
691475.000000
692582.000000
693731.000000
694817.000000
695849.000000
696978.000000
698146.000000
699267.000000
700373.000000
701436.000000
702474.000000
703528.000000
704648.000000
705905.000000
707064.000000
708121.000000
709228.000000
710348.000000
711372.000000
712463.000000
713577.000000
714645.000000
715656.000000
716745.000000
717970.000000
719099.000000
720145.000000
721139.000000
722229.000000
723358.000000
724407.000000
725541.000000
726682.000000
727865.000000
729015.000000
730145.000000
731248.000000
732361.000000
733495.000000
734696.000000
735949.000000
737188.000000
738367.000000
739509.000000
740653.000000
741797.000000
742920.000000
744003.000000
745045.000000
746051.000000
747060.000000
748167.000000
749416.000000
750641.000000
751855.000000
753019.000000
754135.000000
755226.000000
756221.000000
757193.000000
758234.000000
759540.000000
760818.000000
762009.000000
763099.000000
764135.000000
765217.000000
766324.000000
767436.000000
768471.000000
769524.000000
770668.000000
771805.000000
772907.000000
773943.000000
775012.000000
776149.000000
777212.000000
778189.000000
779254.000000
780406.000000
781513.000000
782697.000000
783851.000000
784899.000000
785982.000000
787056.000000
788049.000000
789059.000000
790092.000000
791166.000000
792191.000000
793290.000000
794393.000000
795414.000000
796465.000000
797574.000000
798662.000000
799681.000000
800662.000000
801704.000000
802777.000000
803908.000000
804971.000000
806028.000000
807136.000000
808195.000000
809196.000000
810246.000000
811365.000000
812442.000000
813519.000000
814611.000000
815702.000000
816748.000000
817786.000000
818822.000000
819913.000000
821025.000000
822134.000000
823254.000000
824312.000000
825367.000000
826507.000000
827651.000000
828703.000000
829735.000000
830888.000000
832005.000000
833078.000000
834105.000000
835194.000000
836372.000000
837448.000000
838567.000000
839692.000000
840748.000000
841882.000000
843007.000000
844042.000000
845112.000000
846150.000000
847121.000000
848132.000000
849191.000000
850167.000000
851191.000000
852240.000000
853241.000000
854245.000000
855288.000000
856297.000000
857297.000000
858406.000000
859484.000000
860497.000000
861530.000000
862564.000000
863566.000000
864579.000000
865696.000000
866816.000000
867892.000000
869033.000000
870095.000000
871146.000000
872207.000000
873331.000000
874421.000000
875462.000000
876605.000000
877800.000000
878908.000000
880011.000000
881103.000000
882149.000000
883118.000000
884201.000000
885325.000000
886423.000000
887492.000000
888598.000000
889695.000000
890718.000000
891772.000000
893009.000000
894271.000000
895454.000000
896529.000000
897549.000000
898544.000000
899671.000000
900904.000000
902105.000000
903241.000000
904385.000000
905535.000000
906615.000000
907657.000000
908656.000000
909600.000000
910536.000000
911605.000000
912745.000000
913937.000000
915117.000000
916213.000000
917246.000000
918244.000000
919258.000000
920374.000000
921508.000000
922590.000000
923640.000000
924680.000000
925717.000000
926769.000000
927876.000000
928962.000000
930027.000000
931067.000000
932052.000000
932994.000000
933962.000000
935028.000000
936125.000000
937191.000000
938270.000000
939330.000000
940350.000000
941309.000000
942261.000000
943279.000000
944374.000000
945410.000000
946421.000000
947475.000000
948535.000000
949579.000000
950657.000000
951718.000000
952731.000000
953715.000000
954765.000000
955910.000000
957029.000000
958072.000000
959153.000000
960265.000000
961318.000000
962358.000000
963444.000000
964465.000000
965446.000000
966561.000000
967710.000000
968788.000000
969799.000000
970944.000000
972014.000000
972995.000000
974052.000000
975213.000000
976275.000000
977468.000000
978655.000000
979734.000000
980840.000000
982014.000000
983195.000000
984290.000000
985314.000000
986380.000000
987766.000000
989041.000000
990223.000000
991414.000000
992555.000000
993641.000000
994876.000000
996127.000000
997330.000000
998475.000000
999487.000000
1000393.000000
1001585.000000
1002894.000000
1004142.000000
1005307.000000
1006387.000000
1007392.000000
1008341.000000
1009261.000000
1010215.000000
1011469.000000
1012749.000000
1013987.000000
1015182.000000
1016312.000000
1017396.000000
1018501.000000
1019585.000000
1020640.000000
1021730.000000
1022872.000000
1024011.000000
1025120.000000
1026256.000000
1027368.000000
1028464.000000
1029527.000000
1030606.000000
1031747.000000
1032857.000000
1033940.000000
1035007.000000
1036086.000000
1037134.000000
1038164.000000
1039198.000000
1040286.000000
1041412.000000
1042541.000000
1043635.000000
1044706.000000
1045712.000000
1046680.000000
1047697.000000
1048719.000000
1049685.000000
1050748.000000
1051793.000000
1052782.000000
1053779.000000
1054802.000000
1055820.000000
1056775.000000
1057784.000000
1058824.000000
1059892.000000
1060866.000000
1061814.000000
1062944.000000
1064026.000000
1065044.000000
1066046.000000
1067083.000000
1068258.000000
1069368.000000
1070399.000000
1071489.000000
1072568.000000
1073615.000000
1074648.000000
1075748.000000
1076814.000000
1077833.000000
1078910.000000
1080000.000000
1081041.000000
1082120.000000
1083193.000000
1084221.000000
1085177.000000
1086154.000000
1087272.000000
1088381.000000
1089465.000000
1090603.000000
1091734.000000
1092782.000000
1093884.000000
1094999.000000
1096021.000000
1097132.000000
1098247.000000
1099320.000000
1100365.000000
1101477.000000
1102560.000000
1103571.000000
1104709.000000
1105835.000000
1106897.000000
1107949.000000
1109093.000000
1110340.000000
1111558.000000
1112710.000000
1113830.000000
1114886.000000
1115930.000000
1117058.000000
1118207.000000
1119370.000000
1120475.000000
1121584.000000
1122710.000000
1123820.000000
1124913.000000
1126006.000000
1127156.000000
1128339.000000
1129511.000000
1130652.000000
1131728.000000
1132623.000000
1133632.000000
1134736.000000
1135750.000000
1136704.000000
1137605.000000
1138458.000000
1139325.000000
1140385.000000
1141662.000000
1142899.000000
1144134.000000
1145347.000000
1146527.000000
1147666.000000
1148760.000000
1149884.000000
1151021.000000
1152216.000000
1153400.000000
1154599.000000
1155752.000000
1156863.000000
1157921.000000
1159052.000000
1160230.000000
1161409.000000
1162577.000000
1163690.000000
1164723.000000
1165749.000000
1166861.000000
1168060.000000
1169254.000000
1170444.000000
1171641.000000
1172788.000000
1173900.000000
1174984.000000
1176061.000000
1177083.000000
1178055.000000
1179021.000000
1179987.000000
1180944.000000
1181943.000000
1183201.000000
1184450.000000
1185664.000000
1186819.000000
1187948.000000
1189035.000000
1190083.000000
1191067.000000
1192064.000000
1193083.000000
1194212.000000
1195415.000000
1196559.000000
1197701.000000
1198792.000000
1199910.000000
1200958.000000
1202050.000000
1203163.000000
1204241.000000
1205278.000000
1206393.000000
1207503.000000
1208597.000000
1209712.000000
1210817.000000
1211936.000000
1212988.000000
1214055.000000
1215137.000000
1216157.000000
1217225.000000
1218283.000000
1219287.000000
1220311.000000
1221419.000000
1222538.000000
1223595.000000
1224698.000000
1225790.000000
1226833.000000
1227792.000000
1228734.000000
1229831.000000
1230935.000000
1231997.000000
1233068.000000
1234299.000000
1235427.000000
1236456.000000
1237570.000000
1238673.000000
1239675.000000
1240648.000000
1241690.000000
1242749.000000
1243762.000000
1244797.000000
1245917.000000
1246986.000000
1248000.000000
1249075.000000
1250124.000000
1251115.000000
1252192.000000
1253283.000000
1254310.000000
1255299.000000
1256384.000000
1257533.000000
1258641.000000
1259704.000000
1260817.000000
1261929.000000
1262993.000000
1264059.000000
1265175.000000
1266315.000000
1267447.000000
1268531.000000
1269569.000000
1270643.000000
1271756.000000
1272825.000000
1273930.000000
1275100.000000
1276194.000000
1277228.000000
1278238.000000
1279300.000000
1280442.000000
1281500.000000
1282602.000000
1283768.000000
1284869.000000
1285943.000000
1287008.000000
1288042.000000
1289041.000000
1290121.000000
1291255.000000
1292313.000000
1293330.000000
1294419.000000
1295493.000000
1296488.000000
1297631.000000
1298753.000000
1299795.000000
1300778.000000
1301774.000000
1302896.000000
1304106.000000
1305274.000000
1306475.000000
1307669.000000
1308771.000000
1309790.000000
1310922.000000
1312058.000000
1313101.000000
1314097.000000
1315225.000000
1316519.000000
1317716.000000
1318810.000000
1319831.000000
1320886.000000
1322035.000000
1323228.000000
1324323.000000
1325494.000000
1326645.000000
1327693.000000
1328807.000000
1329956.000000
1331018.000000
1332025.000000
1333079.000000
1334200.000000
1335298.000000
1336349.000000
1337375.000000
1338423.000000
1339482.000000
1340501.000000
1341638.000000
1342792.000000
1343904.000000
1344953.000000
1346048.000000
1347142.000000
1348220.000000
1349275.000000
1350377.000000
1351467.000000
1352492.000000
1353537.000000
1354636.000000
1355756.000000
1356825.000000
1357981.000000
1359050.000000
1360112.000000
1361169.000000
1362196.000000
1363172.000000
1364194.000000
1365272.000000
1366483.000000
1367640.000000
1368728.000000
1369818.000000
1370969.000000
1372091.000000
1373221.000000
1374373.000000
1375439.000000
1376439.000000
1377519.000000
1378698.000000
1379830.000000
1380846.000000
1381929.000000
1383052.000000
1384070.000000
1385101.000000
1386127.000000
1387137.000000
1388101.000000
1389177.000000
1390462.000000
1391650.000000
1392685.000000
1393635.000000
1394702.000000
1396019.000000
1397248.000000
1398459.000000
1399609.000000
1400650.000000
1401662.000000
1402664.000000
1403712.000000
1404857.000000
1405938.000000
1406965.000000
1408046.000000
1409116.000000
1410102.000000
1411071.000000
1412115.000000
1413157.000000
1414119.000000
1415175.000000
1416230.000000
1417224.000000
1418261.000000
1419305.000000
1420284.000000
1421327.000000
1422469.000000
1423537.000000
1424541.000000
1425625.000000
1426703.000000
1427699.000000
1428738.000000
1429833.000000
1430919.000000
1431944.000000
1433028.000000
1434086.000000
1435063.000000
1436102.000000
1437243.000000
1438397.000000
1439468.000000
1440664.000000
1441804.000000
1442834.000000
1443834.000000
1444926.000000
1446060.000000
1447123.000000
1448278.000000
1449453.000000
1450539.000000
1451564.000000
1452633.000000
1453723.000000
1454718.000000
1455789.000000
1456878.000000
1457882.000000
1458922.000000
1460052.000000
1461084.000000
1462189.000000
1463349.000000
1464390.000000
1465394.000000
1466409.000000
1467737.000000
1469010.000000
1470136.000000
1471189.000000
1472198.000000
1473132.000000
1474019.000000
1474877.000000
1475840.000000
1476870.000000
1478022.000000
1479189.000000
1480313.000000
1481216.000000
1482105.000000
1483085.000000
1484148.000000
1485157.000000
1486145.000000
1487181.000000
1488255.000000
1489361.000000
1490433.000000
1491452.000000
1492446.000000
1493520.000000
1494667.000000
1495819.000000
1496930.000000
1497985.000000
1499105.000000
1500265.000000
1501470.000000
1502624.000000
1503718.000000
1504756.000000
1505745.000000
1506780.000000
1507937.000000
1509095.000000
1510182.000000
1511320.000000
1512425.000000
1513490.000000
1514474.000000
1515486.000000
1516587.000000
1517693.000000
1518748.000000
1519865.000000
1520980.000000
1522019.000000
1523089.000000
1524183.000000
1525208.000000
1526233.000000
1527329.000000
1528512.000000
1529713.000000
1530746.000000
1531799.000000
1532908.000000
1534021.000000
1535069.000000
1536171.000000
1537255.000000
1538356.000000
1539365.000000
1540480.000000
1541603.000000
1542626.000000
1543695.000000
1544827.000000
1545912.000000
1546904.000000
1547983.000000
1549234.000000
1550401.000000
1551473.000000
1552521.000000
1553638.000000
1554800.000000
1555876.000000
1556993.000000
1558171.000000
1559323.000000
1560349.000000
1561398.000000
1562475.000000
1563524.000000
1564545.000000
1565634.000000
1566724.000000
1567852.000000
1568920.000000
1569973.000000
1571069.000000
1572230.000000
1573359.000000
1574563.000000
1575775.000000
1576928.000000
1578011.000000
1579153.000000
1580321.000000
1581453.000000
1582564.000000
1583687.000000
1584767.000000
1585898.000000
1587060.000000
1588127.000000
1589231.000000
1590373.000000
1591438.000000
1592481.000000
1593607.000000
1594780.000000
1595841.000000
1596915.000000
1598033.000000
1599137.000000
1600142.000000
1601190.000000
1602249.000000
1603273.000000
1604338.000000
1605484.000000
1606591.000000
1607628.000000
1608718.000000
1609787.000000
1610779.000000
1611780.000000
1612836.000000
1613881.000000
1614857.000000
1615849.000000
1617034.000000
1618215.000000
1619457.000000
1620714.000000
1621837.000000
1622867.000000
1623858.000000
1624955.000000
1626125.000000
1627235.000000
1628310.000000
1629488.000000
1630675.000000
1631764.000000
1632873.000000
1633998.000000
1635079.000000
1636281.000000
1637508.000000
1638621.000000
1639672.000000
1640722.000000
1641865.000000
1643055.000000
1644178.000000
1645287.000000
1646462.000000
1647680.000000
1648862.000000
1650021.000000
1651147.000000
1652171.000000
1653128.000000
1653987.000000
1654806.000000
1655666.000000
1656656.000000
1657911.000000
1659180.000000
1660401.000000
1661604.000000
1662765.000000
1663898.000000
1665070.000000
1666190.000000
1667219.000000
1668260.000000
1669329.000000
1670476.000000
1671611.000000
1672771.000000
1673953.000000
1675100.000000
1676268.000000
1677457.000000
1678603.000000
1679763.000000
1680863.000000
1681894.000000
1682903.000000
1683948.000000
1685123.000000
1686405.000000
1687647.000000
1688826.000000
1689993.000000
1691134.000000
1692266.000000
1693400.000000
1694502.000000
1695635.000000
1696783.000000
1697865.000000
1698879.000000
1699848.000000
1700812.000000
1701819.000000
1702928.000000
1704057.000000
1705107.000000
1705995.000000
1706932.000000
1707818.000000
1708731.000000
1709658.000000
1710482.000000
1711341.000000
1712397.000000
1713505.000000
1714633.000000
1715688.000000
1716737.000000
1717763.000000
1718758.000000
1719710.000000
1720627.000000
1721548.000000
1722506.000000
1723607.000000
1724805.000000
1725980.000000
1727096.000000
1728215.000000
1729313.000000
1730408.000000
1731525.000000
1732651.000000
1733743.000000
1734892.000000
1736039.000000
1737239.000000
1738373.000000
1739451.000000
1740455.000000
1741430.000000
1742396.000000
1743458.000000
1744633.000000
1745854.000000
1747006.000000
1748096.000000
1749204.000000
1750261.000000
1751312.000000
1752391.000000
1753547.000000
1754720.000000
1755876.000000
1756984.000000
1758007.000000
1758987.000000
1759988.000000
1761060.000000
1762123.000000
1763237.000000
1764428.000000
1765663.000000
1766848.000000
1767993.000000
1769078.000000
1770104.000000
1771091.000000
1772085.000000
1773181.000000
1774414.000000
1775599.000000
1776749.000000
1777892.000000
1779038.000000
1780134.000000
1781182.000000
1782272.000000
1783324.000000
1784420.000000
1785509.000000
1786591.000000
1787688.000000
1788741.000000
1789717.000000
1790646.000000
1791554.000000
1792516.000000
1793651.000000
1794859.000000
1796008.000000
1797153.000000
