ECG (ms)
199.000000
1036.000000
1855.000000
2652.000000
3463.000000
4254.000000
5050.000000
5879.000000
6725.000000
7586.000000
8409.000000
9233.000000
10078.000000
10916.000000
11744.000000
12565.000000
13402.000000
14266.000000
15108.000000
15934.000000
16784.000000
17596.000000
18381.000000
19197.000000
20027.000000
20831.000000
21609.000000
22404.000000
23205.000000
23991.000000
24757.000000
25542.000000
26330.000000
27093.000000
27834.000000
28611.000000
29411.000000
30192.000000
30979.000000
31791.000000
32587.000000
33354.000000
34135.000000
34945.000000
35748.000000
36525.000000
37330.000000
38153.000000
38956.000000
39751.000000
40567.000000
41380.000000
42165.000000
42975.000000
43802.000000
44616.000000
45419.000000
46272.000000
47119.000000
47915.000000
48726.000000
49542.000000
50325.000000
51102.000000
51908.000000
52719.000000
53506.000000
54321.000000
55150.000000
55951.000000
56746.000000
57578.000000
58413.000000
59200.000000
60001.000000
60795.000000
61572.000000
62365.000000
63186.000000
63995.000000
64779.000000
65587.000000
66405.000000
67206.000000
68000.000000
68812.000000
69640.000000
70449.000000
71235.000000
72047.000000
72836.000000
73621.000000
74436.000000
75240.000000
76035.000000
76852.000000
77690.000000
78507.000000
79301.000000
80121.000000
80924.000000
81706.000000
82523.000000
83346.000000
84142.000000
84919.000000
85716.000000
86513.000000
87291.000000
88095.000000
88924.000000
89741.000000
90522.000000
91318.000000
92128.000000
92921.000000
93693.000000
94489.000000
95305.000000
96100.000000
96877.000000
97682.000000
98490.000000
99275.000000
100044.000000
100849.000000
101672.000000
102480.000000
103265.000000
104083.000000
104915.000000
105722.000000
106512.000000
107330.000000
108160.000000
108951.000000
109772.000000
110602.000000
111399.000000
112184.000000
112992.000000
113805.000000
114580.000000
115364.000000
116170.000000
116974.000000
117755.000000
118566.000000
119409.000000
120226.000000
121017.000000
121838.000000
122657.000000
123463.000000
124266.000000
125085.000000
125880.000000
126649.000000
127440.000000
128243.000000
129025.000000
129788.000000
130585.000000
131409.000000
132202.000000
132976.000000
133770.000000
134577.000000
135357.000000
136133.000000
136928.000000
137716.000000
138498.000000
139304.000000
140114.000000
140903.000000
141723.000000
142559.000000
143345.000000
144151.000000
144973.000000
145776.000000
146590.000000
147428.000000
148262.000000
149073.000000
149920.000000
150772.000000
151583.000000
152398.000000
153220.000000
154013.000000
154834.000000
155662.000000
156483.000000
157281.000000
158105.000000
158930.000000
159746.000000
160527.000000
161332.000000
162162.000000
163004.000000
163808.000000
164606.000000
165433.000000
166249.000000
167050.000000
167859.000000
168684.000000
169502.000000
170297.000000
171098.000000
171920.000000
172725.000000
173507.000000
174326.000000
175151.000000
175950.000000
176746.000000
177572.000000
178408.000000
179203.000000
180004.000000
180819.000000
181623.000000
182395.000000
183185.000000
183985.000000
184768.000000
185548.000000
186368.000000
187211.000000
188011.000000
188792.000000
189597.000000
190412.000000
191205.000000
191999.000000
192826.000000
193658.000000
194469.000000
195276.000000
196116.000000
196960.000000
197785.000000
198585.000000
199417.000000
200238.000000
201032.000000
201825.000000
202634.000000
203450.000000
204238.000000
205025.000000
205838.000000
206641.000000
207421.000000
208220.000000
209031.000000
209816.000000
210600.000000
211417.000000
212226.000000
213011.000000
213816.000000
214635.000000
215429.000000
216208.000000
217033.000000
217877.000000
218688.000000
219486.000000
220319.000000
221151.000000
221949.000000
222763.000000
223588.000000
224390.000000
225195.000000
226015.000000
226833.000000
227627.000000
228421.000000
229242.000000
230060.000000
230849.000000
231666.000000
232488.000000
233283.000000
234070.000000
234887.000000
235694.000000
236473.000000
237271.000000
238077.000000
238854.000000
239638.000000
240445.000000
241263.000000
242060.000000
242859.000000
243687.000000
244496.000000
245292.000000
246118.000000
246942.000000
247741.000000
248579.000000
249427.000000
250230.000000
251053.000000
251904.000000
252714.000000
253521.000000
254340.000000
255126.000000
255927.000000
256735.000000
257538.000000
258347.000000
259168.000000
260002.000000
260817.000000
261613.000000
262426.000000
263253.000000
264046.000000
264831.000000
265630.000000
266432.000000
267211.000000
267976.000000
268766.000000
269555.000000
270335.000000
271105.000000
271908.000000
272717.000000
273506.000000
274316.000000
275135.000000
275928.000000
276698.000000
277479.000000
278280.000000
279070.000000
279862.000000
280684.000000
281534.000000
282361.000000
283160.000000
283992.000000
284828.000000
285646.000000
286469.000000
287326.000000
288190.000000
289010.000000
289821.000000
290656.000000
291498.000000
292310.000000
293120.000000
293957.000000
294787.000000
295578.000000
296390.000000
297209.000000
297995.000000
298766.000000
299566.000000
300391.000000
301181.000000
301973.000000
302797.000000
303632.000000
304423.000000
305220.000000
306038.000000
306869.000000
307672.000000
308473.000000
309288.000000
310087.000000
310866.000000
311680.000000
312500.000000
313307.000000
314103.000000
314922.000000
315748.000000
316544.000000
317363.000000
318188.000000
318989.000000
319816.000000
320636.000000
321433.000000
322266.000000
323110.000000
323926.000000
324728.000000
325564.000000
326402.000000
327206.000000
328009.000000
328841.000000
329650.000000
330445.000000
331254.000000
332068.000000
332852.000000
333636.000000
334436.000000
335232.000000
336001.000000
336779.000000
337582.000000
338376.000000
339136.000000
339899.000000
340686.000000
341466.000000
342220.000000
342983.000000
343772.000000
344537.000000
345285.000000
346051.000000
346832.000000
347596.000000
348353.000000
349145.000000
349966.000000
350770.000000
351548.000000
352352.000000
353162.000000
353934.000000
354712.000000
355508.000000
356294.000000
357070.000000
357882.000000
358698.000000
359487.000000
360299.000000
361128.000000
361942.000000
362735.000000
363556.000000
364377.000000
365178.000000
365987.000000
366825.000000
367689.000000
368493.000000
369302.000000
370130.000000
370938.000000
371738.000000
372564.000000
373403.000000
374217.000000
375054.000000
375891.000000
376693.000000
377496.000000
378321.000000
379131.000000
379919.000000
380737.000000
381560.000000
382353.000000
383172.000000
384006.000000
384816.000000
385625.000000
386458.000000
387298.000000
388108.000000
388956.000000
389841.000000
390685.000000
391503.000000
392349.000000
393196.000000
393985.000000
394779.000000
395590.000000
396394.000000
397197.000000
398031.000000
398878.000000
399701.000000
400522.000000
401375.000000
402244.000000
403075.000000
403897.000000
404744.000000
405564.000000
406371.000000
407200.000000
408028.000000
408829.000000
409626.000000
410447.000000
411273.000000
412080.000000
412878.000000
413709.000000
414527.000000
415319.000000
416141.000000
416967.000000
417767.000000
418582.000000
419402.000000
420216.000000
421021.000000
421862.000000
422685.000000
423499.000000
424346.000000
425213.000000
426066.000000
426897.000000
427748.000000
428595.000000
429414.000000
430245.000000
431108.000000
431954.000000
432760.000000
433591.000000
434453.000000
435303.000000
436113.000000
436945.000000
437793.000000
438615.000000
439420.000000
440259.000000
441116.000000
441944.000000
442747.000000
443583.000000
444429.000000
445248.000000
446102.000000
446969.000000
447805.000000
448634.000000
449488.000000
450360.000000
451208.000000
452036.000000
452895.000000
453776.000000
454615.000000
455460.000000
456317.000000
457149.000000
457958.000000
458792.000000
459603.000000
460429.000000
461277.000000
462092.000000
462890.000000
463713.000000
464537.000000
465350.000000
466186.000000
467026.000000
467826.000000
468631.000000
469461.000000
470260.000000
471064.000000
471889.000000
472688.000000
473478.000000
474292.000000
475112.000000
475911.000000
476729.000000
477582.000000
478406.000000
479201.000000
480009.000000
480844.000000
481650.000000
482451.000000
483298.000000
484158.000000
484978.000000
485782.000000
486627.000000
487498.000000
488358.000000
489170.000000
489993.000000
490856.000000
491721.000000
492564.000000
493359.000000
494163.000000
494923.000000
495629.000000
496329.000000
497024.000000
497766.000000
498541.000000
499303.000000
500050.000000
500828.000000
501621.000000
502406.000000
503164.000000
503945.000000
504742.000000
505555.000000
506352.000000
507179.000000
508026.000000
508863.000000
509686.000000
510542.000000
511382.000000
512192.000000
513029.000000
513893.000000
514714.000000
515529.000000
516386.000000
517248.000000
518087.000000
518906.000000
519764.000000
520613.000000
521443.000000
522246.000000
523074.000000
523916.000000
524740.000000
525569.000000
526416.000000
527265.000000
528086.000000
528924.000000
529794.000000
530653.000000
531458.000000
532247.000000
533070.000000
533903.000000
534688.000000
535474.000000
536292.000000
537099.000000
537892.000000
538732.000000
539595.000000
540418.000000
541229.000000
542072.000000
542923.000000
543744.000000
544579.000000
545438.000000
546305.000000
547141.000000
547953.000000
548776.000000
549617.000000
550439.000000
551245.000000
552084.000000
552933.000000
553739.000000
554545.000000
555399.000000
556233.000000
557034.000000
557866.000000
558700.000000
559507.000000
560313.000000
561147.000000
561969.000000
562760.000000
563567.000000
564392.000000
565195.000000
565981.000000
566797.000000
567607.000000
568384.000000
569180.000000
569994.000000
570783.000000
571572.000000
572403.000000
573222.000000
574019.000000
574850.000000
575684.000000
576487.000000
577300.000000
578145.000000
578972.000000
579767.000000
580607.000000
581456.000000
582263.000000
583064.000000
583888.000000
584717.000000
585543.000000
586421.000000
587307.000000
588137.000000
588987.000000
589843.000000
590673.000000
591480.000000
592314.000000
593130.000000
593929.000000
594757.000000
595600.000000
596414.000000
597209.000000
598040.000000
598883.000000
599703.000000
600546.000000
601408.000000
602277.000000
603094.000000
603919.000000
604760.000000
605611.000000
606435.000000
607279.000000
608134.000000
608954.000000
609764.000000
610613.000000
611466.000000
612301.000000
613114.000000
613957.000000
614811.000000
615636.000000
616447.000000
617275.000000
618093.000000
618893.000000
619728.000000
620561.000000
621360.000000
622151.000000
622960.000000
623779.000000
624584.000000
625380.000000
626199.000000
627064.000000
627892.000000
628706.000000
629562.000000
630421.000000
631234.000000
632042.000000
632886.000000
633718.000000
634519.000000
635350.000000
636187.000000
637005.000000
637827.000000
638696.000000
639573.000000
640396.000000
641232.000000
642083.000000
642914.000000
643732.000000
644583.000000
645426.000000
646242.000000
647078.000000
647929.000000
648770.000000
649584.000000
650414.000000
651262.000000
652105.000000
652906.000000
653726.000000
654563.000000
655388.000000
656196.000000
657026.000000
657868.000000
658672.000000
659475.000000
660312.000000
661157.000000
661977.000000
662809.000000
663658.000000
664478.000000
665299.000000
666140.000000
666991.000000
667801.000000
668634.000000
669495.000000
670341.000000
671160.000000
672018.000000
672887.000000
673719.000000
674546.000000
675408.000000
676246.000000
677048.000000
677884.000000
678753.000000
679644.000000
680481.000000
681296.000000
682146.000000
682986.000000
683798.000000
684634.000000
685491.000000
686338.000000
687171.000000
688028.000000
688917.000000
689741.000000
690549.000000
691389.000000
692246.000000
693065.000000
693887.000000
694744.000000
695604.000000
696428.000000
697242.000000
698094.000000
698947.000000
699754.000000
700582.000000
701436.000000
702241.000000
703038.000000
703870.000000
704713.000000
705529.000000
706337.000000
707173.000000
708030.000000
708847.000000
709681.000000
710520.000000
711329.000000
712161.000000
713014.000000
713874.000000
714725.000000
715540.000000
716376.000000
717230.000000
718057.000000
718869.000000
719719.000000
720592.000000
721430.000000
722261.000000
723124.000000
723962.000000
724782.000000
725632.000000
726487.000000
727300.000000
728128.000000
728972.000000
729787.000000
730634.000000
731485.000000
732333.000000
733166.000000
734024.000000
734881.000000
735710.000000
736517.000000
737354.000000
738212.000000
739044.000000
739863.000000
740697.000000
741558.000000
742381.000000
743184.000000
744021.000000
744878.000000
745695.000000
746537.000000
747389.000000
748212.000000
749017.000000
749839.000000
750672.000000
751486.000000
752285.000000
753103.000000
753943.000000
754754.000000
755557.000000
756394.000000
757239.000000
758043.000000
758825.000000
759620.000000
760437.000000
761242.000000
762028.000000
762838.000000
763668.000000
764470.000000
765269.000000
766100.000000
766938.000000
767773.000000
768590.000000
769410.000000
770242.000000
771064.000000
771877.000000
772723.000000
773574.000000
774430.000000
775266.000000
776092.000000
776930.000000
777774.000000
778578.000000
779335.000000
780093.000000
780894.000000
781757.000000
782597.000000
783408.000000
784261.000000
785117.000000
785937.000000
786775.000000
787639.000000
788516.000000
789393.000000
790280.000000
791141.000000
791966.000000
792817.000000
793673.000000
794514.000000
795335.000000
796190.000000
797045.000000
797870.000000
798732.000000
799605.000000
800444.000000
801279.000000
802153.000000
803009.000000
803843.000000
804689.000000
805546.000000
806404.000000
807230.000000
808093.000000
808953.000000
809801.000000
810631.000000
811456.000000
812322.000000
813195.000000
814020.000000
814829.000000
815651.000000
816484.000000
817299.000000
818112.000000
818948.000000
819775.000000
820589.000000
821426.000000
822260.000000
823066.000000
823883.000000
824705.000000
825542.000000
826368.000000
827191.000000
828026.000000
828868.000000
829682.000000
830492.000000
831324.000000
832168.000000
833002.000000
833857.000000
834727.000000
835560.000000
836404.000000
837272.000000
838094.000000
838903.000000
839739.000000
840558.000000
841351.000000
842156.000000
842974.000000
843784.000000
844566.000000
845346.000000
846149.000000
846939.000000
847710.000000
848500.000000
849302.000000
850087.000000
850865.000000
851676.000000
852494.000000
853277.000000
854066.000000
854885.000000
855706.000000
856505.000000
857331.000000
858171.000000
859021.000000
859835.000000
860647.000000
861478.000000
862316.000000
863132.000000
863943.000000
864773.000000
865626.000000
866462.000000
867262.000000
868097.000000
868937.000000
869754.000000
870576.000000
871409.000000
872217.000000
873028.000000
873845.000000
874646.000000
875437.000000
876242.000000
877084.000000
877910.000000
878711.000000
879543.000000
880373.000000
881167.000000
881964.000000
882791.000000
883617.000000
884417.000000
885254.000000
886099.000000
886951.000000
887779.000000
888585.000000
889425.000000
890273.000000
891089.000000
891896.000000
892728.000000
893561.000000
894354.000000
895144.000000
895964.000000
896806.000000
897631.000000
898441.000000
899289.000000
900158.000000
900997.000000
901797.000000
902625.000000
903450.000000
904248.000000
905074.000000
905906.000000
906734.000000
907543.000000
908377.000000
909230.000000
910094.000000
910900.000000
911685.000000
912448.000000
913234.000000
914040.000000
914836.000000
915641.000000
916480.000000
917325.000000
918125.000000
918956.000000
919782.000000
920589.000000
921424.000000
922251.000000
923060.000000
923906.000000
924749.000000
925587.000000
926391.000000
927199.000000
928049.000000
928900.000000
929719.000000
930558.000000
931413.000000
932242.000000
933059.000000
933885.000000
934712.000000
935510.000000
936340.000000
937189.000000
938004.000000
938827.000000
939659.000000
940487.000000
941290.000000
942125.000000
942968.000000
943764.000000
944489.000000
945195.000000
945970.000000
946767.000000
947587.000000
948396.000000
949246.000000
950124.000000
950956.000000
951803.000000
952657.000000
953487.000000
954354.000000
955182.000000
956031.000000
956903.000000
957744.000000
958569.000000
959418.000000
960263.000000
961097.000000
961893.000000
962706.000000
963530.000000
964332.000000
965157.000000
965989.000000
966803.000000
967591.000000
968407.000000
969247.000000
970067.000000
970914.000000
971775.000000
972627.000000
973460.000000
974308.000000
975168.000000
976006.000000
976837.000000
977684.000000
978509.000000
979328.000000
980171.000000
981014.000000
981828.000000
982641.000000
983470.000000
984304.000000
985113.000000
985937.000000
986779.000000
987608.000000
988428.000000
989254.000000
990085.000000
990919.000000
991722.000000
992513.000000
993342.000000
994189.000000
995056.000000
995877.000000
996701.000000
997552.000000
998411.000000
999236.000000
1000053.000000
1000898.000000
1001749.000000
1002582.000000
1003405.000000
1004260.000000
1005085.000000
1005920.000000
1006765.000000
1007575.000000
1008382.000000
1009206.000000
1010039.000000
1010844.000000
1011631.000000
1012435.000000
1013246.000000
1014029.000000
1014790.000000
1015578.000000
1016375.000000
1017159.000000
1017958.000000
1018788.000000
1019619.000000
1020461.000000
1021313.000000
1022148.000000
1022963.000000
1023815.000000
1024663.000000
1025498.000000
1026281.000000
1027059.000000
1027859.000000
1028692.000000
1029508.000000
1030337.000000
1031191.000000
1032040.000000
1032864.000000
1033675.000000
1034514.000000
1035336.000000
1036141.000000
1036984.000000
1037840.000000
1038656.000000
1039482.000000
1040320.000000
1041134.000000
1041977.000000
1042820.000000
1043650.000000
1044475.000000
1045321.000000
1046170.000000
1046980.000000
1047755.000000
1048462.000000
1049250.000000
1050053.000000
1050884.000000
1051700.000000
1052522.000000
1053370.000000
1054193.000000
1055002.000000
1055836.000000
1056661.000000
1057465.000000
1058293.000000
1059136.000000
1059998.000000
1060861.000000
1061675.000000
1062502.000000
1063353.000000
1064220.000000
1065039.000000
1065880.000000
1066733.000000
1067582.000000
1068394.000000
1069225.000000
1070079.000000
1070935.000000
1071764.000000
1072583.000000
1073399.000000
1074197.000000
1075032.000000
1075886.000000
1076757.000000
1077619.000000
1078444.000000
1079266.000000
1080107.000000
1080965.000000
1081813.000000
1082640.000000
1083492.000000
1084343.000000
1085164.000000
1085964.000000
1086793.000000
1087627.000000
1088435.000000
1089249.000000
1090069.000000
1090863.000000
1091641.000000
1092447.000000
1093265.000000
1094060.000000
1094876.000000
1095705.000000
1096528.000000
1097309.000000
1098076.000000
1098859.000000
1099654.000000
1100432.000000
1101212.000000
1102018.000000
1102812.000000
1103580.000000
1104359.000000
1105160.000000
1105944.000000
1106694.000000
1107420.000000
1108112.000000
1108848.000000
1109587.000000
1110321.000000
1111049.000000
1111802.000000
1112569.000000
1113319.000000
1114074.000000
1114863.000000
1115661.000000
1116447.000000
1117263.000000
1118088.000000
1118924.000000
1119736.000000
1120528.000000
1121344.000000
1122168.000000
1122958.000000
1123762.000000
1124566.000000
1125370.000000
1126136.000000
1126874.000000
1127622.000000
1128381.000000
1129162.000000
1129947.000000
1130731.000000
1131497.000000
1132273.000000
1133059.000000
1133840.000000
1134606.000000
1135396.000000
1136176.000000
1136938.000000
1137716.000000
1138518.000000
1139320.000000
1140123.000000
1140951.000000
1141783.000000
1142572.000000
1143287.000000
1144001.000000
1144768.000000
1145534.000000
1146323.000000
1147129.000000
1147938.000000
1148739.000000
1149525.000000
1150344.000000
1151182.000000
1152000.000000
1152848.000000
1153711.000000
1154589.000000
1155462.000000
1156332.000000
1157202.000000
1158037.000000
1158888.000000
1159747.000000
1160592.000000
1161434.000000
1162283.000000
1163122.000000
1163938.000000
1164778.000000
1165625.000000
1166455.000000
1167316.000000
1168150.000000
1168996.000000
1169829.000000
1170652.000000
1171494.000000
1172341.000000
1173167.000000
1173965.000000
1174792.000000
1175618.000000
1176418.000000
1177220.000000
1178020.000000
1178794.000000
1179540.000000
1180252.000000
1181040.000000
1181835.000000
1182617.000000
1183391.000000
1184204.000000
1185023.000000
1185819.000000
1186626.000000
1187450.000000
1188268.000000
1189090.000000
1189925.000000
1190769.000000
1191618.000000
1192433.000000
1193258.000000
1194100.000000
1194936.000000
