ECG (ms)
97.000000
1156.000000
2335.000000
3509.000000
4607.000000
5820.000000
6967.000000
8150.000000
9339.000000
10477.000000
11636.000000
12692.000000
13953.000000
15188.000000
16444.000000
17599.000000
18689.000000
19803.000000
20819.000000
21918.000000
22999.000000
24066.000000
25172.000000
26340.000000
27528.000000
28719.000000
29857.000000
31115.000000
32337.000000
33549.000000
34881.000000
36182.000000
37419.000000
38513.000000
39356.000000
40719.000000
41984.000000
42876.000000
43994.000000
45291.000000
46554.000000
47801.000000
49033.000000
50300.000000
51566.000000
52845.000000
54169.000000
55494.000000
56746.000000
58002.000000
59236.000000
60485.000000
61754.000000
63018.000000
64212.000000
65417.000000
66660.000000
67944.000000
69200.000000
70429.000000
71685.000000
73035.000000
74366.000000
75686.000000
76901.000000
78111.000000
79343.000000
80514.000000
81745.000000
82966.000000
84178.000000
85410.000000
86556.000000
87784.000000
89051.000000
90218.000000
91406.000000
92517.000000
93750.000000
95016.000000
96198.000000
97393.000000
98547.000000
99691.000000
100865.000000
102038.000000
103152.000000
104332.000000
105455.000000
106529.000000
107499.000000
108300.000000
109116.000000
110200.000000
111387.000000
112479.000000
113571.000000
114646.000000
115633.000000
116622.000000
117594.000000
118643.000000
119793.000000
120959.000000
122073.000000
123171.000000
124355.000000
125481.000000
126610.000000
127786.000000
128856.000000
129944.000000
131169.000000
132370.000000
133577.000000
134712.000000
135843.000000
137017.000000
138114.000000
139272.000000
140471.000000
141600.000000
142846.000000
144037.000000
145341.000000
146576.000000
147647.000000
148884.000000
150141.000000
151296.000000
152559.000000
153736.000000
154895.000000
156084.000000
157259.000000
158477.000000
159802.000000
160946.000000
162154.000000
163326.000000
164416.000000
165658.000000
166857.000000
168128.000000
169307.000000
170469.000000
171740.000000
172960.000000
174144.000000
175277.000000
176335.000000
177566.000000
178754.000000
179946.000000
181184.000000
182380.000000
183674.000000
184878.000000
186153.000000
187420.000000
188598.000000
189897.000000
191104.000000
192360.000000
193645.000000
194890.000000
196122.000000
197267.000000
198448.000000
199630.000000
200847.000000
202098.000000
203326.000000
204515.000000
205814.000000
207086.000000
208342.000000
209559.000000
210866.000000
212065.000000
213249.000000
214501.000000
215662.000000
216884.000000
218050.000000
219180.000000
220362.000000
221456.000000
222625.000000
223842.000000
224950.000000
226102.000000
227024.000000
227862.000000
228643.000000
229433.000000
230937.000000
232196.000000
233422.000000
234660.000000
235849.000000
236985.000000
238200.000000
239474.000000
240696.000000
241954.000000
243202.000000
244396.000000
245593.000000
246865.000000
248168.000000
249409.000000
250531.000000
251393.000000
252184.000000
253620.000000
254821.000000
255703.000000
256993.000000
258224.000000
259437.000000
260563.000000
261737.000000
262883.000000
264065.000000
265268.000000
266495.000000
267661.000000
268873.000000
270055.000000
271223.000000
272369.000000
273422.000000
274656.000000
275899.000000
277064.000000
278134.000000
279306.000000
280588.000000
281774.000000
282916.000000
284135.000000
285349.000000
286467.000000
287650.000000
288854.000000
290025.000000
291255.000000
292485.000000
293665.000000
294924.000000
296142.000000
297375.000000
298677.000000
299878.000000
300957.000000
302190.000000
303486.000000
304815.000000
306076.000000
307228.000000
308285.000000
309489.000000
310663.000000
311721.000000
312571.000000
313479.000000
314785.000000
315834.000000
316696.000000
317657.000000
318900.000000
320081.000000
321175.000000
322195.000000
323283.000000
324431.000000
325569.000000
326673.000000
327807.000000
328878.000000
329988.000000
331102.000000
332261.000000
333448.000000
334619.000000
335792.000000
336960.000000
338086.000000
339176.000000
340408.000000
341597.000000
342731.000000
343988.000000
345216.000000
346436.000000
347678.000000
348813.000000
350010.000000
351151.000000
352333.000000
353578.000000
354688.000000
355881.000000
357077.000000
358187.000000
359419.000000
360573.000000
361675.000000
362852.000000
364000.000000
365218.000000
366408.000000
367542.000000
368728.000000
370030.000000
371202.000000
372364.000000
373538.000000
374720.000000
375937.000000
377087.000000
378292.000000
379410.000000
380500.000000
381624.000000
382675.000000
383801.000000
385035.000000
386158.000000
387391.000000
388635.000000
389779.000000
390961.000000
392028.000000
393138.000000
394271.000000
395407.000000
396560.000000
397566.000000
398549.000000
399525.000000
400354.000000
401169.000000
402283.000000
403301.000000
404110.000000
404885.000000
406048.000000
407179.000000
408241.000000
409336.000000
410586.000000
411843.000000
413042.000000
414306.000000
415572.000000
416869.000000
418106.000000
419314.000000
420620.000000
421857.000000
423156.000000
424404.000000
425634.000000
426900.000000
428027.000000
429191.000000
430313.000000
431391.000000
432406.000000
433707.000000
434927.000000
436147.000000
437396.000000
438503.000000
439711.000000
440883.000000
441989.000000
443163.000000
444307.000000
445480.000000
446775.000000
447950.000000
449174.000000
450336.000000
451452.000000
452692.000000
453875.000000
454987.000000
456192.000000
457365.000000
458506.000000
459762.000000
460926.000000
462042.000000
463076.000000
464003.000000
464808.000000
465568.000000
466831.000000
467938.000000
469172.000000
470365.000000
471491.000000
472674.000000
473803.000000
474962.000000
476208.000000
477344.000000
478568.000000
479809.000000
480923.000000
482068.000000
483243.000000
484432.000000
485908.000000
487252.000000
488505.000000
489804.000000
491009.000000
492208.000000
493438.000000
494532.000000
495692.000000
496799.000000
497760.000000
498646.000000
499625.000000
500560.000000
501756.000000
502910.000000
504067.000000
505211.000000
506349.000000
507548.000000
508669.000000
509840.000000
511090.000000
512300.000000
513532.000000
514726.000000
515946.000000
517172.000000
518428.000000
519681.000000
520852.000000
521998.000000
522971.000000
523945.000000
524757.000000
525611.000000
527062.000000
528282.000000
529539.000000
530614.000000
531851.000000
533006.000000
534122.000000
535307.000000
536365.000000
537573.000000
538771.000000
539867.000000
541140.000000
542354.000000
543510.000000
544671.000000
545859.000000
547061.000000
548165.000000
549299.000000
550506.000000
551614.000000
552728.000000
553807.000000
554755.000000
555856.000000
557021.000000
558202.000000
559330.000000
560484.000000
561579.000000
562714.000000
563882.000000
564984.000000
566158.000000
567278.000000
568369.000000
569284.000000
570061.000000
570830.000000
571701.000000
572516.000000
573446.000000
574823.000000
576075.000000
577317.000000
578526.000000
579718.000000
580923.000000
582095.000000
583309.000000
584548.000000
585791.000000
587011.000000
588243.000000
589466.000000
590652.000000
591732.000000
592912.000000
594083.000000
595286.000000
596500.000000
597606.000000
598854.000000
600020.000000
601221.000000
602483.000000
603636.000000
604890.000000
606116.000000
607313.000000
608563.000000
609735.000000
610976.000000
612240.000000
613397.000000
614600.000000
615771.000000
616939.000000
618183.000000
619323.000000
620526.000000
621677.000000
622857.000000
624043.000000
625160.000000
626340.000000
627394.000000
628512.000000
629720.000000
630869.000000
632057.000000
633175.000000
634349.000000
635536.000000
636657.000000
637840.000000
638932.000000
640001.000000
641200.000000
642356.000000
643546.000000
644767.000000
645938.000000
647131.000000
648323.000000
649439.000000
650533.000000
651596.000000
652668.000000
653798.000000
654914.000000
656062.000000
657190.000000
658223.000000
659311.000000
660414.000000
661494.000000
662652.000000
663760.000000
664795.000000
665886.000000
666959.000000
667836.000000
668615.000000
669736.000000
670650.000000
671469.000000
672751.000000
673941.000000
675165.000000
676326.000000
677515.000000
678741.000000
679938.000000
681216.000000
682493.000000
683820.000000
685129.000000
686316.000000
687452.000000
688686.000000
689942.000000
691164.000000
692405.000000
693568.000000
694629.000000
695838.000000
697091.000000
698319.000000
699568.000000
700983.000000
702338.000000
703572.000000
704767.000000
706010.000000
707216.000000
708388.000000
709611.000000
710747.000000
711943.000000
713200.000000
714349.000000
715546.000000
716736.000000
717877.000000
719109.000000
720230.000000
721326.000000
722605.000000
723752.000000
724982.000000
726141.000000
727290.000000
728481.000000
729431.000000
730404.000000
731563.000000
732674.000000
734030.000000
735232.000000
736403.000000
737620.000000
738816.000000
739950.000000
741119.000000
742305.000000
743390.000000
744558.000000
745794.000000
746932.000000
748101.000000
749237.000000
750323.000000
751460.000000
752575.000000
753680.000000
754901.000000
756079.000000
757316.000000
758612.000000
759793.000000
761012.000000
762178.000000
763225.000000
764351.000000
765382.000000
766576.000000
767661.000000
768614.000000
769445.000000
770293.000000
771595.000000
772839.000000
774045.000000
775172.000000
776331.000000
777475.000000
778444.000000
779534.000000
780723.000000
781800.000000
782911.000000
784137.000000
785299.000000
786521.000000
787805.000000
789028.000000
790307.000000
791577.000000
792767.000000
793981.000000
795236.000000
796375.000000
797605.000000
798804.000000
800058.000000
801350.000000
802491.000000
803732.000000
804950.000000
806063.000000
807251.000000
808460.000000
809607.000000
810798.000000
811954.000000
813167.000000
814375.000000
815530.000000
816745.000000
817928.000000
819119.000000
820347.000000
821554.000000
822674.000000
823882.000000
825030.000000
826171.000000
827345.000000
828380.000000
829502.000000
830649.000000
831750.000000
832967.000000
834127.000000
835256.000000
836391.000000
837463.000000
838611.000000
839723.000000
840913.000000
842125.000000
843247.000000
844209.000000
845029.000000
846038.000000
847210.000000
848147.000000
848968.000000
849860.000000
850957.000000
852085.000000
853282.000000
854454.000000
855623.000000
856720.000000
857872.000000
859065.000000
860266.000000
861496.000000
862706.000000
863956.000000
865190.000000
866395.000000
867690.000000
868976.000000
870328.000000
871648.000000
872743.000000
873930.000000
875128.000000
876106.000000
877248.000000
878485.000000
879691.000000
880945.000000
882183.000000
883284.000000
884355.000000
885299.000000
886527.000000
887743.000000
888870.000000
889895.000000
890999.000000
892033.000000
892993.000000
893861.000000
894756.000000
895695.000000
896484.000000
897341.000000
898510.000000
899641.000000
900743.000000
901830.000000
902957.000000
904142.000000
905392.000000
906558.000000
907702.000000
908985.000000
910263.000000
911618.000000
912901.000000
914093.000000
915325.000000
916564.000000
917714.000000
918915.000000
920062.000000
921322.000000
922645.000000
923877.000000
925202.000000
926449.000000
927640.000000
928852.000000
930022.000000
931258.000000
932522.000000
933724.000000
934978.000000
936226.000000
937427.000000
938620.000000
939878.000000
941137.000000
942326.000000
943503.000000
944756.000000
945996.000000
947180.000000
948391.000000
949630.000000
950799.000000
952037.000000
953307.000000
954593.000000
955736.000000
956957.000000
958241.000000
959440.000000
960598.000000
961816.000000
963025.000000
964209.000000
965529.000000
966811.000000
968042.000000
969221.000000
970218.000000
971038.000000
972065.000000
973237.000000
974505.000000
975763.000000
976926.000000
978160.000000
979403.000000
980581.000000
981879.000000
983112.000000
984350.000000
985694.000000
986985.000000
988278.000000
989547.000000
990723.000000
991964.000000
993138.000000
994372.000000
995592.000000
996663.000000
997847.000000
999012.000000
1000195.000000
1001449.000000
1002635.000000
1003664.000000
1004578.000000
1005729.000000
1006928.000000
1008049.000000
1009148.000000
1010390.000000
1011597.000000
1012716.000000
1013914.000000
1015102.000000
1016343.000000
1017570.000000
1018728.000000
1020098.000000
1021409.000000
1022642.000000
1023852.000000
1025113.000000
1026346.000000
1027627.000000
1028877.000000
1030185.000000
1031438.000000
1032704.000000
1033958.000000
1035114.000000
1036433.000000
1037752.000000
1038981.000000
1040239.000000
1041456.000000
1042680.000000
1043908.000000
1045088.000000
1046325.000000
1047489.000000
1048514.000000
1049709.000000
1051006.000000
1052247.000000
1053446.000000
1054676.000000
1055807.000000
1056861.000000
1057938.000000
1058948.000000
1059874.000000
1061196.000000
1062472.000000
1063706.000000
1064993.000000
1066133.000000
1067322.000000
1068494.000000
1069582.000000
1070782.000000
1071965.000000
1073177.000000
1074493.000000
1075694.000000
1076896.000000
1078094.000000
1079246.000000
1080455.000000
1081676.000000
1082906.000000
1084223.000000
1085466.000000
1086720.000000
1087986.000000
1089193.000000
1090424.000000
1091587.000000
1092762.000000
1094027.000000
1095223.000000
1096442.000000
1097685.000000
1098895.000000
1100179.000000
1101390.000000
1102492.000000
1103836.000000
1105098.000000
1106242.000000
1107489.000000
1108653.000000
1109854.000000
1111082.000000
1112314.000000
1113687.000000
1114981.000000
1116192.000000
1117455.000000
1118686.000000
1119829.000000
1121101.000000
1122041.000000
1122852.000000
1124325.000000
1125641.000000
1127027.000000
1128312.000000
1129541.000000
1130860.000000
1132125.000000
1133330.000000
1134621.000000
1135943.000000
1137189.000000
1138420.000000
1139719.000000
1140893.000000
1142158.000000
1143417.000000
1144691.000000
1145998.000000
1147213.000000
1148373.000000
1149632.000000
1150797.000000
1152010.000000
1153262.000000
1154402.000000
1155623.000000
1156833.000000
1157934.000000
1159129.000000
1160339.000000
1161523.000000
1162748.000000
1163926.000000
1165138.000000
1166368.000000
1167516.000000
1168679.000000
1169858.000000
1170964.000000
1172136.000000
1173247.000000
1174299.000000
1175489.000000
1176450.000000
1177292.000000
1178049.000000
1178809.000000
1180086.000000
1181265.000000
1182547.000000
1183720.000000
1184909.000000
1186118.000000
1187220.000000
1188354.000000
1189519.000000
1190624.000000
1191515.000000
1192384.000000
1193822.000000
1195208.000000
1196530.000000
1197818.000000
1198970.000000
1200260.000000
1201525.000000
1202709.000000
1203914.000000
1205216.000000
1206613.000000
1207919.000000
1209173.000000
1210478.000000
1211759.000000
