ECG (ms)
424.000000
991.000000
1566.000000
2147.000000
2731.000000
3324.000000
3928.000000
4526.000000
5117.000000
5706.000000
6293.000000
6884.000000
7481.000000
8082.000000
8682.000000
9272.000000
9854.000000
10437.000000
11029.000000
11625.000000
12231.000000
12846.000000
13461.000000
14078.000000
14684.000000
15285.000000
15886.000000
16486.000000
17084.000000
17672.000000
18263.000000
18869.000000
19497.000000
20128.000000
20753.000000
21361.000000
21956.000000
22542.000000
23128.000000
23717.000000
24317.000000
24923.000000
25531.000000
26147.000000
26755.000000
27353.000000
27949.000000
28545.000000
29142.000000
29736.000000
30320.000000
30895.000000
31464.000000
32030.000000
32594.000000
33159.000000
33721.000000
34265.000000
34804.000000
35348.000000
35905.000000
36471.000000
37044.000000
37621.000000
38199.000000
38775.000000
39356.000000
39938.000000
40518.000000
41096.000000
41675.000000
42252.000000
42831.000000
43418.000000
44010.000000
44603.000000
45199.000000
45795.000000
46386.000000
46977.000000
47581.000000
48201.000000
48834.000000
49467.000000
50078.000000
50674.000000
51259.000000
51840.000000
52417.000000
52995.000000
53570.000000
54157.000000
54753.000000
55352.000000
55958.000000
56561.000000
57162.000000
57766.000000
58366.000000
58966.000000
59561.000000
60158.000000
60759.000000
61357.000000
61957.000000
62555.000000
63149.000000
63744.000000
64333.000000
64920.000000
65506.000000
66097.000000
66688.000000
67288.000000
67886.000000
68488.000000
69096.000000
69712.000000
70333.000000
70957.000000
71583.000000
72207.000000
72821.000000
73434.000000
74043.000000
74642.000000
75235.000000
75823.000000
76410.000000
76999.000000
77583.000000
78164.000000
78741.000000
79317.000000
79897.000000
80482.000000
81072.000000
81663.000000
82244.000000
82825.000000
83408.000000
83991.000000
84580.000000
85168.000000
85760.000000
86356.000000
86951.000000
87546.000000
88140.000000
88729.000000
89320.000000
89909.000000
90501.000000
91091.000000
91683.000000
92272.000000
92856.000000
93437.000000
94014.000000
94592.000000
95167.000000
95742.000000
96316.000000
96891.000000
97465.000000
98038.000000
98615.000000
99194.000000
99779.000000
100370.000000
100960.000000
101562.000000
102165.000000
102774.000000
103380.000000
103985.000000
104585.000000
105176.000000
105768.000000
106355.000000
106943.000000
107529.000000
108116.000000
108710.000000
109307.000000
109895.000000
110472.000000
111048.000000
111628.000000
112212.000000
112801.000000
113398.000000
114005.000000
114609.000000
115215.000000
115820.000000
116420.000000
117015.000000
117604.000000
118184.000000
118760.000000
119336.000000
119911.000000
120490.000000
121068.000000
121647.000000
122223.000000
122794.000000
123360.000000
123924.000000
124492.000000
125062.000000
125638.000000
126217.000000
126795.000000
127371.000000
127951.000000
128538.000000
129126.000000
129719.000000
130307.000000
130890.000000
131469.000000
132043.000000
132599.000000
133144.000000
133690.000000
134244.000000
134811.000000
135385.000000
135961.000000
136541.000000
137126.000000
137710.000000
138298.000000
138885.000000
139466.000000
140040.000000
140610.000000
141177.000000
141744.000000
142314.000000
142896.000000
143483.000000
144083.000000
144693.000000
145309.000000
145919.000000
146532.000000
147142.000000
147748.000000
148347.000000
148936.000000
149521.000000
150105.000000
150692.000000
151284.000000
151880.000000
152486.000000
153099.000000
153722.000000
154342.000000
154953.000000
155558.000000
156154.000000
156743.000000
157331.000000
157919.000000
158513.000000
159109.000000
159708.000000
160301.000000
160893.000000
161487.000000
162085.000000
162690.000000
163297.000000
163907.000000
164509.000000
165109.000000
165709.000000
166308.000000
166902.000000
167499.000000
168095.000000
168695.000000
169308.000000
169928.000000
170550.000000
171173.000000
171792.000000
172407.000000
173016.000000
173618.000000
174214.000000
174810.000000
175406.000000
176000.000000
176597.000000
177197.000000
177794.000000
178397.000000
179008.000000
179622.000000
180245.000000
180867.000000
181486.000000
182101.000000
182712.000000
183320.000000
183926.000000
184531.000000
185129.000000
185723.000000
186322.000000
186935.000000
187574.000000
188230.000000
188880.000000
189524.000000
190158.000000
190785.000000
191403.000000
192016.000000
192625.000000
193227.000000
193826.000000
194425.000000
195024.000000
195631.000000
196242.000000
196859.000000
197489.000000
198121.000000
198763.000000
199412.000000
200055.000000
200690.000000
201318.000000
201936.000000
202547.000000
203160.000000
203769.000000
204372.000000
204970.000000
205566.000000
206161.000000
206751.000000
207344.000000
207940.000000
208540.000000
209141.000000
209742.000000
210335.000000
210929.000000
211524.000000
212107.000000
212689.000000
213264.000000
213832.000000
214386.000000
214940.000000
215511.000000
216097.000000
216696.000000
217299.000000
217910.000000
218512.000000
219109.000000
219700.000000
220294.000000
220890.000000
221503.000000
222146.000000
222795.000000
223450.000000
224104.000000
224757.000000
225398.000000
226025.000000
226641.000000
227255.000000
227853.000000
228458.000000
229064.000000
229681.000000
230313.000000
230971.000000
231653.000000
232321.000000
232963.000000
233591.000000
234212.000000
234824.000000
235430.000000
236037.000000
236642.000000
237247.000000
237856.000000
238462.000000
239071.000000
239683.000000
240294.000000
240909.000000
241524.000000
242148.000000
242777.000000
243408.000000
244034.000000
244664.000000
245277.000000
245883.000000
246480.000000
247069.000000
247654.000000
248245.000000
248835.000000
249432.000000
250036.000000
250646.000000
251263.000000
251871.000000
252469.000000
253069.000000
253665.000000
254264.000000
254873.000000
255486.000000
256094.000000
256703.000000
257305.000000
257910.000000
258513.000000
259113.000000
259717.000000
260334.000000
260959.000000
261581.000000
262203.000000
262817.000000
263424.000000
264034.000000
264643.000000
265255.000000
265872.000000
266500.000000
267130.000000
267752.000000
268371.000000
268985.000000
269602.000000
270224.000000
270856.000000
271487.000000
272125.000000
272770.000000
273406.000000
274032.000000
274653.000000
275260.000000
275863.000000
276465.000000
277074.000000
277694.000000
278325.000000
278948.000000
279565.000000
280179.000000
280788.000000
281388.000000
281990.000000
282592.000000
283197.000000
283825.000000
284503.000000
285174.000000
285818.000000
286457.000000
287085.000000
287711.000000
288331.000000
288942.000000
289549.000000
290148.000000
290751.000000
291362.000000
291982.000000
292618.000000
293261.000000
293898.000000
294528.000000
295147.000000
295761.000000
296375.000000
296991.000000
297619.000000
298250.000000
298883.000000
299519.000000
300149.000000
300775.000000
301404.000000
302031.000000
302653.000000
303277.000000
303899.000000
304512.000000
305121.000000
305725.000000
306325.000000
306923.000000
307520.000000
308117.000000
308715.000000
309325.000000
309941.000000
310550.000000
311165.000000
311788.000000
312417.000000
313056.000000
313680.000000
314302.000000
314912.000000
315515.000000
316114.000000
316716.000000
317333.000000
317973.000000
318627.000000
319265.000000
319897.000000
320517.000000
321124.000000
321720.000000
322295.000000
322865.000000
323440.000000
324022.000000
324619.000000
325228.000000
325842.000000
326447.000000
327042.000000
327643.000000
328244.000000
328853.000000
329478.000000
330118.000000
330749.000000
331372.000000
331995.000000
332612.000000
333231.000000
333860.000000
334490.000000
335131.000000
335771.000000
336413.000000
337056.000000
337686.000000
338308.000000
338926.000000
339544.000000
340169.000000
340798.000000
341438.000000
342084.000000
342726.000000
343355.000000
343981.000000
344604.000000
345230.000000
345853.000000
346479.000000
347104.000000
347749.000000
348399.000000
349052.000000
349706.000000
350374.000000
351057.000000
351706.000000
352345.000000
352968.000000
353591.000000
354209.000000
354827.000000
355451.000000
356107.000000
356787.000000
357488.000000
358171.000000
358844.000000
359503.000000
360153.000000
360797.000000
361443.000000
362083.000000
362718.000000
363353.000000
363984.000000
364619.000000
365260.000000
365900.000000
366532.000000
367165.000000
367800.000000
368449.000000
369099.000000
369751.000000
370384.000000
371010.000000
371626.000000
372236.000000
372844.000000
373454.000000
374068.000000
374688.000000
375306.000000
375926.000000
376553.000000
377191.000000
377828.000000
378472.000000
379108.000000
379744.000000
380370.000000
380999.000000
381622.000000
382241.000000
382857.000000
383470.000000
384086.000000
384713.000000
385359.000000
386014.000000
386680.000000
387347.000000
388015.000000
388680.000000
389330.000000
389962.000000
390586.000000
391205.000000
391818.000000
392433.000000
393051.000000
393674.000000
394299.000000
394923.000000
395551.000000
396186.000000
396829.000000
397467.000000
398100.000000
398726.000000
399336.000000
399941.000000
400553.000000
401173.000000
401811.000000
402474.000000
403143.000000
403822.000000
404514.000000
405240.000000
405916.000000
406575.000000
407218.000000
407852.000000
408485.000000
409111.000000
409738.000000
410364.000000
410991.000000
411637.000000
412298.000000
412969.000000
413624.000000
414279.000000
414936.000000
415587.000000
416226.000000
416857.000000
417481.000000
418097.000000
418716.000000
419332.000000
419955.000000
420576.000000
421206.000000
421838.000000
422470.000000
423099.000000
423725.000000
424344.000000
424965.000000
425585.000000
426209.000000
426838.000000
427469.000000
428107.000000
428736.000000
429360.000000
429981.000000
430608.000000
431238.000000
431875.000000
432526.000000
433187.000000
433849.000000
434506.000000
435159.000000
435807.000000
436443.000000
437072.000000
437707.000000
438346.000000
438987.000000
439633.000000
440278.000000
440932.000000
441575.000000
442219.000000
442856.000000
443497.000000
444137.000000
444786.000000
445455.000000
446118.000000
446773.000000
447419.000000
448055.000000
448697.000000
449337.000000
449966.000000
450604.000000
451245.000000
451901.000000
452574.000000
453232.000000
453878.000000
454512.000000
455134.000000
455750.000000
456363.000000
456982.000000
457597.000000
458214.000000
458832.000000
459450.000000
460058.000000
460671.000000
461280.000000
461886.000000
462488.000000
463081.000000
463655.000000
464230.000000
464819.000000
465413.000000
466017.000000
466626.000000
467239.000000
467866.000000
468504.000000
469135.000000
469759.000000
470393.000000
471026.000000
471650.000000
472268.000000
472880.000000
473481.000000
474078.000000
474672.000000
475269.000000
475876.000000
476493.000000
477118.000000
477743.000000
478375.000000
479017.000000
479657.000000
480304.000000
480951.000000
481599.000000
482235.000000
482862.000000
483483.000000
484103.000000
484724.000000
485348.000000
485973.000000
486601.000000
487231.000000
487854.000000
488475.000000
489099.000000
489726.000000
490354.000000
490986.000000
491616.000000
492247.000000
492876.000000
493503.000000
494127.000000
494746.000000
495363.000000
495983.000000
496609.000000
497245.000000
497885.000000
498528.000000
499170.000000
499803.000000
500436.000000
501068.000000
501704.000000
502340.000000
502970.000000
503592.000000
504215.000000
504847.000000
505490.000000
506140.000000
506785.000000
507425.000000
508055.000000
508680.000000
509299.000000
509917.000000
510532.000000
511145.000000
511759.000000
512385.000000
513017.000000
513657.000000
514295.000000
514924.000000
515552.000000
516183.000000
516812.000000
517442.000000
518070.000000
518695.000000
519313.000000
519933.000000
520556.000000
521188.000000
521830.000000
522479.000000
523135.000000
523797.000000
524462.000000
525115.000000
525760.000000
526394.000000
527018.000000
527637.000000
528253.000000
528869.000000
529488.000000
530114.000000
530735.000000
531349.000000
531955.000000
532559.000000
533161.000000
533769.000000
534380.000000
534991.000000
535598.000000
536211.000000
536824.000000
537428.000000
538035.000000
538642.000000
539250.000000
539860.000000
540473.000000
541078.000000
541678.000000
542277.000000
542874.000000
543476.000000
544083.000000
544702.000000
545325.000000
545961.000000
546598.000000
547240.000000
547937.000000
548608.000000
549263.000000
549908.000000
550538.000000
551169.000000
551794.000000
552432.000000
553084.000000
553761.000000
554429.000000
555097.000000
555747.000000
556388.000000
557021.000000
557645.000000
558275.000000
558923.000000
559579.000000
560231.000000
560885.000000
561542.000000
562187.000000
562821.000000
563455.000000
564089.000000
564726.000000
565367.000000
566039.000000
566713.000000
567397.000000
568072.000000
568735.000000
569384.000000
570030.000000
570666.000000
571299.000000
571929.000000
572561.000000
573203.000000
573844.000000
574480.000000
575114.000000
575742.000000
576367.000000
576992.000000
577617.000000
578247.000000
578880.000000
579518.000000
580149.000000
580780.000000
581406.000000
582027.000000
582643.000000
583264.000000
583892.000000
584533.000000
585173.000000
585830.000000
586492.000000
587208.000000
587892.000000
588550.000000
589197.000000
589836.000000
590467.000000
591095.000000
591748.000000
592417.000000
593102.000000
593780.000000
594449.000000
595108.000000
595759.000000
596401.000000
597040.000000
597683.000000
598329.000000
598989.000000
599648.000000
600317.000000
600977.000000
601633.000000
602285.000000
602936.000000
603588.000000
604236.000000
604880.000000
605517.000000
606149.000000
606777.000000
607404.000000
608034.000000
608661.000000
609287.000000
609914.000000
610551.000000
611185.000000
611824.000000
612459.000000
613088.000000
613714.000000
614349.000000
614990.000000
615641.000000
616294.000000
616943.000000
617585.000000
618225.000000
618867.000000
619510.000000
620160.000000
620817.000000
621464.000000
622114.000000
622767.000000
623429.000000
624101.000000
624778.000000
625461.000000
626129.000000
626789.000000
627426.000000
628049.000000
628674.000000
629311.000000
629964.000000
630662.000000
631337.000000
632001.000000
632643.000000
633273.000000
633886.000000
634475.000000
635062.000000
635656.000000
636269.000000
636897.000000
637531.000000
638164.000000
638789.000000
639413.000000
640031.000000
640646.000000
641259.000000
641881.000000
642511.000000
643152.000000
643795.000000
644439.000000
645080.000000
645712.000000
646339.000000
646968.000000
647605.000000
648246.000000
648895.000000
649558.000000
650244.000000
650932.000000
651607.000000
652276.000000
652952.000000
653607.000000
654259.000000
654897.000000
655528.000000
656158.000000
656789.000000
657433.000000
658080.000000
658727.000000
659377.000000
660031.000000
660687.000000
661352.000000
662023.000000
662685.000000
663336.000000
663977.000000
664612.000000
665252.000000
665892.000000
666537.000000
667193.000000
667859.000000
668518.000000
669172.000000
669825.000000
670489.000000
671160.000000
671840.000000
672507.000000
673161.000000
673803.000000
674433.000000
675055.000000
675676.000000
676301.000000
676933.000000
677568.000000
678205.000000
678848.000000
679491.000000
680137.000000
680800.000000
681479.000000
682157.000000
682840.000000
683510.000000
684170.000000
684817.000000
685452.000000
686091.000000
686741.000000
687408.000000
688104.000000
688803.000000
689493.000000
690174.000000
690838.000000
691486.000000
692124.000000
692752.000000
693376.000000
694000.000000
694640.000000
695308.000000
695999.000000
696705.000000
697383.000000
698057.000000
698715.000000
699373.000000
700028.000000
700699.000000
701363.000000
702018.000000
702660.000000
703311.000000
703977.000000
704670.000000
705362.000000
706052.000000
706714.000000
707360.000000
707997.000000
708645.000000
709351.000000
710100.000000
710862.000000
711611.000000
712346.000000
713067.000000
713758.000000
714448.000000
715124.000000
715793.000000
716450.000000
717128.000000
717801.000000
718510.000000
719206.000000
719899.000000
720589.000000
721262.000000
721918.000000
722561.000000
723188.000000
723817.000000
724473.000000
725148.000000
725837.000000
726526.000000
727212.000000
727871.000000
728516.000000
729143.000000
729740.000000
730338.000000
730941.000000
731548.000000
732193.000000
732865.000000
733537.000000
734245.000000
734928.000000
735609.000000
736270.000000
736939.000000
737600.000000
738260.000000
738922.000000
739585.000000
740242.000000
740892.000000
741539.000000
742188.000000
742851.000000
743539.000000
744235.000000
744931.000000
745615.000000
746289.000000
746957.000000
747620.000000
748282.000000
748937.000000
749594.000000
750253.000000
750923.000000
751594.000000
752263.000000
752955.000000
753628.000000
754322.000000
754999.000000
755671.000000
756354.000000
757064.000000
757771.000000
758470.000000
759150.000000
759821.000000
760479.000000
761135.000000
761808.000000
762485.000000
763173.000000
763850.000000
764529.000000
765190.000000
765852.000000
766511.000000
767155.000000
767797.000000
768440.000000
769094.000000
769762.000000
770451.000000
771138.000000
771813.000000
772491.000000
773151.000000
773808.000000
774458.000000
775102.000000
775745.000000
776387.000000
777021.000000
777656.000000
778310.000000
778978.000000
779675.000000
780352.000000
781011.000000
781659.000000
782293.000000
782922.000000
783548.000000
784169.000000
784791.000000
785411.000000
786034.000000
786667.000000
787318.000000
787969.000000
788621.000000
789264.000000
789901.000000
790535.000000
791158.000000
791780.000000
792402.000000
793031.000000
793662.000000
794290.000000
794919.000000
795564.000000
796207.000000
796859.000000
797509.000000
798152.000000
798790.000000
799439.000000
800104.000000
800768.000000
801417.000000
802066.000000
802714.000000
803363.000000
804018.000000
804661.000000
805296.000000
805923.000000
806546.000000
807170.000000
807812.000000
808473.000000
809152.000000
809826.000000
810487.000000
811130.000000
811764.000000
812387.000000
813013.000000
813643.000000
814283.000000
814928.000000
815567.000000
816200.000000
816839.000000
817485.000000
818141.000000
818805.000000
819468.000000
820124.000000
820774.000000
821421.000000
822056.000000
822680.000000
823300.000000
823912.000000
824529.000000
825162.000000
825807.000000
826462.000000
827117.000000
827787.000000
828449.000000
829110.000000
829787.000000
830446.000000
831116.000000
831772.000000
832419.000000
833054.000000
833691.000000
834324.000000
834969.000000
835599.000000
836215.000000
836828.000000
837452.000000
838084.000000
838707.000000
839323.000000
839927.000000
840525.000000
841119.000000
841711.000000
842306.000000
842914.000000
843533.000000
844155.000000
844791.000000
845436.000000
846083.000000
846728.000000
847356.000000
847979.000000
848603.000000
849225.000000
849857.000000
850486.000000
851116.000000
851754.000000
852390.000000
853021.000000
853658.000000
854297.000000
854940.000000
855582.000000
856221.000000
856854.000000
857489.000000
858150.000000
858823.000000
859490.000000
860167.000000
860836.000000
861486.000000
862139.000000
862782.000000
863421.000000
864060.000000
864703.000000
865344.000000
865971.000000
866596.000000
867226.000000
867846.000000
868473.000000
869096.000000
869718.000000
870339.000000
870968.000000
871603.000000
872247.000000
872891.000000
873527.000000
874161.000000
874786.000000
875403.000000
876011.000000
876604.000000
877180.000000
877762.000000
878357.000000
878962.000000
879571.000000
880174.000000
880782.000000
881394.000000
882008.000000
882623.000000
883238.000000
883854.000000
884460.000000
885062.000000
885661.000000
886259.000000
886855.000000
887451.000000
888053.000000
888651.000000
889254.000000
889879.000000
890524.000000
891172.000000
891815.000000
892457.000000
893097.000000
893737.000000
894371.000000
895004.000000
895630.000000
896259.000000
896891.000000
897527.000000
898163.000000
898799.000000
899427.000000
900058.000000
900681.000000
901304.000000
901943.000000
902604.000000
903271.000000
903941.000000
904595.000000
905247.000000
905887.000000
906524.000000
907158.000000
907792.000000
908428.000000
909070.000000
909706.000000
910347.000000
910976.000000
911609.000000
912242.000000
912871.000000
913510.000000
914161.000000
914854.000000
915556.000000
916231.000000
916892.000000
917549.000000
918189.000000
918825.000000
919461.000000
920095.000000
920729.000000
921362.000000
921990.000000
922621.000000
923271.000000
923924.000000
924585.000000
925257.000000
925934.000000
926597.000000
927240.000000
927878.000000
928504.000000
929132.000000
929762.000000
930404.000000
931048.000000
931696.000000
932344.000000
932983.000000
933628.000000
934274.000000
934916.000000
935552.000000
936186.000000
936815.000000
937435.000000
938060.000000
938688.000000
939319.000000
939961.000000
940604.000000
941241.000000
941877.000000
942510.000000
943141.000000
943774.000000
944405.000000
945036.000000
945665.000000
946285.000000
946899.000000
947509.000000
948124.000000
948746.000000
949371.000000
949998.000000
950623.000000
951239.000000
951851.000000
952467.000000
953085.000000
953702.000000
954321.000000
954942.000000
955564.000000
956186.000000
956802.000000
957418.000000
958038.000000
958657.000000
959278.000000
959898.000000
960511.000000
961123.000000
961737.000000
962350.000000
962964.000000
963583.000000
964211.000000
964851.000000
965492.000000
966134.000000
966788.000000
967454.000000
968118.000000
968776.000000
969424.000000
970065.000000
970698.000000
971323.000000
971961.000000
972607.000000
973267.000000
973925.000000
974603.000000
975280.000000
975970.000000
976654.000000
977309.000000
977958.000000
978593.000000
979222.000000
979849.000000
980470.000000
981082.000000
981686.000000
982282.000000
982862.000000
983435.000000
984019.000000
984614.000000
985214.000000
985818.000000
986420.000000
987024.000000
987626.000000
988229.000000
988836.000000
989447.000000
990071.000000
990694.000000
991318.000000
991938.000000
992551.000000
993160.000000
993768.000000
994374.000000
994980.000000
995590.000000
996198.000000
996810.000000
997427.000000
998046.000000
998680.000000
999315.000000
999954.000000
1000593.000000
1001224.000000
1001856.000000
1002486.000000
1003121.000000
1003757.000000
1004399.000000
1005044.000000
1005689.000000
1006345.000000
1006996.000000
1007643.000000
1008286.000000
1008918.000000
1009551.000000
1010188.000000
1010834.000000
1011482.000000
1012121.000000
1012757.000000
1013389.000000
1014025.000000
1014657.000000
1015291.000000
1015923.000000
1016555.000000
1017181.000000
1017805.000000
1018434.000000
1019075.000000
1019724.000000
1020373.000000
1021017.000000
1021662.000000
1022305.000000
1022944.000000
1023582.000000
1024223.000000
1024860.000000
1025502.000000
1026136.000000
1026793.000000
1027466.000000
1028121.000000
1028766.000000
1029405.000000
1030038.000000
1030667.000000
1031305.000000
1031952.000000
1032608.000000
1033267.000000
1033922.000000
1034576.000000
1035234.000000
1035887.000000
1036539.000000
1037192.000000
1037842.000000
1038492.000000
1039138.000000
1039787.000000
1040439.000000
1041087.000000
1041731.000000
1042366.000000
1043000.000000
1043627.000000
1044250.000000
1044879.000000
1045514.000000
1046164.000000
1046812.000000
1047458.000000
1048096.000000
1048736.000000
1049379.000000
1050023.000000
1050660.000000
1051292.000000
1051921.000000
1052543.000000
1053164.000000
1053787.000000
1054409.000000
1055036.000000
1055665.000000
1056303.000000
1056939.000000
1057577.000000
1058223.000000
1058874.000000
1059535.000000
1060185.000000
1060838.000000
1061488.000000
1062131.000000
1062769.000000
1063411.000000
1064067.000000
1064724.000000
1065381.000000
1066038.000000
1066694.000000
1067341.000000
1067983.000000
1068610.000000
1069231.000000
1069850.000000
1070466.000000
1071073.000000
1071683.000000
1072306.000000
1072947.000000
1073569.000000
1074188.000000
1074800.000000
1075407.000000
1076010.000000
1076613.000000
1077221.000000
1077835.000000
1078459.000000
1079091.000000
1079722.000000
1080357.000000
1080986.000000
1081609.000000
1082222.000000
1082832.000000
1083438.000000
1084049.000000
1084662.000000
1085279.000000
1085894.000000
1086505.000000
1087122.000000
1087737.000000
1088354.000000
1088980.000000
1089602.000000
1090224.000000
1090845.000000
1091471.000000
1092098.000000
1092725.000000
1093358.000000
1094006.000000
1094651.000000
1095295.000000
1095927.000000
1096558.000000
1097183.000000
1097798.000000
1098414.000000
1099044.000000
1099681.000000
1100330.000000
1100976.000000
1101627.000000
1102274.000000
1102928.000000
1103579.000000
1104227.000000
1104869.000000
1105506.000000
1106142.000000
1106780.000000
1107415.000000
1108044.000000
1108669.000000
1109296.000000
1109925.000000
1110561.000000
1111197.000000
1111844.000000
1112495.000000
1113161.000000
1113835.000000
1114501.000000
1115161.000000
1115811.000000
1116462.000000
1117120.000000
1117767.000000
1118402.000000
1119032.000000
1119659.000000
1120283.000000
1120907.000000
1121533.000000
1122160.000000
1122789.000000
1123422.000000
1124061.000000
1124700.000000
1125337.000000
1125975.000000
1126612.000000
1127247.000000
1127877.000000
1128511.000000
1129150.000000
1129800.000000
1130436.000000
1131081.000000
1131722.000000
1132352.000000
1132983.000000
1133623.000000
1134260.000000
1134895.000000
1135525.000000
1136159.000000
1136779.000000
1137398.000000
1138013.000000
1138624.000000
1139237.000000
1139853.000000
1140471.000000
1141096.000000
1141724.000000
1142354.000000
1142981.000000
1143614.000000
1144239.000000
1144858.000000
1145477.000000
1146101.000000
1146735.000000
1147398.000000
1148060.000000
1148711.000000
1149351.000000
1149980.000000
1150610.000000
1151254.000000
1151909.000000
1152563.000000
1153220.000000
1153856.000000
1154480.000000
1155109.000000
1155724.000000
1156326.000000
1156912.000000
1157500.000000
1158097.000000
1158700.000000
1159304.000000
1159908.000000
1160519.000000
1161136.000000
1161758.000000
1162398.000000
1163038.000000
1163669.000000
1164299.000000
1164920.000000
1165536.000000
1166149.000000
1166760.000000
1167373.000000
1167992.000000
1168621.000000
1169256.000000
1169920.000000
1170598.000000
1171276.000000
1171938.000000
1172585.000000
1173218.000000
1173846.000000
1174464.000000
1175072.000000
1175684.000000
1176300.000000
1176944.000000
1177594.000000
1178246.000000
1178886.000000
1179525.000000
1180158.000000
1180788.000000
1181413.000000
1182036.000000
1182660.000000
1183276.000000
1183896.000000
1184523.000000
1185155.000000
