ECG (ms)
612.000000
1600.000000
2628.000000
3566.000000
4510.000000
5473.000000
6404.000000
7298.000000
8212.000000
9147.000000
10140.000000
11078.000000
12007.000000
12958.000000
13918.000000
14822.000000
15725.000000
16637.000000
17551.000000
18429.000000
19327.000000
20271.000000
21176.000000
22116.000000
23052.000000
23948.000000
24848.000000
25738.000000
26635.000000
27517.000000
28431.000000
29338.000000
30227.000000
31123.000000
32048.000000
33014.000000
33956.000000
34876.000000
35798.000000
36709.000000
37586.000000
38460.000000
39374.000000
40314.000000
41258.000000
42214.000000
43168.000000
44107.000000
45066.000000
46020.000000
46935.000000
47852.000000
48808.000000
49748.000000
50717.000000
51677.000000
52609.000000
53504.000000
54426.000000
55405.000000
56371.000000
57289.000000
58213.000000
59145.000000
60065.000000
60939.000000
61841.000000
62797.000000
63731.000000
64643.000000
65579.000000
66631.000000
67633.000000
68590.000000
69579.000000
70557.000000
71555.000000
72619.000000
73650.000000
74609.000000
75558.000000
76508.000000
77419.000000
78313.000000
79201.000000
80106.000000
81006.000000
81912.000000
82834.000000
83780.000000
84713.000000
85647.000000
86619.000000
87582.000000
88489.000000
89413.000000
90345.000000
91255.000000
92138.000000
93066.000000
93999.000000
94902.000000
95826.000000
96777.000000
97754.000000
98693.000000
99668.000000
100686.000000
101694.000000
102629.000000
103542.000000
104459.000000
105353.000000
106258.000000
107273.000000
108350.000000
109310.000000
110261.000000
111217.000000
112131.000000
113028.000000
113924.000000
114832.000000
115723.000000
116638.000000
117588.000000
118515.000000
119406.000000
120316.000000
121219.000000
122110.000000
123008.000000
123929.000000
124848.000000
125745.000000
126733.000000
127838.000000
128832.000000
129754.000000
130725.000000
131724.000000
132686.000000
133614.000000
134568.000000
135642.000000
136665.000000
137665.000000
138777.000000
139898.000000
140900.000000
141872.000000
142855.000000
143830.000000
144750.000000
145656.000000
146590.000000
147555.000000
148513.000000
149421.000000
150318.000000
151232.000000
152168.000000
153093.000000
153982.000000
154887.000000
155832.000000
156843.000000
157786.000000
158713.000000
159650.000000
160595.000000
161522.000000
162449.000000
163415.000000
164380.000000
165284.000000
166179.000000
167082.000000
167969.000000
168853.000000
169776.000000
170737.000000
171645.000000
172528.000000
173427.000000
174345.000000
175224.000000
176096.000000
177001.000000
178286.000000
179368.000000
180320.000000
181315.000000
182321.000000
183257.000000
184166.000000
185056.000000
185923.000000
186763.000000
187625.000000
188518.000000
189400.000000
190288.000000
191167.000000
192086.000000
193074.000000
194036.000000
194952.000000
195865.000000
196825.000000
197897.000000
198871.000000
199833.000000
200830.000000
201843.000000
202793.000000
203845.000000
205175.000000
206234.000000
207228.000000
208233.000000
209123.000000
209985.000000
210854.000000
211745.000000
212690.000000
213616.000000
214514.000000
215414.000000
216316.000000
217195.000000
218055.000000
218930.000000
219855.000000
220807.000000
221726.000000
222643.000000
223562.000000
224492.000000
225398.000000
226309.000000
227267.000000
228284.000000
229250.000000
230245.000000
231274.000000
232283.000000
233258.000000
234286.000000
235326.000000
236293.000000
237276.000000
238290.000000
239285.000000
240223.000000
241185.000000
242189.000000
243202.000000
244191.000000
245188.000000
246180.000000
247140.000000
248077.000000
249069.000000
250108.000000
251061.000000
252008.000000
253046.000000
254084.000000
255041.000000
255969.000000
256960.000000
257929.000000
258831.000000
259722.000000
260698.000000
261645.000000
262594.000000
263572.000000
264535.000000
265458.000000
266400.000000
267329.000000
268237.000000
269161.000000
270120.000000
271087.000000
272027.000000
272993.000000
273961.000000
274901.000000
275870.000000
276875.000000
277893.000000
278851.000000
279806.000000
280759.000000
281739.000000
282698.000000
283657.000000
284634.000000
285598.000000
286541.000000
287521.000000
288637.000000
289617.000000
290580.000000
291561.000000
292513.000000
293467.000000
294460.000000
295435.000000
296382.000000
297354.000000
298321.000000
299243.000000
300193.000000
301169.000000
302199.000000
303211.000000
304172.000000
305149.000000
306132.000000
307095.000000
308084.000000
309108.000000
310094.000000
311142.000000
312188.000000
313199.000000
314132.000000
315071.000000
316028.000000
316956.000000
317921.000000
318904.000000
319852.000000
320860.000000
321902.000000
322979.000000
323968.000000
324948.000000
325935.000000
326897.000000
327862.000000
328958.000000
330157.000000
331199.000000
332232.000000
333214.000000
334153.000000
335095.000000
336042.000000
336966.000000
337888.000000
338840.000000
339793.000000
340704.000000
341628.000000
342606.000000
343584.000000
344529.000000
345508.000000
346489.000000
347426.000000
348349.000000
349298.000000
350295.000000
351241.000000
352198.000000
353285.000000
354317.000000
355251.000000
356210.000000
357251.000000
358276.000000
359194.000000
360118.000000
361048.000000
361987.000000
362995.000000
364077.000000
365142.000000
366148.000000
367162.000000
368146.000000
369091.000000
370051.000000
370993.000000
371901.000000
372821.000000
373784.000000
374745.000000
375670.000000
376635.000000
377600.000000
378573.000000
379528.000000
380499.000000
381489.000000
382451.000000
383469.000000
384555.000000
385598.000000
386611.000000
387611.000000
388584.000000
389531.000000
390522.000000
391550.000000
392559.000000
393562.000000
394600.000000
395611.000000
396611.000000
397653.000000
398691.000000
399672.000000
400623.000000
401577.000000
402534.000000
403500.000000
404484.000000
405517.000000
406479.000000
407421.000000
408368.000000
409322.000000
410267.000000
411249.000000
412230.000000
413188.000000
414180.000000
415240.000000
416238.000000
417266.000000
418251.000000
419196.000000
420147.000000
421156.000000
422169.000000
423107.000000
424026.000000
424979.000000
425969.000000
426930.000000
427904.000000
428957.000000
429965.000000
430912.000000
431883.000000
432849.000000
433787.000000
434698.000000
435651.000000
436617.000000
437574.000000
438490.000000
439432.000000
440425.000000
441414.000000
442369.000000
443375.000000
444405.000000
445370.000000
446366.000000
447408.000000
448423.000000
449342.000000
450235.000000
451146.000000
452074.000000
453005.000000
453964.000000
454990.000000
456053.000000
457038.000000
457990.000000
458953.000000
459881.000000
460757.000000
461640.000000
462550.000000
463494.000000
464396.000000
465304.000000
466247.000000
467231.000000
468173.000000
469134.000000
470126.000000
471106.000000
472066.000000
473014.000000
473958.000000
474972.000000
475965.000000
476940.000000
477962.000000
479033.000000
479988.000000
480952.000000
481938.000000
482939.000000
483867.000000
484810.000000
485778.000000
486753.000000
487672.000000
488580.000000
489500.000000
490416.000000
491298.000000
492193.000000
493136.000000
494144.000000
495120.000000
496147.000000
497197.000000
498189.000000
499182.000000
500189.000000
501122.000000
502066.000000
503027.000000
503957.000000
504889.000000
505870.000000
506855.000000
507803.000000
508760.000000
509677.000000
510583.000000
511511.000000
512459.000000
513386.000000
514262.000000
515193.000000
516186.000000
517164.000000
518130.000000
519150.000000
520233.000000
521223.000000
522247.000000
523265.000000
524225.000000
525153.000000
526110.000000
527070.000000
527959.000000
528849.000000
529752.000000
530680.000000
531570.000000
532457.000000
533362.000000
534305.000000
535204.000000
536102.000000
537015.000000
537946.000000
538845.000000
539785.000000
540752.000000
541757.000000
542684.000000
543672.000000
544664.000000
545658.000000
546614.000000
547613.000000
548648.000000
549678.000000
550635.000000
551599.000000
552588.000000
553572.000000
554508.000000
555434.000000
556384.000000
557349.000000
558285.000000
559172.000000
560083.000000
561054.000000
562037.000000
562988.000000
563969.000000
565003.000000
566011.000000
566954.000000
567921.000000
568878.000000
569798.000000
570676.000000
571553.000000
572465.000000
573446.000000
574392.000000
575303.000000
576294.000000
577333.000000
578336.000000
579339.000000
580322.000000
581463.000000
582680.000000
583694.000000
584684.000000
585713.000000
586734.000000
587709.000000
588685.000000
589688.000000
590652.000000
591606.000000
592600.000000
593599.000000
594538.000000
595493.000000
596495.000000
597554.000000
598514.000000
599483.000000
600471.000000
601489.000000
602436.000000
603429.000000
604566.000000
605608.000000
606561.000000
607538.000000
608548.000000
609540.000000
610491.000000
611465.000000
612472.000000
613506.000000
614457.000000
615450.000000
616450.000000
617410.000000
618305.000000
619210.000000
620119.000000
621070.000000
621976.000000
622903.000000
623855.000000
624788.000000
625751.000000
626735.000000
627671.000000
628568.000000
629454.000000
630323.000000
631190.000000
632060.000000
632946.000000
633813.000000
634709.000000
635634.000000
636559.000000
637512.000000
638431.000000
639337.000000
640271.000000
641198.000000
642088.000000
642993.000000
644016.000000
645019.000000
645953.000000
647013.000000
648091.000000
649068.000000
650032.000000
651029.000000
652031.000000
652956.000000
653884.000000
654848.000000
655888.000000
656884.000000
657837.000000
658833.000000
659826.000000
660810.000000
661757.000000
662657.000000
663582.000000
664500.000000
665434.000000
666347.000000
667236.000000
668165.000000
669128.000000
670134.000000
671069.000000
672033.000000
673028.000000
674030.000000
674970.000000
675875.000000
676815.000000
677856.000000
678800.000000
679698.000000
680617.000000
681486.000000
682390.000000
683305.000000
684266.000000
685284.000000
686231.000000
687145.000000
688058.000000
688974.000000
689850.000000
690716.000000
691581.000000
692453.000000
693327.000000
694198.000000
695096.000000
696039.000000
696983.000000
697957.000000
698936.000000
699914.000000
700873.000000
701850.000000
702870.000000
703895.000000
704871.000000
705856.000000
706875.000000
707902.000000
708868.000000
709850.000000
710915.000000
711976.000000
712981.000000
714005.000000
715065.000000
716063.000000
717108.000000
718238.000000
719304.000000
720356.000000
721462.000000
722552.000000
723556.000000
724530.000000
725503.000000
726427.000000
727359.000000
728436.000000
729653.000000
730678.000000
731753.000000
732816.000000
733771.000000
734740.000000
735705.000000
736641.000000
737561.000000
738503.000000
739496.000000
740482.000000
741477.000000
742484.000000
743438.000000
744419.000000
745446.000000
746431.000000
747368.000000
748318.000000
749275.000000
750197.000000
751129.000000
752112.000000
753127.000000
754080.000000
755023.000000
755978.000000
756887.000000
757805.000000
758757.000000
759728.000000
760652.000000
761564.000000
762496.000000
763454.000000
764405.000000
765309.000000
766247.000000
767271.000000
768309.000000
769277.000000
770279.000000
771260.000000
772176.000000
773107.000000
774072.000000
775080.000000
776031.000000
776938.000000
777861.000000
778808.000000
779775.000000
780704.000000
781678.000000
782755.000000
783748.000000
784677.000000
785656.000000
786629.000000
787557.000000
788513.000000
789525.000000
790493.000000
791414.000000
792372.000000
793388.000000
794369.000000
795288.000000
796236.000000
797229.000000
798228.000000
799183.000000
800149.000000
801138.000000
802134.000000
803087.000000
804048.000000
805017.000000
806003.000000
806918.000000
807835.000000
808782.000000
809793.000000
810754.000000
811700.000000
812657.000000
813624.000000
814558.000000
815533.000000
816569.000000
817559.000000
818561.000000
819572.000000
820528.000000
821465.000000
822392.000000
823288.000000
824165.000000
825040.000000
825943.000000
826858.000000
827736.000000
828638.000000
829586.000000
830500.000000
831457.000000
832450.000000
833425.000000
834360.000000
835290.000000
836227.000000
837155.000000
838035.000000
838948.000000
839952.000000
840932.000000
841876.000000
842832.000000
843831.000000
844845.000000
845831.000000
846880.000000
848131.000000
849218.000000
850293.000000
851365.000000
852398.000000
853344.000000
854277.000000
855219.000000
856150.000000
857044.000000
857963.000000
859081.000000
860142.000000
861102.000000
862021.000000
862950.000000
863838.000000
864683.000000
865560.000000
866476.000000
867452.000000
868406.000000
869349.000000
870330.000000
871340.000000
872304.000000
873269.000000
874239.000000
875220.000000
876157.000000
877115.000000
878107.000000
879094.000000
880034.000000
880987.000000
881967.000000
882953.000000
883940.000000
884926.000000
885913.000000
886864.000000
887798.000000
888785.000000
889816.000000
890786.000000
891779.000000
892777.000000
893699.000000
894603.000000
895450.000000
896262.000000
897066.000000
897898.000000
898747.000000
899586.000000
900447.000000
901325.000000
902202.000000
903058.000000
903914.000000
904799.000000
905655.000000
906487.000000
907292.000000
908076.000000
908944.000000
909903.000000
910869.000000
911834.000000
912828.000000
913833.000000
914801.000000
915746.000000
916705.000000
917657.000000
918570.000000
919499.000000
920471.000000
921466.000000
922497.000000
923565.000000
924605.000000
925588.000000
926575.000000
927576.000000
928582.000000
929546.000000
930518.000000
931536.000000
932544.000000
933489.000000
934430.000000
935380.000000
936419.000000
937414.000000
938445.000000
939457.000000
940413.000000
941374.000000
942373.000000
943386.000000
944347.000000
945348.000000
946347.000000
947283.000000
948222.000000
949183.000000
950146.000000
951076.000000
952023.000000
952996.000000
953956.000000
954908.000000
955916.000000
956914.000000
957889.000000
958867.000000
959892.000000
960850.000000
961807.000000
962787.000000
963793.000000
964736.000000
965712.000000
966680.000000
967628.000000
968581.000000
969576.000000
970590.000000
971548.000000
972450.000000
973368.000000
974311.000000
975316.000000
976276.000000
977359.000000
978522.000000
979529.000000
980540.000000
981540.000000
982480.000000
983391.000000
984315.000000
985228.000000
986105.000000
986980.000000
987875.000000
988787.000000
989668.000000
990588.000000
991541.000000
992531.000000
993464.000000
994412.000000
995402.000000
996416.000000
997350.000000
998325.000000
999262.000000
1000185.000000
1001091.000000
1002018.000000
1003023.000000
1004046.000000
1005037.000000
1006102.000000
1007152.000000
1008121.000000
1009045.000000
1009983.000000
1010919.000000
1011845.000000
1012743.000000
1013658.000000
1014654.000000
1015760.000000
1016766.000000
1017711.000000
1018734.000000
1019726.000000
1020699.000000
1021623.000000
1022521.000000
1023428.000000
1024436.000000
1025541.000000
1026528.000000
1027553.000000
1028656.000000
1029690.000000
1030649.000000
1031612.000000
1032563.000000
1033512.000000
1034409.000000
1035309.000000
1036192.000000
1037074.000000
1037939.000000
1038808.000000
1039716.000000
1040611.000000
1041452.000000
1042293.000000
1043182.000000
1044119.000000
1045076.000000
1046000.000000
1046941.000000
1047896.000000
1048854.000000
1049788.000000
1050728.000000
1051684.000000
1052659.000000
1053638.000000
1054649.000000
1055656.000000
1056623.000000
1057560.000000
1058521.000000
1059580.000000
1060654.000000
1061627.000000
1062580.000000
1063553.000000
1064551.000000
1065517.000000
1066482.000000
1067451.000000
1068401.000000
1069306.000000
1070215.000000
1071207.000000
1072328.000000
1073321.000000
1074323.000000
1075343.000000
1076369.000000
1077327.000000
1078227.000000
1079139.000000
1080068.000000
1081026.000000
1081976.000000
1082929.000000
1083871.000000
1084806.000000
1085746.000000
1086685.000000
1087618.000000
1088519.000000
1089400.000000
1090282.000000
1091132.000000
1091969.000000
1092803.000000
1093650.000000
1094539.000000
1095464.000000
1096384.000000
1097346.000000
1098342.000000
1099287.000000
1100203.000000
1101127.000000
1102045.000000
1102946.000000
1103838.000000
1104744.000000
1105679.000000
1106633.000000
1107563.000000
1108493.000000
1109430.000000
1110354.000000
1111263.000000
1112189.000000
1113186.000000
1114191.000000
1115141.000000
1116112.000000
1117069.000000
1117995.000000
1118896.000000
1119798.000000
1120738.000000
1121667.000000
1122577.000000
1123520.000000
1124472.000000
1125397.000000
1126344.000000
1127312.000000
1128228.000000
1129116.000000
1130000.000000
1130842.000000
1131664.000000
1132467.000000
1133271.000000
1134110.000000
1134992.000000
1135893.000000
1136790.000000
1137722.000000
1138656.000000
1139563.000000
1140470.000000
1141361.000000
1142238.000000
1143097.000000
1143944.000000
1144816.000000
1145743.000000
1146682.000000
1147599.000000
1148541.000000
1149478.000000
1150398.000000
1151289.000000
1152186.000000
1153089.000000
1153984.000000
1154881.000000
1155791.000000
1156729.000000
1157649.000000
1158559.000000
1159497.000000
1160425.000000
1161329.000000
1162230.000000
1163139.000000
1164074.000000
1165014.000000
1165948.000000
1166916.000000
1167873.000000
1168800.000000
1169758.000000
1170743.000000
1171733.000000
1172677.000000
1173649.000000
1174640.000000
1175649.000000
1176659.000000
1177642.000000
1178585.000000
1179556.000000
1180551.000000
1181536.000000
1182472.000000
1183426.000000
1184384.000000
1185314.000000
1186238.000000
1187180.000000
1188144.000000
1189067.000000
1189999.000000
1190923.000000
1191814.000000
1192711.000000
1193619.000000
1194556.000000
1195479.000000
1196422.000000
1197371.000000
1198301.000000
1199223.000000
1200160.000000
1201106.000000
