ECG (ms)
551.000000
1239.000000
1902.000000
2645.000000
3487.000000
4244.000000
4950.000000
5714.000000
6504.000000
7246.000000
7972.000000
8723.000000
9516.000000
10267.000000
10982.000000
11725.000000
12508.000000
13293.000000
14024.000000
14749.000000
15508.000000
16269.000000
17005.000000
17723.000000
18488.000000
19319.000000
20136.000000
20888.000000
21602.000000
22336.000000
23087.000000
23833.000000
24532.000000
25227.000000
25994.000000
26816.000000
27615.000000
28326.000000
28995.000000
29687.000000
30433.000000
31188.000000
31877.000000
32592.000000
33358.000000
34161.000000
34921.000000
35664.000000
36422.000000
37203.000000
37956.000000
38650.000000
39321.000000
40043.000000
40816.000000
41579.000000
42296.000000
42965.000000
43661.000000
44453.000000
45287.000000
46077.000000
46791.000000
47505.000000
48295.000000
49070.000000
49782.000000
50507.000000
51268.000000
52050.000000
52781.000000
53515.000000
54293.000000
55090.000000
55852.000000
56564.000000
57282.000000
58038.000000
58807.000000
59560.000000
60287.000000
61044.000000
61847.000000
62634.000000
63363.000000
64113.000000
64913.000000
65737.000000
66502.000000
67235.000000
67984.000000
68752.000000
69454.000000
70127.000000
70839.000000
71636.000000
72409.000000
73113.000000
73810.000000
74560.000000
75361.000000
76125.000000
76831.000000
77530.000000
78258.000000
78988.000000
79669.000000
80312.000000
80939.000000
81583.000000
82322.000000
83130.000000
83857.000000
84534.000000
85247.000000
86019.000000
86776.000000
87487.000000
88155.000000
88871.000000
89656.000000
90400.000000
91121.000000
91899.000000
92754.000000
93535.000000
94256.000000
94966.000000
95744.000000
96574.000000
97320.000000
98016.000000
98753.000000
99564.000000
100414.000000
101200.000000
101911.000000
102636.000000
103430.000000
104262.000000
105073.000000
105816.000000
106511.000000
107210.000000
108029.000000
108935.000000
109807.000000
110560.000000
111280.000000
112038.000000
112854.000000
113653.000000
114410.000000
115166.000000
116011.000000
116915.000000
117733.000000
118485.000000
119253.000000
120047.000000
120839.000000
121569.000000
122284.000000
123054.000000
123864.000000
124687.000000
125449.000000
126150.000000
126837.000000
127608.000000
128432.000000
129255.000000
130018.000000
130715.000000
131423.000000
132208.000000
133038.000000
133822.000000
134540.000000
135240.000000
135971.000000
136745.000000
137563.000000
138308.000000
139002.000000
139720.000000
140553.000000
141419.000000
142237.000000
142972.000000
143662.000000
144359.000000
145159.000000
146002.000000
146834.000000
147606.000000
148327.000000
149035.000000
149783.000000
150597.000000
151409.000000
152147.000000
152856.000000
153636.000000
154460.000000
155190.000000
155902.000000
156646.000000
157334.000000
157988.000000
158644.000000
159370.000000
160072.000000
160848.000000
161680.000000
162509.000000
163238.000000
163963.000000
164744.000000
165505.000000
166199.000000
166900.000000
167667.000000
168497.000000
169280.000000
170015.000000
170747.000000
171567.000000
172364.000000
173083.000000
173801.000000
174566.000000
175353.000000
176135.000000
176847.000000
177520.000000
178212.000000
178985.000000
179782.000000
180534.000000
181235.000000
181999.000000
182858.000000
183684.000000
184428.000000
185146.000000
185897.000000
186665.000000
187392.000000
188074.000000
188812.000000
189653.000000
190455.000000
191179.000000
191874.000000
192622.000000
193404.000000
194168.000000
194876.000000
195625.000000
196409.000000
197182.000000
197887.000000
198587.000000
199327.000000
200085.000000
200806.000000
201483.000000
202198.000000
202978.000000
203743.000000
204459.000000
205170.000000
205962.000000
206753.000000
207547.000000
208286.000000
209030.000000
209783.000000
210547.000000
211273.000000
211971.000000
212703.000000
213472.000000
214254.000000
214975.000000
215703.000000
216484.000000
217263.000000
217997.000000
218703.000000
219438.000000
220191.000000
220932.000000
221620.000000
222322.000000
223141.000000
224032.000000
224787.000000
225493.000000
226199.000000
226964.000000
227774.000000
228523.000000
229245.000000
230029.000000
230859.000000
231643.000000
232384.000000
233115.000000
233897.000000
234694.000000
235483.000000
236207.000000
236916.000000
237671.000000
238482.000000
239261.000000
239988.000000
240716.000000
241499.000000
242305.000000
243068.000000
243780.000000
244526.000000
245325.000000
246103.000000
246812.000000
247504.000000
248253.000000
249075.000000
249899.000000
250693.000000
251416.000000
252160.000000
252984.000000
253796.000000
254538.000000
255249.000000
255999.000000
256828.000000
257688.000000
258450.000000
259214.000000
260073.000000
260964.000000
261807.000000
262545.000000
263278.000000
264023.000000
264800.000000
265581.000000
266312.000000
267036.000000
267830.000000
268673.000000
269466.000000
270186.000000
270906.000000
271670.000000
272442.000000
273146.000000
273844.000000
274520.000000
275167.000000
275842.000000
276577.000000
277266.000000
277978.000000
278741.000000
279497.000000
280193.000000
280877.000000
281595.000000
282340.000000
283043.000000
283727.000000
284467.000000
285245.000000
285973.000000
286680.000000
287445.000000
288289.000000
289097.000000
289823.000000
290550.000000
291319.000000
292110.000000
292838.000000
293567.000000
294349.000000
295187.000000
295968.000000
296694.000000
297416.000000
298229.000000
299139.000000
299994.000000
300733.000000
301426.000000
302149.000000
302957.000000
303794.000000
304566.000000
305277.000000
306017.000000
306880.000000
307744.000000
308489.000000
309210.000000
309983.000000
310769.000000
311511.000000
312217.000000
312963.000000
313752.000000
314527.000000
315244.000000
316002.000000
316846.000000
317711.000000
318464.000000
319189.000000
319943.000000
320704.000000
321415.000000
322121.000000
322860.000000
323626.000000
324350.000000
325051.000000
325815.000000
326618.000000
327365.000000
328070.000000
328787.000000
329540.000000
330281.000000
330973.000000
331676.000000
332403.000000
333139.000000
333851.000000
334536.000000
335258.000000
336028.000000
336819.000000
337560.000000
338272.000000
339042.000000
339876.000000
340698.000000
341451.000000
342154.000000
342890.000000
343690.000000
344511.000000
345278.000000
345984.000000
346689.000000
347461.000000
348274.000000
349067.000000
349793.000000
350518.000000
351306.000000
352150.000000
352948.000000
353664.000000
354352.000000
355061.000000
355810.000000
356549.000000
357253.000000
358033.000000
358925.000000
359770.000000
360515.000000
361294.000000
362100.000000
362903.000000
363630.000000
364343.000000
365104.000000
365891.000000
366622.000000
367318.000000
368058.000000
368900.000000
369693.000000
370421.000000
371187.000000
371993.000000
372811.000000
373574.000000
374289.000000
375044.000000
375818.000000
376601.000000
377370.000000
378085.000000
378776.000000
379540.000000
380377.000000
381201.000000
381953.000000
382722.000000
383536.000000
384383.000000
385158.000000
385890.000000
386661.000000
387477.000000
388301.000000
389047.000000
389761.000000
390520.000000
391373.000000
392246.000000
393067.000000
393801.000000
394524.000000
395300.000000
396177.000000
396974.000000
397778.000000
398591.000000
399356.000000
400060.000000
400752.000000
401489.000000
402200.000000
402872.000000
403571.000000
404281.000000
404988.000000
405782.000000
406591.000000
407320.000000
408003.000000
408716.000000
409501.000000
410296.000000
411026.000000
411718.000000
412489.000000
413363.000000
414178.000000
414917.000000
415640.000000
416419.000000
417275.000000
418143.000000
418926.000000
419710.000000
420531.000000
421343.000000
422083.000000
422797.000000
423491.000000
424166.000000
424834.000000
425641.000000
426461.000000
427187.000000
427931.000000
428724.000000
429509.000000
430223.000000
430905.000000
431614.000000
432391.000000
433145.000000
433865.000000
434623.000000
435477.000000
436316.000000
437068.000000
437825.000000
438616.000000
439420.000000
440151.000000
440867.000000
441626.000000
442407.000000
443169.000000
443882.000000
444667.000000
445518.000000
446403.000000
447182.000000
447921.000000
448664.000000
449437.000000
450177.000000
450892.000000
451673.000000
452518.000000
453294.000000
454024.000000
454755.000000
455550.000000
456361.000000
457114.000000
457868.000000
458677.000000
459525.000000
460310.000000
461036.000000
461800.000000
462609.000000
463430.000000
464167.000000
464893.000000
465662.000000
466460.000000
467230.000000
467939.000000
468680.000000
469496.000000
470326.000000
471119.000000
471833.000000
472540.000000
473282.000000
474078.000000
474820.000000
475523.000000
476248.000000
477015.000000
477798.000000
478516.000000
479238.000000
480005.000000
480811.000000
481559.000000
482256.000000
482996.000000
483789.000000
484579.000000
485308.000000
486055.000000
486847.000000
487642.000000
488392.000000
489114.000000
489897.000000
490718.000000
491517.000000
492243.000000
492960.000000
493705.000000
494476.000000
495244.000000
495961.000000
496675.000000
497425.000000
498231.000000
499031.000000
499755.000000
500478.000000
501252.000000
502080.000000
502869.000000
503575.000000
504274.000000
505026.000000
505815.000000
506582.000000
507330.000000
508256.000000
509210.000000
510084.000000
510834.000000
511581.000000
512375.000000
513181.000000
513945.000000
514681.000000
515496.000000
516435.000000
517338.000000
518113.000000
518843.000000
519626.000000
520442.000000
521273.000000
522046.000000
522782.000000
523586.000000
524449.000000
525255.000000
525995.000000
526773.000000
527572.000000
528357.000000
529078.000000
529804.000000
530564.000000
531336.000000
532084.000000
532793.000000
533533.000000
534335.000000
535148.000000
535892.000000
536612.000000
537409.000000
538254.000000
539072.000000
539813.000000
540521.000000
541276.000000
542067.000000
542852.000000
543566.000000
544277.000000
545041.000000
545827.000000
546585.000000
547316.000000
548105.000000
548964.000000
549794.000000
550539.000000
551278.000000
552035.000000
552770.000000
553460.000000
554123.000000
554804.000000
555514.000000
556215.000000
556986.000000
557845.000000
558660.000000
559376.000000
560116.000000
560925.000000
561742.000000
562477.000000
563209.000000
564008.000000
564857.000000
565692.000000
566426.000000
567165.000000
567971.000000
568866.000000
569732.000000
570521.000000
571330.000000
572240.000000
573119.000000
573889.000000
574674.000000
575524.000000
576426.000000
577212.000000
577978.000000
578813.000000
579693.000000
580520.000000
581274.000000
582019.000000
582841.000000
583824.000000
584744.000000
585534.000000
586295.000000
587175.000000
588081.000000
588925.000000
589678.000000
590463.000000
591346.000000
592315.000000
593146.000000
593899.000000
594685.000000
595562.000000
596449.000000
597211.000000
597988.000000
598847.000000
599704.000000
600459.000000
601214.000000
602029.000000
602908.000000
603737.000000
604487.000000
605271.000000
606134.000000
606996.000000
607758.000000
608540.000000
609411.000000
610330.000000
611156.000000
611895.000000
612656.000000
613470.000000
614334.000000
615123.000000
615897.000000
616735.000000
617567.000000
618314.000000
619064.000000
619872.000000
620687.000000
621442.000000
622187.000000
622981.000000
623798.000000
624550.000000
625257.000000
625997.000000
626838.000000
627675.000000
628419.000000
629143.000000
629913.000000
630720.000000
631456.000000
632164.000000
632936.000000
633785.000000
634631.000000
635381.000000
636137.000000
636926.000000
637748.000000
638518.000000
639236.000000
639989.000000
640798.000000
641627.000000
642358.000000
643086.000000
643854.000000
644653.000000
645397.000000
646113.000000
646893.000000
647706.000000
648460.000000
649183.000000
649952.000000
650751.000000
651544.000000
652292.000000
653043.000000
653824.000000
654616.000000
655357.000000
656073.000000
656830.000000
657664.000000
658468.000000
659201.000000
659924.000000
660719.000000
661538.000000
662285.000000
662992.000000
663720.000000
664530.000000
665350.000000
666082.000000
666826.000000
667628.000000
668462.000000
669242.000000
669969.000000
670738.000000
671604.000000
672460.000000
673225.000000
673974.000000
674823.000000
675720.000000
676537.000000
677273.000000
677996.000000
678767.000000
679581.000000
680364.000000
681111.000000
681933.000000
682799.000000
683582.000000
684328.000000
685122.000000
685945.000000
686714.000000
687421.000000
688142.000000
688911.000000
689654.000000
690343.000000
691011.000000
691661.000000
692383.000000
693140.000000
693832.000000
694511.000000
695169.000000
695805.000000
696481.000000
697212.000000
697915.000000
698612.000000
699380.000000
700169.000000
700885.000000
701571.000000
702310.000000
703087.000000
703887.000000
704625.000000
705385.000000
706207.000000
707013.000000
707732.000000
708431.000000
709200.000000
710005.000000
710812.000000
711533.000000
712281.000000
713129.000000
713988.000000
714772.000000
715502.000000
716298.000000
717145.000000
718016.000000
718811.000000
719576.000000
720394.000000
721250.000000
722066.000000
722811.000000
723526.000000
724257.000000
724978.000000
725665.000000
726340.000000
727110.000000
727858.000000
728565.000000
729324.000000
730106.000000
730851.000000
731543.000000
732250.000000
733120.000000
733979.000000
734711.000000
735404.000000
736137.000000
736949.000000
737793.000000
738554.000000
739289.000000
740102.000000
740966.000000
741814.000000
742563.000000
743312.000000
744107.000000
744943.000000
745724.000000
746462.000000
747320.000000
748279.000000
749216.000000
750016.000000
750765.000000
751536.000000
752365.000000
753174.000000
753921.000000
754688.000000
755464.000000
756205.000000
756943.000000
757677.000000
758460.000000
759333.000000
760110.000000
760813.000000
761530.000000
762283.000000
763070.000000
763803.000000
764529.000000
765313.000000
766135.000000
766885.000000
767606.000000
768409.000000
769273.000000
770073.000000
770810.000000
771611.000000
772434.000000
773234.000000
773958.000000
774689.000000
775471.000000
776288.000000
777057.000000
777770.000000
778531.000000
779331.000000
780166.000000
780920.000000
781670.000000
782531.000000
783433.000000
784231.000000
784986.000000
785783.000000
786675.000000
787539.000000
788327.000000
789094.000000
789905.000000
790857.000000
791721.000000
792483.000000
793244.000000
794041.000000
794850.000000
795604.000000
796373.000000
797181.000000
798019.000000
798778.000000
799557.000000
800403.000000
801260.000000
802019.000000
802791.000000
803582.000000
804415.000000
805191.000000
805901.000000
806625.000000
807427.000000
808261.000000
809019.000000
809761.000000
810585.000000
811461.000000
812240.000000
812961.000000
813725.000000
814529.000000
815325.000000
816062.000000
816807.000000
817640.000000
818511.000000
819271.000000
820034.000000
820849.000000
821703.000000
822471.000000
823218.000000
824024.000000
824849.000000
825614.000000
826358.000000
827169.000000
828026.000000
828870.000000
829627.000000
830383.000000
831229.000000
832080.000000
832891.000000
833634.000000
834392.000000
835203.000000
836030.000000
836807.000000
837563.000000
838399.000000
839294.000000
840130.000000
840878.000000
841651.000000
842506.000000
843381.000000
844193.000000
844946.000000
845732.000000
846545.000000
847372.000000
848127.000000
848846.000000
849621.000000
850543.000000
851378.000000
852116.000000
852889.000000
853730.000000
854554.000000
855318.000000
856080.000000
856885.000000
857743.000000
858540.000000
859270.000000
859983.000000
860735.000000
861520.000000
862268.000000
862986.000000
863770.000000
864541.000000
865246.000000
865913.000000
866563.000000
867225.000000
867940.000000
868726.000000
869528.000000
870228.000000
870937.000000
871715.000000
872508.000000
873250.000000
873960.000000
874733.000000
875558.000000
876401.000000
877174.000000
877902.000000
878687.000000
879507.000000
880320.000000
881060.000000
881796.000000
882608.000000
883438.000000
884194.000000
884900.000000
885670.000000
886566.000000
887418.000000
888179.000000
888950.000000
889776.000000
890598.000000
891340.000000
892078.000000
892909.000000
893862.000000
894789.000000
895630.000000
896403.000000
897205.000000
898066.000000
898949.000000
899725.000000
900491.000000
901303.000000
902128.000000
902895.000000
903629.000000
904410.000000
905230.000000
906039.000000
906783.000000
907553.000000
908393.000000
909253.000000
910054.000000
910886.000000
911700.000000
912503.000000
913240.000000
913940.000000
914697.000000
915628.000000
916516.000000
917294.000000
918016.000000
918776.000000
919612.000000
920446.000000
921209.000000
921937.000000
922713.000000
923537.000000
924305.000000
925028.000000
925804.000000
926621.000000
927455.000000
928200.000000
928953.000000
929781.000000
930622.000000
931418.000000
932167.000000
932938.000000
933782.000000
934612.000000
935359.000000
936099.000000
936896.000000
937711.000000
938471.000000
939196.000000
940015.000000
940887.000000
941673.000000
942430.000000
943243.000000
944083.000000
944888.000000
945633.000000
946426.000000
947277.000000
948118.000000
948888.000000
949637.000000
950504.000000
951460.000000
952313.000000
953083.000000
953896.000000
954744.000000
955591.000000
956339.000000
957099.000000
957899.000000
958738.000000
959509.000000
960319.000000
961247.000000
962153.000000
962930.000000
963710.000000
964530.000000
965340.000000
966078.000000
966816.000000
967690.000000
968590.000000
969419.000000
970158.000000
970936.000000
971951.000000
972893.000000
973725.000000
974483.000000
975261.000000
976099.000000
976946.000000
977709.000000
978460.000000
979274.000000
980134.000000
980898.000000
981651.000000
982488.000000
983319.000000
984065.000000
984816.000000
985608.000000
986398.000000
987141.000000
987860.000000
988616.000000
989438.000000
990210.000000
990936.000000
991718.000000
992529.000000
993328.000000
994070.000000
994811.000000
995588.000000
996384.000000
997114.000000
997862.000000
998674.000000
999494.000000
1000237.000000
1000968.000000
1001773.000000
1002619.000000
1003402.000000
1004127.000000
1004870.000000
1005659.000000
1006448.000000
1007175.000000
1007898.000000
1008671.000000
1009483.000000
1010318.000000
1011085.000000
1011850.000000
1012636.000000
1013397.000000
1014113.000000
1014807.000000
1015553.000000
1016375.000000
1017180.000000
1017921.000000
1018685.000000
1019517.000000
1020360.000000
1021107.000000
1021843.000000
1022614.000000
1023407.000000
1024147.000000
1024869.000000
1025662.000000
1026502.000000
1027307.000000
1028044.000000
1028825.000000
1029643.000000
1030463.000000
1031201.000000
1031936.000000
1032708.000000
1033464.000000
1034245.000000
1034981.000000
1035721.000000
1036500.000000
1037291.000000
1038067.000000
1038781.000000
1039520.000000
1040305.000000
1041084.000000
1041802.000000
1042530.000000
1043254.000000
1043939.000000
1044598.000000
1045296.000000
1046038.000000
1046738.000000
1047509.000000
1048305.000000
1049082.000000
1049780.000000
1050496.000000
1051267.000000
1052081.000000
1052831.000000
1053543.000000
1054316.000000
1055161.000000
1055985.000000
1056719.000000
1057450.000000
1058225.000000
1059050.000000
1059842.000000
1060590.000000
1061395.000000
1062292.000000
1063217.000000
1064005.000000
1064797.000000
1065631.000000
1066523.000000
1067325.000000
1068134.000000
1068966.000000
1069833.000000
1070615.000000
1071435.000000
1072306.000000
1073221.000000
1074014.000000
1074826.000000
1075646.000000
1076450.000000
1077190.000000
1077941.000000
1078749.000000
1079607.000000
1080441.000000
1081198.000000
1081945.000000
1082727.000000
1083527.000000
1084332.000000
1085071.000000
1085801.000000
1086579.000000
1087416.000000
1088202.000000
1088956.000000
1089791.000000
1090676.000000
1091477.000000
1092243.000000
1093034.000000
1093872.000000
1094686.000000
1095445.000000
1096196.000000
1097034.000000
1097992.000000
1098930.000000
1099786.000000
1100531.000000
1101272.000000
1102125.000000
1103081.000000
1103978.000000
1104758.000000
1105498.000000
1106279.000000
1107105.000000
1108008.000000
1108850.000000
1109652.000000
1110584.000000
1111555.000000
1112494.000000
1113296.000000
1114032.000000
1114802.000000
1115657.000000
1116579.000000
1117461.000000
1118267.000000
1119122.000000
1120036.000000
1120952.000000
1121745.000000
1122487.000000
1123268.000000
1124108.000000
1125020.000000
1125915.000000
1126699.000000
1127479.000000
1128347.000000
1129265.000000
1130119.000000
1130869.000000
1131651.000000
1132525.000000
1133383.000000
1134151.000000
1134872.000000
1135652.000000
1136540.000000
1137430.000000
1138189.000000
1138922.000000
1139731.000000
1140662.000000
1141562.000000
1142341.000000
1143117.000000
1143944.000000
1144777.000000
1145576.000000
1146319.000000
1147131.000000
1148013.000000
1148822.000000
1149576.000000
1150362.000000
1151220.000000
