ECG (ms)
123.000000
789.000000
1435.000000
2089.000000
2718.000000
3341.000000
3968.000000
4628.000000
5335.000000
6018.000000
6679.000000
7360.000000
8100.000000
8837.000000
9630.000000
10343.000000
10964.000000
11539.000000
12114.000000
12681.000000
13271.000000
13929.000000
14714.000000
15481.000000
16149.000000
16819.000000
17460.000000
18096.000000
18766.000000
19432.000000
20135.000000
20830.000000
21515.000000
22219.000000
22926.000000
23621.000000
24318.000000
24954.000000
25590.000000
26226.000000
26879.000000
27508.000000
28129.000000
28757.000000
29407.000000
30085.000000
30723.000000
31371.000000
32036.000000
32680.000000
33330.000000
34001.000000
34695.000000
35381.000000
36030.000000
36671.000000
37340.000000
37993.000000
38645.000000
39283.000000
39937.000000
40607.000000
41290.000000
42008.000000
42651.000000
43295.000000
43958.000000
44639.000000
45315.000000
45969.000000
46619.000000
47292.000000
48005.000000
48746.000000
49404.000000
50063.000000
50735.000000
51440.000000
52091.000000
52725.000000
53366.000000
54037.000000
54721.000000
55394.000000
56054.000000
56740.000000
57430.000000
58112.000000
58758.000000
59400.000000
60075.000000
60771.000000
61453.000000
62135.000000
62783.000000
63414.000000
64053.000000
64706.000000
65368.000000
66007.000000
66657.000000
67295.000000
67957.000000
68613.000000
69258.000000
69911.000000
70587.000000
71238.000000
71884.000000
72528.000000
73203.000000
73880.000000
74528.000000
75199.000000
75905.000000
76626.000000
77296.000000
77944.000000
78595.000000
79248.000000
79890.000000
80538.000000
81190.000000
81891.000000
82607.000000
83338.000000
84000.000000
84665.000000
85345.000000
86044.000000
86718.000000
87376.000000
88007.000000
88657.000000
89312.000000
89989.000000
90661.000000
91304.000000
91955.000000
92626.000000
93314.000000
93979.000000
94625.000000
95275.000000
95940.000000
96593.000000
97243.000000
97866.000000
98475.000000
99102.000000
99741.000000
100385.000000
101044.000000
101690.000000
102330.000000
102993.000000
103661.000000
104324.000000
104997.000000
105660.000000
106314.000000
106960.000000
107631.000000
108328.000000
108981.000000
109639.000000
110308.000000
111025.000000
111763.000000
112427.000000
113109.000000
113795.000000
114502.000000
115158.000000
115807.000000
116463.000000
117169.000000
117897.000000
118575.000000
119267.000000
120012.000000
120716.000000
121364.000000
122005.000000
122631.000000
123249.000000
123861.000000
124460.000000
125048.000000
125640.000000
126383.000000
127130.000000
127839.000000
128512.000000
129176.000000
129815.000000
130437.000000
131047.000000
131673.000000
132326.000000
132978.000000
133603.000000
134186.000000
134800.000000
135447.000000
136097.000000
136745.000000
137414.000000
138060.000000
138713.000000
139362.000000
140033.000000
140710.000000
141394.000000
142035.000000
142676.000000
143340.000000
144009.000000
144683.000000
145336.000000
145981.000000
146651.000000
147345.000000
147984.000000
148597.000000
149207.000000
149836.000000
150474.000000
151122.000000
151743.000000
152367.000000
153002.000000
153647.000000
154276.000000
154885.000000
155479.000000
156067.000000
156676.000000
157290.000000
157916.000000
158557.000000
159215.000000
159921.000000
160585.000000
161263.000000
161954.000000
162616.000000
163254.000000
163901.000000
164549.000000
165215.000000
165905.000000
166552.000000
167195.000000
167855.000000
168523.000000
169161.000000
169797.000000
170436.000000
171097.000000
171734.000000
172365.000000
173004.000000
173639.000000
174252.000000
174857.000000
175460.000000
176103.000000
176776.000000
177442.000000
178097.000000
178764.000000
179437.000000
180089.000000
180717.000000
181351.000000
181989.000000
182633.000000
183264.000000
183889.000000
184531.000000
185181.000000
185824.000000
186458.000000
187100.000000
187777.000000
188432.000000
189098.000000
189735.000000
190374.000000
191043.000000
191753.000000
192408.000000
193028.000000
193628.000000
194219.000000
194817.000000
195424.000000
196024.000000
196623.000000
197238.000000
197862.000000
198476.000000
199089.000000
199678.000000
200246.000000
200794.000000
201355.000000
201944.000000
202543.000000
203132.000000
203730.000000
204345.000000
204948.000000
205548.000000
206175.000000
206845.000000
207491.000000
208140.000000
208795.000000
209452.000000
210123.000000
210786.000000
211426.000000
212067.000000
212720.000000
213375.000000
214030.000000
214655.000000
215278.000000
215903.000000
216537.000000
217179.000000
217814.000000
218500.000000
219202.000000
219898.000000
220554.000000
221193.000000
221818.000000
222484.000000
223167.000000
223810.000000
224459.000000
225100.000000
225720.000000
226331.000000
226942.000000
227574.000000
228206.000000
228842.000000
229491.000000
230127.000000
230760.000000
231403.000000
232058.000000
232690.000000
233327.000000
233954.000000
234587.000000
235199.000000
235807.000000
236417.000000
237032.000000
237647.000000
238259.000000
238886.000000
239507.000000
240153.000000
240777.000000
241413.000000
242075.000000
242718.000000
243331.000000
243939.000000
244556.000000
245188.000000
245827.000000
246443.000000
247051.000000
247657.000000
248277.000000
248912.000000
249537.000000
250162.000000
250786.000000
251420.000000
252054.000000
252666.000000
253277.000000
253891.000000
254522.000000
255129.000000
255737.000000
256357.000000
256993.000000
257620.000000
258241.000000
258857.000000
259472.000000
260082.000000
260686.000000
261304.000000
261920.000000
262537.000000
263147.000000
263753.000000
264358.000000
264981.000000
265604.000000
266225.000000
266863.000000
267529.000000
268199.000000
268855.000000
269469.000000
270079.000000
270691.000000
271322.000000
271933.000000
272520.000000
273085.000000
273647.000000
274280.000000
274952.000000
275616.000000
276287.000000
276945.000000
277585.000000
278216.000000
278833.000000
279434.000000
279999.000000
280551.000000
281123.000000
281703.000000
282303.000000
282911.000000
283547.000000
284182.000000
284798.000000
285405.000000
285998.000000
286587.000000
287192.000000
287794.000000
288407.000000
289032.000000
289645.000000
290253.000000
290850.000000
291450.000000
292075.000000
292708.000000
293353.000000
294003.000000
294639.000000
295231.000000
295801.000000
296375.000000
296955.000000
297567.000000
298190.000000
298811.000000
299426.000000
300053.000000
300690.000000
301343.000000
301966.000000
302579.000000
303214.000000
303856.000000
304495.000000
305146.000000
305807.000000
306453.000000
307088.000000
307703.000000
308310.000000
308929.000000
309584.000000
310265.000000
310922.000000
311567.000000
312215.000000
312860.000000
313517.000000
314174.000000
314820.000000
315481.000000
316148.000000
316809.000000
317487.000000
318148.000000
318781.000000
319408.000000
320056.000000
320698.000000
321326.000000
321957.000000
322606.000000
323256.000000
323907.000000
324546.000000
325182.000000
325833.000000
326490.000000
327135.000000
327769.000000
328388.000000
329011.000000
329644.000000
330258.000000
330868.000000
331481.000000
332096.000000
332712.000000
333322.000000
333937.000000
334592.000000
335241.000000
335868.000000
336478.000000
337065.000000
337624.000000
338182.000000
338766.000000
339387.000000
340038.000000
340692.000000
341328.000000
341980.000000
342653.000000
343345.000000
344021.000000
344663.000000
345297.000000
345919.000000
346567.000000
347222.000000
347906.000000
348565.000000
349247.000000
349918.000000
350582.000000
351245.000000
351932.000000
352636.000000
353283.000000
353924.000000
354564.000000
355262.000000
355967.000000
356659.000000
357328.000000
357988.000000
358665.000000
359353.000000
360050.000000
360713.000000
361367.000000
362025.000000
362688.000000
363329.000000
363959.000000
364612.000000
365307.000000
366019.000000
366704.000000
367349.000000
367977.000000
368612.000000
369253.000000
369890.000000
370505.000000
371117.000000
371736.000000
372368.000000
372994.000000
373616.000000
374256.000000
374899.000000
375548.000000
376212.000000
376846.000000
377475.000000
378107.000000
378741.000000
379373.000000
379984.000000
380599.000000
381231.000000
381871.000000
382516.000000
383140.000000
383764.000000
384397.000000
385046.000000
385681.000000
386302.000000
386919.000000
387532.000000
388181.000000
388828.000000
389456.000000
390078.000000
390711.000000
391357.000000
392002.000000
392648.000000
393283.000000
393918.000000
394555.000000
395194.000000
395822.000000
396443.000000
397057.000000
397693.000000
398339.000000
398963.000000
399576.000000
400198.000000
400839.000000
401468.000000
402093.000000
402740.000000
403405.000000
404041.000000
404669.000000
405306.000000
405951.000000
406599.000000
407238.000000
407876.000000
408540.000000
409212.000000
409855.000000
410480.000000
411089.000000
411695.000000
412355.000000
413015.000000
413680.000000
414336.000000
414977.000000
415624.000000
416275.000000
416925.000000
417578.000000
418230.000000
418908.000000
419606.000000
420268.000000
420915.000000
421559.000000
422209.000000
422871.000000
423539.000000
424195.000000
424828.000000
425497.000000
426164.000000
426802.000000
427414.000000
428032.000000
428650.000000
429270.000000
429889.000000
430501.000000
431125.000000
431772.000000
432401.000000
433015.000000
433619.000000
434226.000000
434836.000000
435451.000000
436068.000000
436667.000000
437257.000000
437844.000000
438452.000000
439056.000000
439638.000000
440195.000000
440754.000000
441321.000000
441901.000000
442504.000000
443108.000000
443693.000000
444276.000000
444867.000000
445450.000000
446028.000000
446606.000000
447216.000000
447849.000000
448486.000000
449123.000000
449777.000000
450433.000000
451084.000000
451729.000000
452369.000000
453011.000000
453643.000000
454269.000000
454873.000000
455473.000000
456092.000000
456750.000000
457416.000000
458060.000000
458691.000000
459315.000000
459950.000000
460586.000000
461235.000000
461873.000000
462490.000000
463105.000000
463743.000000
464433.000000
465101.000000
465752.000000
466383.000000
467007.000000
467629.000000
468280.000000
468949.000000
469613.000000
470268.000000
470934.000000
471611.000000
472287.000000
473027.000000
473765.000000
474480.000000
475140.000000
475768.000000
476386.000000
477000.000000
477623.000000
478234.000000
478836.000000
479450.000000
480107.000000
480776.000000
481422.000000
482064.000000
482690.000000
483295.000000
483884.000000
484492.000000
485127.000000
485761.000000
486397.000000
487010.000000
487587.000000
488167.000000
488760.000000
489356.000000
489971.000000
490603.000000
491242.000000
491872.000000
492503.000000
493136.000000
493772.000000
494411.000000
495051.000000
495680.000000
496322.000000
496979.000000
497615.000000
498232.000000
498872.000000
499546.000000
500183.000000
500819.000000
501474.000000
502161.000000
502856.000000
503510.000000
504145.000000
504788.000000
505436.000000
506074.000000
506705.000000
507326.000000
507951.000000
508593.000000
509256.000000
509877.000000
510509.000000
511170.000000
511831.000000
512480.000000
513120.000000
513755.000000
514403.000000
515006.000000
515590.000000
516156.000000
516740.000000
517352.000000
517961.000000
518559.000000
519156.000000
519778.000000
520421.000000
521063.000000
521687.000000
522313.000000
522943.000000
523585.000000
524238.000000
524889.000000
525534.000000
526174.000000
526838.000000
527537.000000
528381.000000
529067.000000
529730.000000
530374.000000
531017.000000
531652.000000
532274.000000
532895.000000
533554.000000
534299.000000
534998.000000
535703.000000
536395.000000
537084.000000
537781.000000
538441.000000
539123.000000
539777.000000
540416.000000
541065.000000
541720.000000
542348.000000
542964.000000
543583.000000
544202.000000
544841.000000
545497.000000
546157.000000
546819.000000
547492.000000
548171.000000
548818.000000
549474.000000
550131.000000
550768.000000
551397.000000
552026.000000
552677.000000
553313.000000
553954.000000
554580.000000
555189.000000
555802.000000
556464.000000
557115.000000
557748.000000
558375.000000
559014.000000
559658.000000
560299.000000
560930.000000
561551.000000
562159.000000
562779.000000
563402.000000
564013.000000
564626.000000
565252.000000
565931.000000
566561.000000
567166.000000
567748.000000
568324.000000
568919.000000
569582.000000
570205.000000
570789.000000
571364.000000
571960.000000
572557.000000
573156.000000
573751.000000
574366.000000
574991.000000
575619.000000
576270.000000
576947.000000
577625.000000
578314.000000
578991.000000
579635.000000
580275.000000
580944.000000
581612.000000
582259.000000
582897.000000
583516.000000
584114.000000
584684.000000
585259.000000
585837.000000
586425.000000
587029.000000
587681.000000
588336.000000
588982.000000
589614.000000
590229.000000
590848.000000
591479.000000
592111.000000
592740.000000
593358.000000
593978.000000
594619.000000
595312.000000
596018.000000
596717.000000
597415.000000
598097.000000
598781.000000
599429.000000
600091.000000
600752.000000
601401.000000
602060.000000
602702.000000
603329.000000
603947.000000
604561.000000
605202.000000
605858.000000
606528.000000
607185.000000
607834.000000
608477.000000
609133.000000
609775.000000
610408.000000
611064.000000
611729.000000
612383.000000
613035.000000
613698.000000
614363.000000
615015.000000
615674.000000
616328.000000
616949.000000
617561.000000
618168.000000
618791.000000
619425.000000
620062.000000
620686.000000
621292.000000
621906.000000
622528.000000
623131.000000
623698.000000
624256.000000
624822.000000
625398.000000
626002.000000
626620.000000
627246.000000
627864.000000
628486.000000
629109.000000
629732.000000
630356.000000
630977.000000
631582.000000
632180.000000
632784.000000
633407.000000
634039.000000
634654.000000
635269.000000
635901.000000
636552.000000
637212.000000
637869.000000
638501.000000
639125.000000
639762.000000
640414.000000
641055.000000
641686.000000
642319.000000
642969.000000
643650.000000
644305.000000
644962.000000
645636.000000
646281.000000
646922.000000
647560.000000
648207.000000
648854.000000
649491.000000
650130.000000
650796.000000
651459.000000
652102.000000
652744.000000
653399.000000
654071.000000
654737.000000
655454.000000
656153.000000
656899.000000
657612.000000
658351.000000
659121.000000
659802.000000
660494.000000
661148.000000
661797.000000
662451.000000
663087.000000
663703.000000
664342.000000
664993.000000
665632.000000
666259.000000
666904.000000
667579.000000
668262.000000
668947.000000
669598.000000
670240.000000
670925.000000
671597.000000
672268.000000
672917.000000
673554.000000
674204.000000
674869.000000
675512.000000
676153.000000
676801.000000
677441.000000
678077.000000
678703.000000
679321.000000
679939.000000
680598.000000
681265.000000
681905.000000
682546.000000
683199.000000
683839.000000
684473.000000
685101.000000
685729.000000
686379.000000
687023.000000
687670.000000
688296.000000
688921.000000
689543.000000
690163.000000
690780.000000
691410.000000
692030.000000
692643.000000
693277.000000
693910.000000
694526.000000
695159.000000
695777.000000
696396.000000
697025.000000
697674.000000
698321.000000
698961.000000
699603.000000
700235.000000
700865.000000
701498.000000
702134.000000
702748.000000
703366.000000
704000.000000
704645.000000
705277.000000
705897.000000
706523.000000
707175.000000
707833.000000
708494.000000
709135.000000
709764.000000
710397.000000
711052.000000
711718.000000
712369.000000
713012.000000
713634.000000
714309.000000
715005.000000
715669.000000
716317.000000
716947.000000
717594.000000
718255.000000
718898.000000
719547.000000
720170.000000
720778.000000
721379.000000
721989.000000
722629.000000
723266.000000
723889.000000
724508.000000
725154.000000
725812.000000
726495.000000
727202.000000
727887.000000
728536.000000
729217.000000
730015.000000
730700.000000
731366.000000
732008.000000
732628.000000
733236.000000
733852.000000
734538.000000
735256.000000
735949.000000
736605.000000
737212.000000
737845.000000
738489.000000
739129.000000
739794.000000
740474.000000
741138.000000
741807.000000
742445.000000
743080.000000
743689.000000
744282.000000
744867.000000
745453.000000
746098.000000
746897.000000
747670.000000
748407.000000
749107.000000
749788.000000
750428.000000
751063.000000
751683.000000
752307.000000
752967.000000
753672.000000
754401.000000
755125.000000
755792.000000
756464.000000
757172.000000
757935.000000
758649.000000
759337.000000
760022.000000
760704.000000
761333.000000
761960.000000
762593.000000
763256.000000
763933.000000
764597.000000
765310.000000
766017.000000
766769.000000
767524.000000
768261.000000
768980.000000
769658.000000
770295.000000
770931.000000
771592.000000
772273.000000
772935.000000
773571.000000
774183.000000
774799.000000
775417.000000
776050.000000
776705.000000
777358.000000
778011.000000
778635.000000
779269.000000
779924.000000
780577.000000
781240.000000
781885.000000
782520.000000
783178.000000
783835.000000
784520.000000
785158.000000
785776.000000
786374.000000
786951.000000
787511.000000
788090.000000
788701.000000
789348.000000
789965.000000
790592.000000
791229.000000
791877.000000
792540.000000
793194.000000
793850.000000
794530.000000
795204.000000
795851.000000
796497.000000
797139.000000
797808.000000
798465.000000
799114.000000
799760.000000
800419.000000
801075.000000
801752.000000
802412.000000
803058.000000
803686.000000
804328.000000
804993.000000
805659.000000
806317.000000
806976.000000
807657.000000
808311.000000
808959.000000
809578.000000
810191.000000
810829.000000
811471.000000
812130.000000
812764.000000
813411.000000
814072.000000
814739.000000
815384.000000
816015.000000
816656.000000
817302.000000
817955.000000
818602.000000
819232.000000
819875.000000
820527.000000
821133.000000
821713.000000
822291.000000
822889.000000
823516.000000
824162.000000
824849.000000
825530.000000
826179.000000
826818.000000
827473.000000
828155.000000
828822.000000
829469.000000
830104.000000
830752.000000
831454.000000
832212.000000
832912.000000
833588.000000
834270.000000
834966.000000
835657.000000
836319.000000
836968.000000
837623.000000
838276.000000
838910.000000
839540.000000
840194.000000
840850.000000
841533.000000
842181.000000
842832.000000
843463.000000
844107.000000
844826.000000
845533.000000
846230.000000
846917.000000
847584.000000
848218.000000
848842.000000
849471.000000
850134.000000
850797.000000
851453.000000
852118.000000
852796.000000
853465.000000
854165.000000
854941.000000
855643.000000
856324.000000
856984.000000
857607.000000
858231.000000
858854.000000
859482.000000
860109.000000
860731.000000
861363.000000
861999.000000
862654.000000
863285.000000
863914.000000
864577.000000
865238.000000
865898.000000
866552.000000
867166.000000
867779.000000
868388.000000
869006.000000
869634.000000
870261.000000
870898.000000
871522.000000
872149.000000
872787.000000
873427.000000
874064.000000
874720.000000
875348.000000
875961.000000
876574.000000
877200.000000
877824.000000
878460.000000
879098.000000
879727.000000
880356.000000
880988.000000
881578.000000
882155.000000
882757.000000
883373.000000
883977.000000
884577.000000
885184.000000
885792.000000
886405.000000
887033.000000
887648.000000
888262.000000
888879.000000
889501.000000
890136.000000
890766.000000
891399.000000
892049.000000
892715.000000
893395.000000
894060.000000
894719.000000
895400.000000
896072.000000
896726.000000
897394.000000
898093.000000
898797.000000
899434.000000
900056.000000
900688.000000
901376.000000
902067.000000
902758.000000
903457.000000
904126.000000
904802.000000
905453.000000
906100.000000
906770.000000
907466.000000
908180.000000
908868.000000
909506.000000
910137.000000
910781.000000
911450.000000
912118.000000
912744.000000
913371.000000
913997.000000
914651.000000
915277.000000
915915.000000
916570.000000
917227.000000
917885.000000
918528.000000
919191.000000
919865.000000
