ECG (ms)
333.000000
1032.000000
1729.000000
2414.000000
3081.000000
3738.000000
4383.000000
5017.000000
5652.000000
6291.000000
6946.000000
7602.000000
8263.000000
8937.000000
9606.000000
10283.000000
10951.000000
11639.000000
12329.000000
13010.000000
13694.000000
14385.000000
15063.000000
15732.000000
16389.000000
17045.000000
17691.000000
18346.000000
19010.000000
19694.000000
20400.000000
21101.000000
21789.000000
22479.000000
23154.000000
23822.000000
24497.000000
25175.000000
25847.000000
26520.000000
27194.000000
27877.000000
28582.000000
29273.000000
29948.000000
30626.000000
31301.000000
31965.000000
32638.000000
33310.000000
33984.000000
34649.000000
35319.000000
35995.000000
36679.000000
37383.000000
38080.000000
38774.000000
39452.000000
40129.000000
40794.000000
41450.000000
42110.000000
42776.000000
43462.000000
44169.000000
44886.000000
45596.000000
46308.000000
47006.000000
47695.000000
48383.000000
49060.000000
49739.000000
50402.000000
51075.000000
51749.000000
52442.000000
53126.000000
53801.000000
54466.000000
55129.000000
55787.000000
56444.000000
57096.000000
57754.000000
58415.000000
59079.000000
59743.000000
60406.000000
61072.000000
61754.000000
62425.000000
63083.000000
63736.000000
64381.000000
65021.000000
65655.000000
66290.000000
66933.000000
67580.000000
68243.000000
68933.000000
69627.000000
70327.000000
71033.000000
71714.000000
72387.000000
73055.000000
73712.000000
74365.000000
75019.000000
75679.000000
76347.000000
77022.000000
77701.000000
78372.000000
79031.000000
79692.000000
80347.000000
81000.000000
81652.000000
82299.000000
82952.000000
83612.000000
84276.000000
84945.000000
85621.000000
86293.000000
86966.000000
87634.000000
88311.000000
88992.000000
89665.000000
90337.000000
91005.000000
91669.000000
92322.000000
92976.000000
93629.000000
94284.000000
94940.000000
95589.000000
96244.000000
96903.000000
97571.000000
98232.000000
98898.000000
99556.000000
100210.000000
100859.000000
101510.000000
102152.000000
102795.000000
103431.000000
104065.000000
104696.000000
105329.000000
105970.000000
106607.000000
107245.000000
107886.000000
108525.000000
109166.000000
109810.000000
110459.000000
111112.000000
111759.000000
112415.000000
113085.000000
113747.000000
114411.000000
115073.000000
115732.000000
116387.000000
117040.000000
117690.000000
118334.000000
118974.000000
119615.000000
120253.000000
120886.000000
121527.000000
122167.000000
122803.000000
123447.000000
124093.000000
124741.000000
125396.000000
126058.000000
126713.000000
127360.000000
128008.000000
128654.000000
129303.000000
129956.000000
130616.000000
131269.000000
131918.000000
132569.000000
133218.000000
133869.000000
134516.000000
135157.000000
135798.000000
136434.000000
137076.000000
137716.000000
138357.000000
139003.000000
139650.000000
140299.000000
140940.000000
141588.000000
142233.000000
142877.000000
143522.000000
144166.000000
144820.000000
145485.000000
146146.000000
146803.000000
147454.000000
148124.000000
148785.000000
149443.000000
150097.000000
150749.000000
151400.000000
152070.000000
152738.000000
153426.000000
154101.000000
154778.000000
155449.000000
156120.000000
156786.000000
157446.000000
158103.000000
158767.000000
159416.000000
160061.000000
160699.000000
161333.000000
161970.000000
162613.000000
163258.000000
163913.000000
164556.000000
165199.000000
165831.000000
166458.000000
167092.000000
167726.000000
168366.000000
169006.000000
169648.000000
170301.000000
170954.000000
171606.000000
172252.000000
172899.000000
173555.000000
174213.000000
174875.000000
175538.000000
176202.000000
176867.000000
177536.000000
178217.000000
178909.000000
179610.000000
180306.000000
181004.000000
181683.000000
182359.000000
183030.000000
183692.000000
184351.000000
185005.000000
185655.000000
186302.000000
186953.000000
187606.000000
188267.000000
188928.000000
189598.000000
190269.000000
190945.000000
191616.000000
192284.000000
192951.000000
193619.000000
194291.000000
194954.000000
195614.000000
196282.000000
196952.000000
197623.000000
198290.000000
198968.000000
199645.000000
200324.000000
201017.000000
201699.000000
202386.000000
203069.000000
203745.000000
204416.000000
205075.000000
205730.000000
206384.000000
207048.000000
207718.000000
208402.000000
209100.000000
209812.000000
210507.000000
211193.000000
211884.000000
212570.000000
213245.000000
213923.000000
214591.000000
215269.000000
215952.000000
216637.000000
217319.000000
218003.000000
218685.000000
219365.000000
220050.000000
220743.000000
221437.000000
222122.000000
222813.000000
223498.000000
224177.000000
224855.000000
225535.000000
226225.000000
226914.000000
227591.000000
228258.000000
228923.000000
229580.000000
230236.000000
230891.000000
231550.000000
232203.000000
232863.000000
233529.000000
234196.000000
234864.000000
235533.000000
236200.000000
236860.000000
237523.000000
238186.000000
238848.000000
239510.000000
240171.000000
240832.000000
241495.000000
242175.000000
242878.000000
243594.000000
244298.000000
244988.000000
245671.000000
246341.000000
247005.000000
247661.000000
248315.000000
248974.000000
249640.000000
250314.000000
251015.000000
251724.000000
252430.000000
253128.000000
253811.000000
254489.000000
255160.000000
255823.000000
256496.000000
257165.000000
257831.000000
258493.000000
259160.000000
259834.000000
260520.000000
261203.000000
261881.000000
262556.000000
263229.000000
263900.000000
264558.000000
265216.000000
265876.000000
266540.000000
267205.000000
267861.000000
268522.000000
269180.000000
269847.000000
270524.000000
271224.000000
271940.000000
272663.000000
273377.000000
274079.000000
274766.000000
275450.000000
276132.000000
276816.000000
277502.000000
278203.000000
278906.000000
279607.000000
280301.000000
280980.000000
281650.000000
282315.000000
282978.000000
283650.000000
284315.000000
284984.000000
285671.000000
286378.000000
287078.000000
287767.000000
288440.000000
289107.000000
289772.000000
290437.000000
291101.000000
291771.000000
292453.000000
293138.000000
293848.000000
294549.000000
295248.000000
295948.000000
296648.000000
297338.000000
298017.000000
298687.000000
299351.000000
300007.000000
300660.000000
301299.000000
301938.000000
302577.000000
303221.000000
303868.000000
304524.000000
305193.000000
305879.000000
306573.000000
307279.000000
308008.000000
308723.000000
309410.000000
310096.000000
310770.000000
311446.000000
312122.000000
312796.000000
313479.000000
314174.000000
314878.000000
315591.000000
316315.000000
317017.000000
317732.000000
318448.000000
319155.000000
319860.000000
320559.000000
321257.000000
321950.000000
322653.000000
323367.000000
324089.000000
324791.000000
325480.000000
326164.000000
326840.000000
327506.000000
328175.000000
328842.000000
329522.000000
330199.000000
330879.000000
331558.000000
332229.000000
332898.000000
333567.000000
334235.000000
334904.000000
335581.000000
336262.000000
336939.000000
337608.000000
338287.000000
338960.000000
339642.000000
340325.000000
341002.000000
341673.000000
342346.000000
343021.000000
343688.000000
344360.000000
345036.000000
345714.000000
346390.000000
347063.000000
347735.000000
348407.000000
349081.000000
349746.000000
350409.000000
351067.000000
351728.000000
352389.000000
353064.000000
353747.000000
354431.000000
355115.000000
355795.000000
356469.000000
357137.000000
357810.000000
358480.000000
359150.000000
359819.000000
360502.000000
361182.000000
361853.000000
362512.000000
363163.000000
363810.000000
364447.000000
365078.000000
365703.000000
366334.000000
366970.000000
367612.000000
368267.000000
368928.000000
369590.000000
370255.000000
370912.000000
371575.000000
372240.000000
372911.000000
373586.000000
374276.000000
374959.000000
375630.000000
376296.000000
376960.000000
377621.000000
378298.000000
378972.000000
379652.000000
380340.000000
381030.000000
381719.000000
382402.000000
383076.000000
383750.000000
384420.000000
385094.000000
385772.000000
386460.000000
387144.000000
387855.000000
388555.000000
389242.000000
389921.000000
390588.000000
391261.000000
391928.000000
392589.000000
393259.000000
393926.000000
394608.000000
395293.000000
395990.000000
396685.000000
397383.000000
398071.000000
398753.000000
399426.000000
400090.000000
400745.000000
401394.000000
402054.000000
402718.000000
403381.000000
404043.000000
404700.000000
405356.000000
405993.000000
406629.000000
407265.000000
407909.000000
408558.000000
409225.000000
409920.000000
410629.000000
411337.000000
412029.000000
412734.000000
413432.000000
414120.000000
414808.000000
415491.000000
416168.000000
416845.000000
417530.000000
418215.000000
418908.000000
419597.000000
420293.000000
420981.000000
421673.000000
422354.000000
423030.000000
423714.000000
424402.000000
425097.000000
425805.000000
426511.000000
427232.000000
427952.000000
428658.000000
429346.000000
430035.000000
430711.000000
431389.000000
432065.000000
432749.000000
433437.000000
434109.000000
434785.000000
435466.000000
436159.000000
436847.000000
437534.000000
438206.000000
438873.000000
439533.000000
440185.000000
440837.000000
441498.000000
442160.000000
442828.000000
443496.000000
444171.000000
444845.000000
445525.000000
446207.000000
446889.000000
447562.000000
448243.000000
448925.000000
449617.000000
450296.000000
450985.000000
451670.000000
452351.000000
453023.000000
453693.000000
454369.000000
455036.000000
455703.000000
456363.000000
457028.000000
457698.000000
458368.000000
459038.000000
459698.000000
460355.000000
461016.000000
461686.000000
462364.000000
463056.000000
463756.000000
464457.000000
465147.000000
465840.000000
466523.000000
467197.000000
467869.000000
468539.000000
469205.000000
469880.000000
470561.000000
471245.000000
471933.000000
472613.000000
473294.000000
473975.000000
474657.000000
475340.000000
476035.000000
476739.000000
477460.000000
478175.000000
478885.000000
479587.000000
480279.000000
480981.000000
481674.000000
482383.000000
483079.000000
483785.000000
484495.000000
485206.000000
485915.000000
486616.000000
487311.000000
487999.000000
488676.000000
489351.000000
490020.000000
490688.000000
491361.000000
492033.000000
492708.000000
493396.000000
494092.000000
494788.000000
495479.000000
496156.000000
496826.000000
497494.000000
498164.000000
498830.000000
499504.000000
500185.000000
500867.000000
501538.000000
502209.000000
502881.000000
503563.000000
504249.000000
504943.000000
505635.000000
506330.000000
507016.000000
507692.000000
508363.000000
509027.000000
509689.000000
510351.000000
511015.000000
511699.000000
512394.000000
513095.000000
513795.000000
514489.000000
515182.000000
515865.000000
516540.000000
517210.000000
517881.000000
518549.000000
519214.000000
519875.000000
520537.000000
521198.000000
521866.000000
522541.000000
523228.000000
523912.000000
524603.000000
525292.000000
525983.000000
526665.000000
527349.000000
528034.000000
528713.000000
529392.000000
530072.000000
530760.000000
531461.000000
532159.000000
532861.000000
533548.000000
534237.000000
534915.000000
535581.000000
536245.000000
536904.000000
537565.000000
538228.000000
538906.000000
539578.000000
540253.000000
540938.000000
541622.000000
542299.000000
542980.000000
543649.000000
544306.000000
544961.000000
545602.000000
546242.000000
546888.000000
547542.000000
548217.000000
548893.000000
549571.000000
550261.000000
550948.000000
551632.000000
552308.000000
552977.000000
553647.000000
554320.000000
554993.000000
555674.000000
556370.000000
557096.000000
557800.000000
558503.000000
559199.000000
559874.000000
560544.000000
561235.000000
561931.000000
562616.000000
563295.000000
563970.000000
564646.000000
565328.000000
566022.000000
566734.000000
567442.000000
568160.000000
568867.000000
569569.000000
570276.000000
570983.000000
571679.000000
572373.000000
573063.000000
573753.000000
574442.000000
575131.000000
575817.000000
576501.000000
577194.000000
577879.000000
578577.000000
579265.000000
579960.000000
580661.000000
581355.000000
582064.000000
582776.000000
583490.000000
584192.000000
584887.000000
585579.000000
586264.000000
586950.000000
587630.000000
588306.000000
588985.000000
589683.000000
590400.000000
591110.000000
591822.000000
592533.000000
593239.000000
593937.000000
594635.000000
595323.000000
596012.000000
596704.000000
597383.000000
598069.000000
598752.000000
599433.000000
600116.000000
600804.000000
601492.000000
602177.000000
602858.000000
603544.000000
604242.000000
604940.000000
605642.000000
606348.000000
607050.000000
607746.000000
608433.000000
609117.000000
609795.000000
610470.000000
611153.000000
611842.000000
612524.000000
613216.000000
613902.000000
614594.000000
615289.000000
615976.000000
616655.000000
617335.000000
618020.000000
618713.000000
619392.000000
620068.000000
620739.000000
621420.000000
622092.000000
622770.000000
623442.000000
624113.000000
624788.000000
625473.000000
626153.000000
626842.000000
627524.000000
628204.000000
628874.000000
629537.000000
630197.000000
630862.000000
631543.000000
632232.000000
632926.000000
633630.000000
634340.000000
635048.000000
635747.000000
636440.000000
637123.000000
637801.000000
638481.000000
639159.000000
639832.000000
640511.000000
641180.000000
641859.000000
642548.000000
643244.000000
643938.000000
644633.000000
645323.000000
646008.000000
646691.000000
647366.000000
648036.000000
648705.000000
649376.000000
650049.000000
650720.000000
651397.000000
652083.000000
652763.000000
653448.000000
654137.000000
654847.000000
655544.000000
656235.000000
656918.000000
657596.000000
658267.000000
658947.000000
659624.000000
660314.000000
661008.000000
661714.000000
662411.000000
663117.000000
663815.000000
664504.000000
665198.000000
665889.000000
666569.000000
667248.000000
667936.000000
668634.000000
669336.000000
670044.000000
670739.000000
671435.000000
672121.000000
672808.000000
673494.000000
674180.000000
674865.000000
675555.000000
676247.000000
676940.000000
677629.000000
678315.000000
679002.000000
679696.000000
680379.000000
681056.000000
681728.000000
682394.000000
683058.000000
683731.000000
684406.000000
685085.000000
685760.000000
686436.000000
687119.000000
687795.000000
688469.000000
689144.000000
689816.000000
690485.000000
691165.000000
691840.000000
692508.000000
693172.000000
693837.000000
694507.000000
695178.000000
695855.000000
696527.000000
697199.000000
697874.000000
698555.000000
699227.000000
699898.000000
700577.000000
701257.000000
701928.000000
702600.000000
703270.000000
703942.000000
704617.000000
705296.000000
705977.000000
706663.000000
707342.000000
708019.000000
708695.000000
709370.000000
710039.000000
710708.000000
711374.000000
712038.000000
712707.000000
713382.000000
714059.000000
714740.000000
715427.000000
716118.000000
716825.000000
717527.000000
718227.000000
718925.000000
719614.000000
720297.000000
720980.000000
721657.000000
722343.000000
723025.000000
723711.000000
724400.000000
725090.000000
725777.000000
726463.000000
727151.000000
727835.000000
728527.000000
729213.000000
729904.000000
730591.000000
731274.000000
731963.000000
732647.000000
733341.000000
734029.000000
734720.000000
735406.000000
736093.000000
736776.000000
737467.000000
738157.000000
738849.000000
739534.000000
740214.000000
740885.000000
741559.000000
742223.000000
742887.000000
743550.000000
744214.000000
744900.000000
745585.000000
746274.000000
746962.000000
747662.000000
748353.000000
749046.000000
749741.000000
750426.000000
751118.000000
751797.000000
752476.000000
753154.000000
753827.000000
754504.000000
755174.000000
755851.000000
756525.000000
757197.000000
757880.000000
758584.000000
759284.000000
759984.000000
760679.000000
761367.000000
762046.000000
762725.000000
763398.000000
764082.000000
764766.000000
765459.000000
766154.000000
766850.000000
767543.000000
768233.000000
768943.000000
769633.000000
770320.000000
771002.000000
771676.000000
772340.000000
773006.000000
773672.000000
774348.000000
775034.000000
775730.000000
776429.000000
777131.000000
777832.000000
778528.000000
779237.000000
779931.000000
780625.000000
781313.000000
781996.000000
782671.000000
783346.000000
784017.000000
784689.000000
785360.000000
786031.000000
786707.000000
787378.000000
788067.000000
788756.000000
789446.000000
790134.000000
790824.000000
791517.000000
792207.000000
792896.000000
793601.000000
794318.000000
795015.000000
795687.000000
796354.000000
797027.000000
797701.000000
798373.000000
799036.000000
799690.000000
800338.000000
800980.000000
801618.000000
802255.000000
802891.000000
803521.000000
804154.000000
804805.000000
805462.000000
806150.000000
806844.000000
807530.000000
808206.000000
808876.000000
809535.000000
810182.000000
810829.000000
811467.000000
812097.000000
812726.000000
813361.000000
814005.000000
814664.000000
815348.000000
816042.000000
816783.000000
817522.000000
818252.000000
818973.000000
819678.000000
820376.000000
821069.000000
821757.000000
822458.000000
823176.000000
823917.000000
824674.000000
825434.000000
826175.000000
826917.000000
827638.000000
828341.000000
829037.000000
829733.000000
830415.000000
831106.000000
831816.000000
832535.000000
833262.000000
833998.000000
834727.000000
835452.000000
836184.000000
836907.000000
837618.000000
838335.000000
839040.000000
839764.000000
840473.000000
841185.000000
841891.000000
842602.000000
843312.000000
844034.000000
844756.000000
845469.000000
846175.000000
846888.000000
847589.000000
848290.000000
848996.000000
849706.000000
850413.000000
851136.000000
851876.000000
852598.000000
853318.000000
854022.000000
854726.000000
855421.000000
856125.000000
856822.000000
857538.000000
858259.000000
858960.000000
859641.000000
860309.000000
860994.000000
861701.000000
862419.000000
863128.000000
863827.000000
864527.000000
865228.000000
865921.000000
866620.000000
867320.000000
868033.000000
868754.000000
869470.000000
870187.000000
870898.000000
871603.000000
872313.000000
873012.000000
873703.000000
874390.000000
875070.000000
875748.000000
876430.000000
877120.000000
877810.000000
878493.000000
879179.000000
879868.000000
880560.000000
881243.000000
881924.000000
882616.000000
883322.000000
884034.000000
884750.000000
885450.000000
886136.000000
886807.000000
887475.000000
888140.000000
888825.000000
889525.000000
890250.000000
890983.000000
891717.000000
892444.000000
893153.000000
893839.000000
894519.000000
895195.000000
895880.000000
896552.000000
897203.000000
897860.000000
898524.000000
899195.000000
899883.000000
900581.000000
901291.000000
901995.000000
902691.000000
903382.000000
904068.000000
904757.000000
905439.000000
906127.000000
906832.000000
907546.000000
908250.000000
908954.000000
909670.000000
910400.000000
911109.000000
911813.000000
912510.000000
913207.000000
913911.000000
914624.000000
915340.000000
916043.000000
916745.000000
917448.000000
918151.000000
918841.000000
919533.000000
920219.000000
920917.000000
921616.000000
922323.000000
923038.000000
923748.000000
924483.000000
925218.000000
925960.000000
926675.000000
927387.000000
928102.000000
928810.000000
929517.000000
930235.000000
930956.000000
931679.000000
932382.000000
933083.000000
933775.000000
934494.000000
935220.000000
935944.000000
936667.000000
937379.000000
938085.000000
938780.000000
939468.000000
940157.000000
940847.000000
941547.000000
942258.000000
942984.000000
943697.000000
944418.000000
945149.000000
945861.000000
946573.000000
947284.000000
947994.000000
948697.000000
949381.000000
950059.000000
950734.000000
951416.000000
952101.000000
952793.000000
953489.000000
954204.000000
954933.000000
955655.000000
956356.000000
957074.000000
957784.000000
958489.000000
959196.000000
959904.000000
960603.000000
961305.000000
962001.000000
962686.000000
963361.000000
964034.000000
964714.000000
965405.000000
966091.000000
966768.000000
967431.000000
968091.000000
968749.000000
969421.000000
970111.000000
970829.000000
971561.000000
972326.000000
973065.000000
973823.000000
974548.000000
975271.000000
975979.000000
976678.000000
977375.000000
978078.000000
978779.000000
979486.000000
980193.000000
980896.000000
981607.000000
982322.000000
983034.000000
983743.000000
984437.000000
985127.000000
985824.000000
986518.000000
987210.000000
987909.000000
988609.000000
989318.000000
990035.000000
990759.000000
991479.000000
992197.000000
992920.000000
993629.000000
994342.000000
995051.000000
995754.000000
996452.000000
997158.000000
997858.000000
998563.000000
999281.000000
1000000.000000
1000712.000000
1001420.000000
1002112.000000
1002803.000000
1003491.000000
1004170.000000
1004846.000000
1005521.000000
1006209.000000
1006873.000000
1007548.000000
1008235.000000
1008936.000000
1009646.000000
1010357.000000
1011056.000000
1011769.000000
1012493.000000
1013191.000000
1013876.000000
1014557.000000
1015241.000000
1015926.000000
1016623.000000
1017342.000000
1018116.000000
1018900.000000
1019670.000000
1020430.000000
1021155.000000
1021866.000000
1022569.000000
1023267.000000
1023965.000000
1024664.000000
1025378.000000
1026111.000000
1026839.000000
1027560.000000
1028280.000000
1028992.000000
1029702.000000
1030407.000000
1031101.000000
1031788.000000
1032474.000000
1033158.000000
1033846.000000
1034525.000000
1035208.000000
1035881.000000
1036541.000000
1037209.000000
1037876.000000
1038561.000000
1039257.000000
1039956.000000
1040655.000000
1041350.000000
1042045.000000
1042748.000000
1043443.000000
1044147.000000
1044855.000000
1045560.000000
1046278.000000
1047012.000000
1047761.000000
1048495.000000
1049219.000000
1049954.000000
1050684.000000
1051406.000000
1052112.000000
1052803.000000
1053492.000000
1054193.000000
1054895.000000
1055592.000000
1056316.000000
1057043.000000
1057786.000000
1058529.000000
1059270.000000
1060010.000000
1060727.000000
1061460.000000
1062183.000000
1062904.000000
1063629.000000
1064347.000000
1065074.000000
1065788.000000
1066514.000000
1067229.000000
1067955.000000
1068671.000000
1069388.000000
1070095.000000
1070804.000000
1071538.000000
1072254.000000
1072972.000000
1073688.000000
1074415.000000
1075145.000000
1075885.000000
1076600.000000
1077322.000000
1078035.000000
1078745.000000
1079441.000000
1080142.000000
1080837.000000
1081534.000000
1082227.000000
1082932.000000
1083665.000000
1084392.000000
1085110.000000
1085821.000000
1086532.000000
1087230.000000
1087919.000000
1088610.000000
1089305.000000
1090002.000000
1090702.000000
1091404.000000
1092107.000000
1092815.000000
1093524.000000
1094239.000000
1094966.000000
1095688.000000
1096402.000000
1097112.000000
1097814.000000
1098514.000000
1099201.000000
1099896.000000
1100601.000000
1101300.000000
1102012.000000
1102725.000000
1103442.000000
1104151.000000
1104875.000000
1105595.000000
1106315.000000
1107025.000000
1107746.000000
1108453.000000
1109176.000000
1109881.000000
1110583.000000
1111280.000000
1111971.000000
1112662.000000
1113361.000000
1114073.000000
1114779.000000
1115486.000000
1116195.000000
1116906.000000
1117620.000000
1118319.000000
1119024.000000
1119726.000000
1120423.000000
1121108.000000
1121785.000000
1122474.000000
1123164.000000
1123855.000000
1124545.000000
1125218.000000
1125894.000000
1126589.000000
1127293.000000
1127988.000000
1128674.000000
1129350.000000
1130025.000000
1130703.000000
1131390.000000
1132082.000000
1132767.000000
1133457.000000
1134152.000000
1134847.000000
1135547.000000
1136249.000000
1136954.000000
1137670.000000
1138392.000000
1139106.000000
1139821.000000
1140528.000000
1141219.000000
1141911.000000
1142614.000000
1143321.000000
1144026.000000
1144727.000000
1145436.000000
1146145.000000
1146857.000000
1147557.000000
1148242.000000
1148902.000000
1149563.000000
1150229.000000
1150924.000000
1151640.000000
1152369.000000
1153089.000000
1153802.000000
1154512.000000
1155206.000000
1155909.000000
1156621.000000
1157339.000000
1158085.000000
1158862.000000
1159620.000000
1160401.000000
1161188.000000
1161939.000000
1162680.000000
1163428.000000
1164165.000000
1164882.000000
1165591.000000
1166285.000000
1166983.000000
1167697.000000
1168417.000000
1169165.000000
1169907.000000
1170646.000000
1171386.000000
1172124.000000
1172844.000000
1173571.000000
1174301.000000
1175029.000000
1175757.000000
1176489.000000
1177228.000000
1177973.000000
1178701.000000
1179430.000000
1180160.000000
1180908.000000
1181650.000000
1182368.000000
1183085.000000
1183811.000000
1184533.000000
1185272.000000
1186031.000000
1186795.000000
1187569.000000
1188313.000000
1189047.000000
1189784.000000
1190514.000000
1191232.000000
1191957.000000
1192667.000000
1193367.000000
1194073.000000
1194795.000000
1195535.000000
1196275.000000
1197042.000000
1197799.000000
1198528.000000
1199247.000000
1199962.000000
1200672.000000
1201381.000000
1202075.000000
1202769.000000
1203464.000000
1204167.000000
1204872.000000
1205589.000000
1206310.000000
1207019.000000
1207727.000000
1208438.000000
1209139.000000
1209836.000000
1210534.000000
1211246.000000
1211966.000000
1212700.000000
1213445.000000
1214207.000000
1214982.000000
1215740.000000
1216468.000000
1217177.000000
1217875.000000
1218571.000000
1219265.000000
1219960.000000
1220648.000000
1221342.000000
1222053.000000
1222778.000000
1223504.000000
1224244.000000
1224984.000000
1225710.000000
1226446.000000
1227164.000000
1227874.000000
1228573.000000
1229271.000000
1229973.000000
1230680.000000
1231405.000000
1232129.000000
1232857.000000
1233586.000000
1234330.000000
1235070.000000
1235820.000000
1236545.000000
1237255.000000
1237961.000000
1238663.000000
1239351.000000
1240038.000000
1240738.000000
1241440.000000
1242137.000000
1242838.000000
1243565.000000
1244295.000000
1245036.000000
1245769.000000
1246497.000000
1247210.000000
1247917.000000
1248613.000000
1249306.000000
1249990.000000
1250664.000000
1251331.000000
1252005.000000
1252708.000000
1253436.000000
1254142.000000
1254838.000000
1255515.000000
1256182.000000
1256861.000000
1257551.000000
1258252.000000
1258965.000000
1259691.000000
1260444.000000
1261174.000000
1261914.000000
1262643.000000
1263353.000000
1264059.000000
1264762.000000
1265468.000000
1266182.000000
1266920.000000
1267663.000000
1268405.000000
1269150.000000
1269876.000000
1270599.000000
1271328.000000
1272062.000000
1272798.000000
1273531.000000
1274265.000000
1274987.000000
1275709.000000
1276427.000000
1277159.000000
1277885.000000
1278607.000000
1279345.000000
1280080.000000
1280816.000000
1281554.000000
1282276.000000
1282998.000000
1283722.000000
1284435.000000
1285146.000000
1285868.000000
1286596.000000
1287338.000000
1288073.000000
1288803.000000
1289527.000000
1290251.000000
1290988.000000
1291741.000000
1292483.000000
1293222.000000
1293963.000000
1294692.000000
1295423.000000
1296140.000000
1296856.000000
1297568.000000
1298293.000000
1299036.000000
1299782.000000
1300536.000000
1301264.000000
1301972.000000
1302684.000000
1303404.000000
1304140.000000
1304876.000000
1305625.000000
1306357.000000
1307072.000000
1307773.000000
1308473.000000
1309206.000000
1309912.000000
1310605.000000
1311294.000000
1311975.000000
1312654.000000
1313328.000000
1314010.000000
1314695.000000
1315383.000000
1316077.000000
1316771.000000
1317461.000000
1318150.000000
1318831.000000
1319512.000000
1320199.000000
1320892.000000
1321579.000000
1322289.000000
1322985.000000
1323679.000000
1324377.000000
1325084.000000
1325799.000000
1326518.000000
1327230.000000
1327944.000000
1328641.000000
1329348.000000
1330044.000000
1330730.000000
1331438.000000
1332167.000000
1332928.000000
1333683.000000
1334452.000000
1335194.000000
1335928.000000
1336649.000000
1337345.000000
1338043.000000
1338734.000000
1339416.000000
1340101.000000
1340795.000000
1341482.000000
1342166.000000
1342854.000000
1343543.000000
1344243.000000
1344945.000000
1345662.000000
1346366.000000
1347080.000000
1347784.000000
1348494.000000
1349203.000000
1349928.000000
1350653.000000
1351383.000000
1352113.000000
1352846.000000
1353571.000000
1354287.000000
1354986.000000
1355681.000000
1356377.000000
1357074.000000
1357785.000000
1358513.000000
1359237.000000
1359959.000000
1360685.000000
1361405.000000
1362127.000000
1362856.000000
1363570.000000
1364264.000000
1364957.000000
1365655.000000
1366347.000000
1367037.000000
1367732.000000
1368441.000000
1369141.000000
1369832.000000
1370523.000000
1371211.000000
1371893.000000
1372577.000000
1373263.000000
1373958.000000
1374648.000000
1375349.000000
1376043.000000
1376725.000000
1377402.000000
1378081.000000
1378754.000000
1379433.000000
1380101.000000
1380764.000000
1381431.000000
1382103.000000
1382772.000000
1383442.000000
1384114.000000
1384795.000000
1385476.000000
1386170.000000
1386865.000000
1387583.000000
1388289.000000
1388984.000000
1389670.000000
1390352.000000
1391026.000000
1391698.000000
1392366.000000
1393037.000000
1393707.000000
1394369.000000
1395028.000000
1395686.000000
1396345.000000
1397004.000000
1397672.000000
1398337.000000
1399001.000000
1399666.000000
1400323.000000
1400983.000000
1401648.000000
1402306.000000
1402957.000000
1403598.000000
1404243.000000
1404886.000000
1405528.000000
1406178.000000
1406828.000000
1407487.000000
1408152.000000
1408836.000000
1409522.000000
1410202.000000
1410880.000000
1411563.000000
1412249.000000
1412936.000000
1413635.000000
1414341.000000
1415042.000000
1415738.000000
1416434.000000
1417124.000000
1417819.000000
1418507.000000
1419194.000000
1419876.000000
1420556.000000
1421242.000000
1421920.000000
1422603.000000
1423289.000000
1423989.000000
1424691.000000
1425394.000000
1426103.000000
1426817.000000
1427527.000000
1428233.000000
1428929.000000
1429625.000000
1430312.000000
1431004.000000
1431689.000000
1432367.000000
1433039.000000
1433714.000000
1434391.000000
1435063.000000
1435750.000000
1436438.000000
1437123.000000
1437807.000000
1438486.000000
1439168.000000
1439839.000000
1440503.000000
1441165.000000
1441817.000000
1442454.000000
1443094.000000
1443733.000000
1444377.000000
1445033.000000
1445704.000000
1446392.000000
1447090.000000
1447781.000000
1448473.000000
1449161.000000
1449846.000000
1450529.000000
1451215.000000
1451896.000000
1452592.000000
1453293.000000
1453994.000000
1454701.000000
1455402.000000
1456097.000000
1456788.000000
1457479.000000
1458169.000000
1458850.000000
1459549.000000
1460252.000000
1460954.000000
1461663.000000
1462374.000000
1463066.000000
1463756.000000
1464456.000000
1465161.000000
1465878.000000
1466591.000000
1467309.000000
1468027.000000
1468737.000000
1469433.000000
1470132.000000
1470824.000000
1471519.000000
1472217.000000
1472927.000000
1473629.000000
1474330.000000
1475039.000000
1475750.000000
1476450.000000
1477153.000000
1477848.000000
1478550.000000
1479253.000000
1479970.000000
1480671.000000
1481373.000000
1482073.000000
1482790.000000
1483501.000000
1484214.000000
1484915.000000
1485619.000000
1486308.000000
1486997.000000
1487675.000000
1488349.000000
1489021.000000
1489698.000000
1490379.000000
1491062.000000
1491758.000000
1492464.000000
1493166.000000
1493878.000000
1494591.000000
1495297.000000
1495994.000000
1496696.000000
1497385.000000
1498077.000000
1498768.000000
1499462.000000
1500153.000000
1500828.000000
1501497.000000
1502159.000000
1502810.000000
1503468.000000
1504132.000000
1504794.000000
1505457.000000
1506122.000000
1506796.000000
1507474.000000
1508147.000000
1508816.000000
1509485.000000
1510146.000000
1510815.000000
1511479.000000
1512161.000000
1512846.000000
1513549.000000
1514256.000000
1514969.000000
1515684.000000
1516396.000000
1517100.000000
1517805.000000
1518507.000000
1519202.000000
1519900.000000
1520590.000000
1521286.000000
1521983.000000
1522700.000000
1523424.000000
1524156.000000
1524882.000000
1525602.000000
1526322.000000
1527028.000000
1527728.000000
1528415.000000
1529094.000000
1529773.000000
1530464.000000
1531155.000000
1531849.000000
1532554.000000
1533278.000000
1534025.000000
1534755.000000
1535460.000000
1536183.000000
1536885.000000
1537576.000000
1538264.000000
1538954.000000
1539646.000000
1540348.000000
1541074.000000
1541797.000000
1542498.000000
1543195.000000
1543885.000000
1544583.000000
1545281.000000
1545981.000000
1546672.000000
1547355.000000
1548024.000000
1548685.000000
1549333.000000
1549990.000000
1550653.000000
1551316.000000
1551991.000000
1552678.000000
1553372.000000
1554072.000000
1554780.000000
1555485.000000
1556186.000000
1556878.000000
1557570.000000
1558265.000000
1558953.000000
1559636.000000
1560326.000000
1561026.000000
1561730.000000
1562429.000000
1563141.000000
1563850.000000
1564570.000000
1565312.000000
1566040.000000
1566762.000000
1567471.000000
1568177.000000
1568904.000000
1569639.000000
1570365.000000
1571080.000000
1571795.000000
1572499.000000
1573208.000000
1573909.000000
1574613.000000
1575319.000000
1576035.000000
1576750.000000
1577478.000000
1578194.000000
1578913.000000
1579630.000000
1580338.000000
1581040.000000
1581761.000000
1582470.000000
1583181.000000
1583886.000000
1584586.000000
1585298.000000
1586018.000000
1586759.000000
1587510.000000
1588251.000000
1589004.000000
1589756.000000
1590473.000000
1591173.000000
1591859.000000
1592539.000000
1593234.000000
1593951.000000
1594662.000000
1595381.000000
1596101.000000
1596837.000000
1597556.000000
1598276.000000
1598996.000000
1599706.000000
1600406.000000
1601117.000000
1601830.000000
1602538.000000
1603258.000000
1603976.000000
1604709.000000
1605433.000000
1606169.000000
1606896.000000
1607625.000000
1608334.000000
1609040.000000
1609740.000000
1610442.000000
1611130.000000
1611824.000000
1612525.000000
1613229.000000
1613932.000000
1614641.000000
1615352.000000
1616064.000000
1616771.000000
1617482.000000
1618172.000000
1618868.000000
1619574.000000
1620318.000000
1621075.000000
1621820.000000
1622574.000000
1623340.000000
1624073.000000
1624820.000000
1625568.000000
1626295.000000
1626994.000000
1627678.000000
1628364.000000
1629051.000000
1629754.000000
1630459.000000
1631167.000000
1631874.000000
1632584.000000
1633297.000000
1634052.000000
1634785.000000
1635508.000000
1636218.000000
1636923.000000
1637626.000000
1638323.000000
1639015.000000
1639719.000000
1640411.000000
1641098.000000
1641784.000000
1642478.000000
1643171.000000
1643863.000000
1644552.000000
1645256.000000
1645968.000000
1646673.000000
1647373.000000
1648067.000000
1648750.000000
1649431.000000
1650113.000000
1650796.000000
1651489.000000
1652181.000000
1652869.000000
1653571.000000
1654273.000000
1654966.000000
1655660.000000
1656353.000000
1657049.000000
1657742.000000
1658444.000000
1659150.000000
1659859.000000
1660556.000000
1661261.000000
1661962.000000
1662660.000000
1663349.000000
1664049.000000
1664755.000000
1665465.000000
1666179.000000
1666905.000000
1667617.000000
1668311.000000
1669007.000000
1669697.000000
1670388.000000
1671080.000000
1671777.000000
1672479.000000
1673179.000000
1673885.000000
1674592.000000
1675290.000000
1675985.000000
1676683.000000
1677388.000000
1678108.000000
1678813.000000
1679523.000000
1680230.000000
1680938.000000
1681642.000000
1682333.000000
1683025.000000
1683701.000000
1684377.000000
1685044.000000
1685724.000000
1686413.000000
1687115.000000
1687813.000000
1688535.000000
1689263.000000
1689986.000000
1690702.000000
1691428.000000
1692152.000000
1692869.000000
1693573.000000
1694278.000000
1694987.000000
1695706.000000
1696426.000000
1697162.000000
1697894.000000
1698629.000000
1699342.000000
1700039.000000
1700749.000000
1701465.000000
1702194.000000
1702912.000000
1703642.000000
1704385.000000
1705111.000000
1705819.000000
1706523.000000
1707225.000000
1707914.000000
1708611.000000
1709303.000000
1710013.000000
1710754.000000
1711503.000000
1712216.000000
1712906.000000
1713592.000000
1714284.000000
1714997.000000
1715726.000000
1716443.000000
1717164.000000
1717892.000000
1718640.000000
1719370.000000
1720088.000000
1720782.000000
1721467.000000
1722146.000000
1722844.000000
1723574.000000
1724319.000000
1725071.000000
1725848.000000
1726646.000000
1727381.000000
1728101.000000
1728793.000000
1729485.000000
1730173.000000
1730865.000000
1731560.000000
1732262.000000
1732976.000000
1733709.000000
1734463.000000
1735220.000000
1736006.000000
1736757.000000
1737481.000000
1738204.000000
1738912.000000
1739607.000000
1740295.000000
1740973.000000
1741677.000000
1742376.000000
1743074.000000
1743767.000000
1744467.000000
1745184.000000
1745922.000000
1746644.000000
1747361.000000
1748086.000000
1748814.000000
1749536.000000
1750269.000000
1751020.000000
1751738.000000
1752445.000000
1753143.000000
1753842.000000
1754534.000000
1755229.000000
1755942.000000
1756657.000000
1757392.000000
1758133.000000
1758846.000000
1759547.000000
1760249.000000
1760941.000000
1761635.000000
1762347.000000
1763061.000000
1763759.000000
1764449.000000
1765137.000000
1765828.000000
1766515.000000
1767200.000000
1767891.000000
1768589.000000
1769307.000000
1770044.000000
1770782.000000
1771503.000000
1772217.000000
1772920.000000
1773627.000000
1774345.000000
1775071.000000
1775789.000000
1776525.000000
1777249.000000
1777974.000000
1778680.000000
1779386.000000
1780099.000000
1780817.000000
1781536.000000
1782257.000000
1782992.000000
1783720.000000
1784429.000000
1785120.000000
1785813.000000
1786517.000000
1787209.000000
1787904.000000
1788607.000000
1789306.000000
1790031.000000
1790737.000000
1791436.000000
1792127.000000
1792816.000000
1793507.000000
1794205.000000
1794901.000000
1795593.000000
1796296.000000
1797016.000000
1797750.000000
1798488.000000
1799207.000000
1799916.000000
1800610.000000
1801306.000000
1802008.000000
1802721.000000
1803470.000000
