ECG (ms)
1054.000000
2082.000000
3216.000000
4262.000000
5333.000000
6428.000000
7496.000000
8606.000000
9673.000000
10765.000000
11801.000000
12848.000000
13927.000000
14939.000000
16062.000000
17124.000000
18246.000000
19404.000000
20536.000000
21687.000000
22830.000000
24001.000000
25142.000000
26313.000000
27454.000000
28609.000000
29735.000000
30888.000000
32039.000000
33167.000000
34299.000000
35401.000000
36530.000000
37581.000000
38638.000000
39684.000000
40692.000000
41734.000000
42704.000000
43710.000000
44691.000000
45646.000000
46631.000000
47558.000000
48542.000000
49531.000000
50510.000000
51673.000000
52741.000000
53829.000000
54937.000000
55951.000000
57031.000000
58117.000000
59117.000000
60204.000000
61318.000000
62374.000000
63509.000000
64587.000000
65676.000000
66789.000000
67897.000000
69039.000000
70152.000000
71298.000000
72437.000000
73585.000000
74740.000000
75857.000000
77023.000000
78159.000000
79303.000000
80444.000000
81586.000000
82739.000000
83765.000000
84652.000000
85677.000000
86681.000000
87775.000000
88942.000000
90003.000000
91178.000000
92261.000000
93418.000000
94571.000000
95709.000000
96895.000000
98015.000000
99169.000000
100350.000000
101502.000000
102645.000000
103753.000000
104916.000000
106086.000000
107206.000000
108361.000000
109493.000000
110592.000000
111777.000000
112906.000000
114049.000000
115217.000000
116362.000000
117534.000000
118708.000000
119899.000000
121091.000000
122255.000000
123444.000000
124615.000000
125799.000000
126954.000000
128122.000000
129293.000000
130471.000000
131619.000000
132811.000000
133997.000000
135194.000000
136392.000000
137530.000000
138712.000000
139838.000000
141028.000000
142156.000000
143194.000000
144336.000000
145460.000000
146571.000000
147753.000000
148865.000000
150015.000000
151135.000000
152296.000000
153470.000000
154603.000000
155784.000000
156929.000000
158107.000000
159279.000000
160416.000000
161611.000000
162823.000000
163973.000000
165167.000000
166320.000000
167518.000000
168715.000000
169932.000000
171153.000000
172323.000000
173515.000000
174714.000000
175908.000000
177120.000000
178309.000000
179510.000000
180687.000000
181855.000000
183038.000000
184217.000000
185421.000000
186624.000000
187826.000000
189075.000000
190269.000000
191464.000000
192631.000000
193812.000000
195006.000000
196168.000000
197391.000000
198586.000000
199774.000000
200989.000000
202163.000000
203371.000000
204561.000000
205731.000000
206945.000000
208093.000000
209305.000000
210501.000000
211678.000000
212870.000000
214033.000000
215228.000000
216387.000000
217583.000000
218795.000000
219996.000000
221217.000000
222395.000000
223631.000000
224824.000000
226032.000000
227254.000000
228424.000000
229632.000000
230823.000000
232001.000000
233179.000000
234300.000000
235458.000000
236614.000000
237743.000000
238916.000000
240090.000000
241257.000000
242463.000000
243639.000000
244847.000000
246053.000000
247264.000000
248510.000000
249686.000000
250885.000000
252143.000000
253323.000000
254514.000000
255682.000000
256863.000000
258064.000000
259239.000000
260466.000000
261648.000000
262840.000000
264093.000000
265328.000000
266530.000000
267735.000000
268885.000000
270068.000000
271218.000000
272430.000000
273582.000000
274766.000000
275912.000000
277117.000000
278279.000000
279456.000000
280607.000000
281760.000000
282947.000000
284078.000000
285262.000000
286428.000000
287593.000000
288817.000000
289978.000000
291160.000000
292380.000000
293546.000000
294741.000000
295930.000000
297126.000000
298350.000000
299545.000000
300747.000000
301937.000000
303100.000000
304276.000000
305432.000000
306599.000000
307765.000000
308906.000000
310068.000000
311202.000000
312387.000000
313550.000000
314699.000000
315884.000000
317066.000000
318238.000000
319453.000000
320645.000000
321858.000000
323095.000000
324299.000000
325492.000000
326679.000000
327897.000000
329109.000000
330280.000000
331493.000000
332703.000000
333883.000000
335091.000000
336274.000000
337466.000000
338691.000000
339876.000000
341115.000000
342309.000000
343516.000000
344728.000000
345900.000000
347144.000000
348367.000000
349595.000000
350819.000000
352045.000000
353273.000000
354490.000000
355691.000000
356916.000000
358099.000000
359324.000000
360544.000000
361722.000000
362941.000000
364165.000000
365386.000000
366591.000000
367800.000000
369001.000000
370262.000000
371470.000000
372708.000000
373901.000000
375083.000000
376261.000000
377413.000000
378631.000000
379768.000000
380920.000000
382108.000000
383264.000000
384463.000000
385638.000000
386842.000000
388045.000000
389242.000000
390441.000000
391610.000000
392807.000000
394020.000000
395210.000000
396412.000000
397596.000000
398770.000000
399987.000000
401183.000000
402347.000000
403569.000000
404800.000000
405991.000000
407169.000000
408369.000000
409532.000000
410725.000000
411949.000000
413117.000000
414306.000000
415500.000000
416682.000000
417906.000000
419094.000000
420313.000000
421521.000000
422713.000000
423939.000000
425118.000000
426342.000000
427592.000000
428756.000000
429977.000000
431163.000000
432379.000000
433568.000000
434755.000000
435930.000000
437075.000000
438053.000000
439127.000000
440137.000000
441290.000000
442558.000000
443749.000000
444925.000000
446086.000000
447270.000000
448425.000000
449622.000000
450784.000000
451973.000000
453145.000000
454336.000000
455542.000000
456731.000000
457977.000000
459205.000000
460426.000000
461670.000000
462892.000000
464133.000000
465381.000000
466616.000000
467844.000000
469059.000000
470288.000000
471504.000000
472690.000000
473903.000000
475127.000000
476332.000000
477552.000000
478784.000000
479971.000000
481183.000000
482359.000000
483542.000000
484738.000000
485888.000000
487089.000000
488290.000000
489440.000000
490650.000000
491834.000000
493036.000000
494247.000000
495418.000000
496649.000000
497889.000000
499082.000000
500320.000000
501495.000000
502749.000000
503995.000000
505180.000000
506396.000000
507600.000000
508854.000000
510036.000000
511299.000000
512533.000000
513814.000000
515057.000000
516277.000000
517531.000000
518816.000000
520048.000000
521311.000000
522580.000000
523817.000000
525104.000000
526355.000000
527615.000000
528858.000000
530089.000000
531376.000000
532630.000000
533884.000000
535175.000000
536410.000000
537663.000000
538891.000000
540119.000000
541322.000000
542515.000000
543726.000000
544909.000000
546140.000000
547380.000000
548610.000000
549897.000000
551162.000000
552409.000000
553673.000000
554914.000000
556193.000000
557507.000000
558759.000000
560038.000000
561337.000000
562576.000000
563844.000000
565082.000000
566364.000000
567644.000000
568897.000000
570203.000000
571459.000000
572655.000000
573922.000000
575164.000000
576388.000000
577637.000000
578829.000000
580053.000000
581286.000000
582499.000000
583715.000000
584967.000000
586127.000000
587378.000000
588602.000000
589774.000000
590970.000000
592119.000000
593307.000000
594426.000000
595650.000000
596856.000000
598070.000000
599307.000000
600504.000000
601727.000000
602920.000000
604140.000000
605367.000000
606612.000000
607828.000000
609075.000000
610310.000000
611543.000000
612756.000000
614001.000000
615262.000000
616498.000000
617754.000000
619083.000000
620338.000000
621593.000000
622825.000000
624027.000000
625284.000000
626533.000000
627748.000000
628974.000000
630134.000000
631182.000000
632150.000000
633066.000000
634134.000000
635219.000000
636519.000000
637641.000000
638911.000000
640076.000000
641306.000000
642464.000000
643663.000000
644873.000000
646066.000000
647274.000000
648459.000000
649687.000000
650905.000000
652123.000000
653408.000000
654645.000000
655859.000000
657144.000000
658417.000000
659645.000000
660926.000000
662247.000000
663506.000000
664775.000000
666050.000000
667316.000000
668606.000000
669877.000000
671144.000000
672442.000000
673700.000000
674928.000000
676208.000000
677438.000000
678701.000000
679909.000000
681139.000000
682349.000000
683515.000000
684777.000000
686024.000000
687186.000000
688404.000000
689564.000000
690771.000000
691945.000000
693148.000000
694366.000000
695556.000000
696816.000000
698053.000000
699314.000000
700592.000000
701836.000000
703108.000000
704373.000000
705641.000000
706927.000000
708228.000000
709485.000000
710792.000000
712043.000000
713338.000000
714626.000000
715908.000000
717200.000000
718500.000000
719811.000000
721100.000000
722355.000000
723650.000000
724935.000000
726274.000000
727524.000000
728719.000000
729961.000000
731083.000000
732270.000000
733391.000000
734667.000000
735889.000000
737085.000000
738321.000000
739535.000000
740754.000000
741995.000000
743168.000000
744387.000000
745595.000000
746803.000000
748013.000000
749214.000000
750451.000000
751769.000000
752988.000000
754210.000000
755437.000000
756616.000000
757852.000000
759007.000000
760225.000000
761384.000000
762599.000000
763824.000000
764996.000000
766216.000000
767435.000000
768666.000000
769905.000000
771117.000000
772340.000000
773553.000000
774748.000000
775998.000000
777263.000000
778511.000000
779771.000000
781015.000000
782309.000000
783548.000000
784747.000000
785994.000000
787220.000000
788445.000000
789674.000000
790883.000000
792100.000000
793364.000000
794593.000000
795796.000000
797054.000000
798309.000000
799531.000000
800777.000000
801970.000000
803222.000000
804442.000000
805667.000000
806912.000000
808107.000000
809376.000000
810635.000000
811884.000000
813145.000000
814353.000000
815598.000000
816839.000000
818120.000000
819396.000000
820652.000000
821923.000000
823160.000000
824434.000000
825701.000000
826950.000000
828264.000000
829492.000000
830770.000000
832062.000000
833349.000000
834631.000000
835926.000000
837207.000000
838477.000000
839738.000000
840866.000000
841849.000000
842813.000000
843780.000000
844789.000000
845960.000000
846994.000000
848203.000000
849396.000000
850628.000000
851842.000000
853029.000000
854266.000000
855485.000000
856720.000000
858008.000000
859290.000000
860499.000000
861768.000000
862969.000000
864191.000000
865434.000000
866651.000000
867876.000000
869148.000000
870398.000000
871687.000000
872983.000000
874267.000000
875540.000000
876828.000000
878139.000000
879384.000000
880648.000000
881916.000000
883170.000000
884390.000000
885640.000000
886871.000000
888066.000000
889334.000000
890574.000000
891813.000000
893079.000000
894366.000000
895560.000000
896795.000000
897942.000000
899152.000000
900354.000000
901536.000000
902770.000000
904022.000000
905197.000000
906418.000000
907647.000000
908875.000000
910066.000000
911317.000000
912542.000000
913784.000000
915055.000000
916332.000000
917579.000000
918851.000000
920078.000000
921314.000000
922593.000000
923847.000000
925077.000000
926251.000000
927497.000000
928680.000000
929798.000000
930955.000000
931988.000000
933300.000000
934460.000000
935702.000000
936926.000000
938078.000000
939274.000000
940414.000000
941609.000000
942812.000000
943980.000000
945084.000000
946042.000000
947093.000000
948081.000000
949138.000000
950282.000000
951314.000000
952486.000000
953681.000000
954775.000000
955936.000000
957119.000000
958371.000000
959573.000000
960687.000000
961888.000000
963131.000000
964339.000000
965552.000000
966762.000000
967975.000000
969224.000000
970451.000000
971643.000000
972889.000000
974115.000000
975314.000000
976545.000000
977759.000000
978963.000000
980181.000000
981375.000000
982618.000000
983871.000000
985059.000000
986279.000000
987508.000000
988716.000000
989940.000000
991140.000000
992341.000000
993559.000000
994731.000000
995945.000000
997100.000000
998309.000000
999503.000000
1000659.000000
1001855.000000
1003062.000000
1004233.000000
1005456.000000
1006666.000000
1007905.000000
1009103.000000
1010282.000000
1011500.000000
1012699.000000
1013906.000000
1015126.000000
1016349.000000
1017603.000000
1018855.000000
1020053.000000
1021307.000000
1022545.000000
1023806.000000
1025100.000000
1026388.000000
1027678.000000
1028944.000000
1030225.000000
1031506.000000
1032776.000000
1034072.000000
1035342.000000
1036605.000000
1037880.000000
1039132.000000
1040416.000000
1041663.000000
1042919.000000
1044209.000000
1045463.000000
1046709.000000
1047977.000000
1049161.000000
1050309.000000
1051334.000000
1052265.000000
1053283.000000
1054278.000000
1055260.000000
1056557.000000
1057715.000000
1058927.000000
1060083.000000
1061289.000000
1062488.000000
1063653.000000
1064890.000000
1066110.000000
1067322.000000
1068571.000000
1069798.000000
1071035.000000
1072341.000000
1073592.000000
1074851.000000
1076145.000000
1077383.000000
1078627.000000
1079893.000000
1081167.000000
1082460.000000
1083724.000000
1084968.000000
1086245.000000
1087443.000000
1088670.000000
1089808.000000
1090776.000000
1091711.000000
1092827.000000
1093841.000000
1095067.000000
1096209.000000
1097330.000000
1098572.000000
1099618.000000
1100833.000000
1101965.000000
1103013.000000
1104188.000000
1105237.000000
1106332.000000
1107521.000000
1108591.000000
1109765.000000
1110899.000000
1111982.000000
1113132.000000
1114234.000000
1115415.000000
1116575.000000
1117733.000000
1118925.000000
1120092.000000
1121291.000000
1122511.000000
1123691.000000
1124885.000000
1126117.000000
1127319.000000
1128543.000000
1129761.000000
1130950.000000
1132162.000000
1133359.000000
1134527.000000
1135740.000000
1136931.000000
1138131.000000
1139359.000000
1140514.000000
1141740.000000
1142901.000000
1144124.000000
1145316.000000
1146486.000000
1147699.000000
1148857.000000
1150074.000000
1151264.000000
1152456.000000
1153705.000000
1154895.000000
1156130.000000
1157404.000000
1158636.000000
1159854.000000
1161103.000000
1162318.000000
1163560.000000
1164761.000000
1166014.000000
1167200.000000
1168423.000000
1169626.000000
1170817.000000
1171914.000000
1172867.000000
1173975.000000
1175126.000000
1176323.000000
1177499.000000
1178557.000000
1179748.000000
1180932.000000
1182053.000000
1183251.000000
1184426.000000
1185659.000000
1186867.000000
1188058.000000
1189286.000000
1190531.000000
1191767.000000
1193038.000000
1194302.000000
1195559.000000
1196773.000000
1198028.000000
1199295.000000
1200518.000000
1201788.000000
1203023.000000
