ECG (ms)
121.000000
877.000000
1689.000000
2496.000000
3264.000000
3990.000000
4701.000000
5410.000000
6133.000000
6953.000000
7819.000000
8667.000000
9496.000000
10285.000000
11051.000000
11812.000000
12564.000000
13300.000000
14019.000000
14747.000000
15571.000000
16382.000000
17165.000000
17916.000000
18654.000000
19360.000000
20059.000000
20752.000000
21460.000000
22223.000000
23155.000000
24061.000000
24943.000000
25778.000000
26550.000000
27273.000000
27968.000000
28676.000000
29489.000000
30390.000000
31314.000000
32202.000000
33066.000000
33877.000000
34631.000000
35341.000000
36050.000000
36787.000000
37622.000000
38463.000000
39261.000000
40046.000000
40803.000000
41543.000000
42272.000000
42982.000000
43698.000000
44464.000000
45363.000000
46313.000000
47185.000000
47987.000000
48754.000000
49516.000000
50277.000000
51031.000000
51784.000000
52548.000000
53333.000000
54168.000000
55010.000000
55839.000000
56643.000000
57423.000000
58187.000000
58936.000000
59690.000000
60488.000000
61276.000000
62054.000000
62815.000000
63580.000000
64386.000000
65218.000000
66055.000000
66863.000000
67639.000000
68409.000000
69177.000000
69955.000000
70740.000000
71516.000000
72296.000000
73114.000000
74015.000000
74921.000000
75776.000000
76605.000000
77411.000000
78201.000000
78993.000000
79843.000000
80663.000000
81489.000000
82314.000000
83152.000000
83999.000000
84890.000000
85768.000000
86620.000000
87426.000000
88184.000000
88958.000000
89730.000000
90547.000000
91380.000000
92188.000000
93002.000000
93832.000000
94697.000000
95581.000000
96434.000000
97238.000000
98041.000000
98839.000000
99628.000000
100396.000000
101142.000000
101867.000000
102587.000000
103361.000000
104154.000000
104937.000000
105705.000000
106473.000000
107220.000000
107949.000000
108687.000000
109429.000000
110169.000000
110942.000000
111785.000000
112633.000000
113485.000000
114309.000000
115085.000000
115833.000000
116565.000000
117293.000000
118012.000000
118755.000000
119527.000000
120289.000000
121080.000000
121915.000000
122746.000000
123541.000000
124277.000000
124968.000000
125614.000000
126249.000000
126908.000000
127590.000000
128302.000000
129057.000000
129838.000000
130681.000000
131517.000000
132320.000000
133124.000000
133915.000000
134694.000000
135445.000000
136188.000000
136942.000000
137690.000000
138447.000000
139240.000000
140110.000000
141024.000000
141898.000000
142699.000000
143464.000000
144198.000000
144939.000000
145686.000000
146445.000000
147220.000000
147997.000000
148788.000000
149634.000000
150543.000000
151423.000000
152279.000000
153097.000000
153902.000000
154706.000000
155487.000000
156257.000000
157018.000000
157794.000000
158609.000000
159494.000000
160353.000000
161166.000000
161968.000000
162746.000000
163501.000000
164247.000000
164975.000000
165705.000000
166485.000000
167352.000000
168267.000000
169141.000000
169940.000000
170696.000000
171425.000000
172153.000000
172882.000000
173616.000000
174369.000000
175169.000000
176079.000000
177030.000000
177940.000000
178793.000000
179600.000000
180374.000000
181133.000000
181865.000000
182574.000000
183277.000000
184004.000000
184786.000000
185627.000000
186447.000000
187234.000000
188006.000000
188772.000000
189522.000000
190265.000000
190994.000000
191705.000000
192404.000000
193109.000000
193837.000000
194609.000000
195420.000000
196197.000000
196948.000000
197672.000000
198393.000000
199118.000000
199841.000000
200569.000000
201308.000000
202037.000000
202762.000000
203495.000000
204259.000000
205061.000000
205825.000000
206553.000000
207276.000000
208003.000000
208734.000000
209450.000000
210168.000000
210889.000000
211628.000000
212430.000000
213248.000000
214036.000000
214815.000000
215548.000000
216285.000000
217025.000000
217763.000000
218516.000000
219272.000000
220033.000000
220788.000000
221524.000000
222247.000000
222969.000000
223714.000000
224494.000000
225265.000000
226016.000000
226753.000000
227464.000000
228169.000000
228877.000000
229563.000000
230207.000000
230857.000000
231517.000000
232146.000000
232803.000000
233492.000000
234200.000000
234922.000000
235686.000000
236448.000000
237197.000000
237919.000000
238624.000000
239321.000000
240030.000000
240778.000000
241548.000000
242357.000000
243225.000000
244144.000000
245114.000000
246080.000000
247012.000000
247873.000000
248670.000000
249419.000000
250184.000000
250988.000000
251873.000000
252732.000000
253559.000000
254364.000000
255138.000000
255911.000000
256727.000000
257609.000000
258489.000000
259330.000000
260144.000000
260949.000000
261761.000000
262603.000000
263477.000000
264328.000000
265144.000000
265931.000000
266718.000000
267508.000000
268316.000000
269143.000000
269960.000000
270744.000000
271509.000000
272277.000000
273059.000000
273856.000000
274673.000000
275462.000000
276249.000000
277030.000000
277821.000000
278652.000000
279486.000000
280279.000000
281061.000000
281840.000000
282636.000000
283460.000000
284339.000000
285179.000000
285981.000000
286749.000000
287516.000000
288310.000000
289115.000000
289980.000000
290863.000000
291717.000000
292526.000000
293293.000000
294045.000000
294791.000000
295552.000000
296343.000000
297152.000000
297981.000000
298831.000000
299666.000000
300551.000000
301405.000000
302222.000000
303020.000000
303804.000000
304570.000000
305330.000000
306102.000000
306873.000000
307623.000000
308366.000000
309130.000000
309911.000000
310711.000000
311553.000000
312376.000000
313162.000000
313904.000000
314619.000000
315330.000000
316062.000000
316824.000000
317610.000000
318422.000000
319230.000000
320041.000000
320840.000000
321649.000000
322485.000000
323319.000000
324145.000000
324965.000000
325765.000000
326554.000000
327342.000000
328120.000000
328868.000000
329596.000000
330318.000000
331061.000000
331855.000000
332697.000000
333539.000000
334369.000000
335196.000000
336006.000000
336801.000000
337587.000000
338385.000000
339208.000000
340065.000000
341029.000000
341982.000000
342919.000000
343803.000000
344624.000000
345405.000000
346162.000000
346940.000000
347758.000000
348610.000000
349479.000000
350329.000000
351160.000000
351946.000000
352699.000000
353464.000000
354236.000000
355038.000000
355875.000000
356696.000000
357478.000000
358259.000000
359056.000000
359858.000000
360691.000000
361525.000000
362353.000000
363139.000000
363923.000000
364701.000000
365469.000000
366242.000000
367074.000000
367901.000000
368699.000000
369444.000000
370185.000000
370938.000000
371687.000000
372397.000000
373064.000000
373759.000000
374578.000000
375407.000000
376199.000000
376976.000000
377735.000000
378484.000000
379236.000000
380035.000000
380868.000000
381712.000000
382543.000000
383383.000000
384204.000000
384991.000000
385769.000000
386553.000000
387360.000000
388228.000000
389130.000000
389992.000000
390819.000000
391615.000000
392383.000000
393149.000000
393909.000000
394652.000000
395414.000000
396226.000000
397099.000000
397956.000000
398800.000000
399627.000000
400431.000000
401225.000000
401989.000000
402727.000000
403460.000000
404227.000000
405054.000000
405913.000000
406777.000000
407611.000000
408420.000000
409190.000000
409931.000000
410660.000000
411391.000000
412180.000000
413023.000000
413906.000000
414810.000000
415694.000000
416525.000000
417321.000000
418077.000000
418824.000000
419601.000000
420423.000000
421235.000000
422047.000000
422861.000000
423658.000000
424446.000000
425210.000000
425946.000000
426693.000000
427473.000000
428282.000000
429154.000000
430054.000000
430924.000000
431752.000000
432563.000000
433325.000000
434048.000000
434764.000000
435497.000000
436328.000000
437199.000000
438066.000000
438906.000000
439709.000000
440514.000000
441305.000000
442055.000000
442812.000000
443571.000000
444350.000000
445168.000000
446052.000000
446924.000000
447759.000000
448583.000000
449402.000000
450191.000000
450942.000000
451676.000000
452391.000000
453126.000000
453912.000000
454753.000000
455588.000000
456414.000000
457235.000000
458044.000000
458892.000000
459754.000000
460562.000000
461338.000000
462111.000000
462905.000000
463723.000000
464558.000000
465362.000000
466150.000000
466935.000000
467711.000000
468511.000000
469327.000000
470135.000000
470921.000000
471680.000000
472433.000000
473173.000000
473955.000000
474754.000000
475539.000000
476306.000000
477067.000000
477818.000000
478594.000000
479371.000000
480137.000000
480883.000000
481636.000000
482394.000000
483157.000000
483942.000000
484749.000000
485568.000000
486335.000000
487081.000000
487805.000000
488520.000000
489268.000000
490027.000000
490814.000000
491604.000000
492422.000000
493249.000000
494091.000000
494961.000000
495823.000000
496641.000000
497407.000000
498151.000000
498891.000000
499641.000000
500405.000000
501190.000000
501992.000000
502784.000000
503591.000000
504399.000000
505154.000000
505924.000000
506823.000000
507721.000000
508582.000000
509365.000000
510106.000000
510847.000000
511638.000000
512464.000000
513289.000000
514119.000000
514963.000000
515866.000000
516851.000000
517843.000000
518835.000000
519795.000000
520706.000000
521560.000000
522390.000000
523206.000000
524025.000000
524866.000000
525681.000000
526497.000000
527320.000000
528176.000000
529064.000000
529962.000000
530842.000000
531680.000000
532469.000000
533237.000000
534010.000000
534787.000000
535586.000000
536399.000000
537185.000000
537944.000000
538667.000000
539371.000000
540053.000000
540711.000000
541372.000000
542059.000000
542760.000000
543452.000000
544156.000000
544869.000000
545575.000000
546288.000000
547016.000000
547761.000000
548542.000000
549342.000000
550180.000000
551006.000000
551804.000000
552569.000000
553350.000000
554133.000000
554916.000000
555707.000000
556480.000000
557263.000000
558078.000000
558939.000000
559863.000000
560767.000000
561615.000000
562430.000000
563236.000000
564049.000000
564864.000000
565672.000000
566460.000000
567230.000000
568002.000000
568794.000000
569603.000000
570429.000000
571267.000000
572077.000000
572866.000000
573654.000000
574465.000000
575301.000000
576106.000000
576893.000000
577653.000000
578407.000000
579178.000000
579982.000000
580835.000000
581698.000000
582557.000000
583379.000000
584180.000000
584960.000000
585738.000000
586504.000000
587285.000000
588075.000000
588904.000000
589751.000000
590603.000000
591468.000000
592312.000000
593124.000000
593926.000000
594708.000000
595499.000000
596284.000000
597072.000000
597846.000000
598651.000000
599469.000000
600304.000000
601173.000000
602046.000000
602890.000000
603699.000000
604467.000000
605227.000000
606015.000000
606807.000000
607614.000000
608426.000000
609226.000000
610036.000000
610877.000000
611754.000000
612641.000000
613501.000000
614334.000000
615128.000000
615900.000000
616670.000000
617450.000000
618205.000000
618950.000000
619743.000000
620619.000000
621564.000000
622504.000000
623388.000000
624210.000000
625016.000000
625813.000000
626612.000000
627393.000000
628184.000000
628966.000000
629757.000000
630553.000000
631357.000000
632176.000000
633061.000000
633899.000000
634690.000000
635469.000000
636239.000000
637020.000000
637815.000000
638604.000000
639396.000000
640191.000000
641028.000000
641919.000000
642778.000000
643597.000000
644394.000000
645182.000000
645976.000000
646751.000000
647509.000000
648272.000000
649055.000000
649885.000000
650735.000000
651612.000000
652484.000000
653327.000000
654138.000000
654904.000000
655659.000000
656450.000000
657255.000000
658072.000000
658912.000000
659725.000000
660523.000000
661331.000000
662154.000000
663012.000000
663854.000000
664685.000000
665492.000000
666297.000000
667115.000000
667940.000000
668789.000000
669643.000000
670476.000000
671309.000000
672136.000000
672972.000000
673814.000000
674699.000000
675547.000000
676348.000000
677131.000000
677911.000000
678712.000000
679510.000000
680315.000000
681120.000000
681904.000000
682664.000000
683408.000000
684160.000000
684927.000000
685711.000000
686496.000000
687283.000000
688049.000000
688811.000000
689568.000000
690318.000000
691063.000000
691817.000000
692571.000000
693349.000000
694165.000000
694986.000000
695831.000000
696611.000000
697371.000000
698117.000000
698841.000000
699556.000000
700247.000000
700911.000000
701609.000000
702615.000000
703560.000000
704471.000000
705348.000000
706192.000000
707015.000000
707829.000000
708695.000000
709634.000000
710511.000000
711416.000000
712320.000000
713222.000000
714082.000000
714899.000000
715703.000000
716503.000000
717312.000000
718163.000000
719005.000000
719821.000000
720607.000000
721364.000000
722135.000000
722906.000000
723694.000000
724462.000000
725258.000000
726070.000000
726852.000000
727671.000000
728531.000000
729394.000000
730212.000000
731010.000000
731789.000000
732581.000000
733378.000000
734201.000000
735023.000000
735853.000000
736660.000000
737482.000000
738325.000000
739169.000000
740040.000000
740950.000000
741804.000000
742602.000000
743372.000000
744158.000000
744963.000000
745798.000000
746640.000000
747473.000000
748315.000000
749167.000000
750050.000000
750993.000000
751938.000000
752815.000000
753670.000000
754518.000000
755372.000000
756220.000000
757064.000000
757899.000000
758737.000000
759589.000000
760464.000000
761329.000000
762228.000000
763087.000000
763937.000000
764778.000000
765597.000000
766408.000000
767217.000000
768010.000000
768808.000000
769610.000000
770419.000000
771281.000000
772154.000000
773016.000000
773860.000000
774675.000000
775460.000000
776227.000000
776972.000000
777702.000000
778421.000000
779162.000000
779932.000000
780733.000000
781526.000000
782286.000000
783149.000000
783999.000000
784817.000000
785608.000000
786360.000000
787123.000000
787932.000000
788810.000000
789706.000000
790594.000000
791440.000000
792263.000000
793090.000000
793965.000000
794891.000000
795804.000000
796698.000000
797535.000000
798320.000000
799072.000000
799816.000000
800626.000000
801572.000000
802535.000000
803480.000000
804427.000000
805314.000000
806157.000000
806964.000000
807745.000000
808538.000000
809387.000000
810380.000000
811364.000000
812349.000000
813300.000000
814187.000000
815013.000000
815806.000000
816615.000000
817451.000000
818307.000000
819174.000000
820013.000000
820848.000000
821657.000000
822445.000000
823202.000000
823930.000000
824663.000000
825394.000000
826174.000000
826971.000000
827750.000000
828522.000000
829269.000000
829994.000000
830729.000000
831473.000000
832226.000000
832991.000000
833771.000000
834567.000000
835427.000000
836266.000000
837090.000000
837890.000000
838688.000000
839494.000000
840272.000000
841052.000000
841808.000000
842554.000000
843293.000000
844052.000000
844847.000000
845708.000000
846610.000000
847496.000000
848337.000000
849145.000000
849940.000000
850719.000000
851516.000000
852354.000000
853174.000000
853954.000000
854762.000000
855570.000000
856381.000000
857196.000000
858033.000000
858852.000000
859660.000000
860463.000000
861250.000000
862015.000000
862798.000000
863600.000000
864413.000000
865193.000000
865957.000000
866715.000000
867456.000000
868203.000000
868986.000000
869839.000000
870694.000000
871518.000000
872331.000000
873136.000000
873922.000000
874708.000000
875520.000000
876317.000000
877098.000000
877888.000000
878679.000000
879508.000000
880346.000000
881185.000000
882011.000000
882819.000000
883579.000000
884329.000000
885079.000000
885851.000000
886639.000000
887468.000000
888347.000000
889238.000000
890124.000000
891015.000000
891883.000000
892706.000000
893526.000000
894334.000000
895129.000000
895980.000000
896790.000000
897578.000000
898378.000000
899190.000000
900087.000000
