ECG (ms)
816.000000
2002.000000
3136.000000
4222.000000
5380.000000
6506.000000
7586.000000
8727.000000
9878.000000
10958.000000
12058.000000
13195.000000
14247.000000
15310.000000
16450.000000
17617.000000
18716.000000
19837.000000
21027.000000
22240.000000
23385.000000
24553.000000
25738.000000
26865.000000
27985.000000
29140.000000
30276.000000
31340.000000
32445.000000
33567.000000
34638.000000
35620.000000
36524.000000
37450.000000
38332.000000
39220.000000
40147.000000
41397.000000
42593.000000
43716.000000
44911.000000
46100.000000
47231.000000
48421.000000
49631.000000
50752.000000
51919.000000
53070.000000
54150.000000
55279.000000
56424.000000
57479.000000
58561.000000
59664.000000
60723.000000
61816.000000
62978.000000
64089.000000
65198.000000
66361.000000
67489.000000
68548.000000
69659.000000
70790.000000
71884.000000
72911.000000
73966.000000
75074.000000
76187.000000
77226.000000
78345.000000
79478.000000
80591.000000
81652.000000
82748.000000
83918.000000
85007.000000
86095.000000
87299.000000
88526.000000
89744.000000
90940.000000
92156.000000
93301.000000
94440.000000
95646.000000
96833.000000
97976.000000
99152.000000
100392.000000
101621.000000
102788.000000
104001.000000
105232.000000
106438.000000
107574.000000
108744.000000
109956.000000
111112.000000
112301.000000
113585.000000
114811.000000
115967.000000
117172.000000
118373.000000
119580.000000
120707.000000
121844.000000
122974.000000
124099.000000
125166.000000
126235.000000
127407.000000
128580.000000
129698.000000
130917.000000
132105.000000
133226.000000
134436.000000
135640.000000
136789.000000
137966.000000
139186.000000
140372.000000
141527.000000
142717.000000
143847.000000
145061.000000
146315.000000
147518.000000
148673.000000
149940.000000
151170.000000
152316.000000
153566.000000
154823.000000
156040.000000
157285.000000
158552.000000
159763.000000
160916.000000
162136.000000
163333.000000
164505.000000
165616.000000
166757.000000
167937.000000
169087.000000
170230.000000
171464.000000
172719.000000
173907.000000
175111.000000
176315.000000
177510.000000
178639.000000
179866.000000
181038.000000
182071.000000
183003.000000
184455.000000
185790.000000
187074.000000
188387.000000
189703.000000
190932.000000
192171.000000
193472.000000
194734.000000
196077.000000
197414.000000
198745.000000
200027.000000
201340.000000
202638.000000
203928.000000
205188.000000
206407.000000
207588.000000
208796.000000
209961.000000
211081.000000
212269.000000
213462.000000
214597.000000
215664.000000
216795.000000
217891.000000
218957.000000
220163.000000
221362.000000
222522.000000
223758.000000
224985.000000
226177.000000
227331.000000
228562.000000
229757.000000
230896.000000
232163.000000
233390.000000
234601.000000
235863.000000
237061.000000
238290.000000
239575.000000
240816.000000
242021.000000
243267.000000
244500.000000
245702.000000
246969.000000
248224.000000
249447.000000
250617.000000
251823.000000
253037.000000
254196.000000
255385.000000
256594.000000
257725.000000
258771.000000
259977.000000
261206.000000
262342.000000
263584.000000
264859.000000
266053.000000
267272.000000
268435.000000
269648.000000
270914.000000
272130.000000
273406.000000
274655.000000
275899.000000
277152.000000
278399.000000
279653.000000
280850.000000
281992.000000
283237.000000
284494.000000
285686.000000
286832.000000
288038.000000
289244.000000
290376.000000
291569.000000
292788.000000
293959.000000
295076.000000
296291.000000
297496.000000
298634.000000
299828.000000
301063.000000
302204.000000
303443.000000
304704.000000
305866.000000
307054.000000
308286.000000
309456.000000
310544.000000
311698.000000
312851.000000
313944.000000
315159.000000
316382.000000
317548.000000
318792.000000
320014.000000
321182.000000
322436.000000
323658.000000
324852.000000
326117.000000
327392.000000
328615.000000
329858.000000
331100.000000
332292.000000
333443.000000
334610.000000
335809.000000
336980.000000
338099.000000
339246.000000
340426.000000
341606.000000
342759.000000
344019.000000
345259.000000
346372.000000
347542.000000
348817.000000
350043.000000
351190.000000
352458.000000
353722.000000
354932.000000
356212.000000
357497.000000
358751.000000
359928.000000
361164.000000
362400.000000
363609.000000
364786.000000
366016.000000
367250.000000
368436.000000
369653.000000
370931.000000
372151.000000
373332.000000
374591.000000
375708.000000
376804.000000
378297.000000
379612.000000
380898.000000
382217.000000
383579.000000
384883.000000
386214.000000
387511.000000
388785.000000
390070.000000
391383.000000
392687.000000
393936.000000
395195.000000
396405.000000
397629.000000
398848.000000
400060.000000
401205.000000
402361.000000
403559.000000
404705.000000
405770.000000
406960.000000
408169.000000
409314.000000
410452.000000
411654.000000
412838.000000
413954.000000
415144.000000
416344.000000
417482.000000
418591.000000
419774.000000
420912.000000
421998.000000
423151.000000
424332.000000
425526.000000
426834.000000
428097.000000
429356.000000
430666.000000
431911.000000
433151.000000
434408.000000
435652.000000
436831.000000
438038.000000
439247.000000
440417.000000
441600.000000
442828.000000
444027.000000
445170.000000
446410.000000
447633.000000
448821.000000
450031.000000
451164.000000
452157.000000
453410.000000
454549.000000
455667.000000
456962.000000
458195.000000
459388.000000
460596.000000
461632.000000
462733.000000
463913.000000
465096.000000
466369.000000
467653.000000
468889.000000
470180.000000
471410.000000
472656.000000
473936.000000
475145.000000
476257.000000
477473.000000
478676.000000
479822.000000
481006.000000
482160.000000
483280.000000
484433.000000
485567.000000
486613.000000
487795.000000
488955.000000
490000.000000
491129.000000
492250.000000
493335.000000
494452.000000
495604.000000
496718.000000
497850.000000
498989.000000
500047.000000
501163.000000
502283.000000
503351.000000
504470.000000
505586.000000
506623.000000
507717.000000
508834.000000
509939.000000
511074.000000
512201.000000
513295.000000
514416.000000
515549.000000
516640.000000
517780.000000
518896.000000
519976.000000
521111.000000
522255.000000
523337.000000
524463.000000
525584.000000
526668.000000
527780.000000
528888.000000
529953.000000
531033.000000
532173.000000
533315.000000
534432.000000
535571.000000
536743.000000
537840.000000
538918.000000
540066.000000
541220.000000
542290.000000
543430.000000
544648.000000
545863.000000
547003.000000
548203.000000
549412.000000
550599.000000
551706.000000
552902.000000
554046.000000
555143.000000
556458.000000
557770.000000
559052.000000
560359.000000
561685.000000
562955.000000
564203.000000
565491.000000
566736.000000
568017.000000
569293.000000
570523.000000
571801.000000
573056.000000
574299.000000
575605.000000
576869.000000
578114.000000
579372.000000
580617.000000
581778.000000
583019.000000
584241.000000
585355.000000
586596.000000
587747.000000
588876.000000
590065.000000
591195.000000
592391.000000
593618.000000
594788.000000
596027.000000
597220.000000
598400.000000
599656.000000
600918.000000
602135.000000
603371.000000
604569.000000
605798.000000
607025.000000
608207.000000
609436.000000
610681.000000
611854.000000
613117.000000
614366.000000
615540.000000
616727.000000
617979.000000
619181.000000
620298.000000
621514.000000
622736.000000
623909.000000
625045.000000
626306.000000
627511.000000
628682.000000
629907.000000
631094.000000
632217.000000
633435.000000
634649.000000
635744.000000
636946.000000
638200.000000
639400.000000
640643.000000
641875.000000
643068.000000
644223.000000
645422.000000
646564.000000
647683.000000
648881.000000
650128.000000
651276.000000
652388.000000
653625.000000
654846.000000
655982.000000
657155.000000
658303.000000
659285.000000
660240.000000
661118.000000
661992.000000
663042.000000
664137.000000
665273.000000
666372.000000
667573.000000
668812.000000
670009.000000
671217.000000
672395.000000
673422.000000
674425.000000
675321.000000
676190.000000
677155.000000
678160.000000
679430.000000
680763.000000
682067.000000
683371.000000
684670.000000
685834.000000
686953.000000
688221.000000
689463.000000
690663.000000
691916.000000
693102.000000
694230.000000
695421.000000
696604.000000
697703.000000
698866.000000
700066.000000
701256.000000
702473.000000
703716.000000
704947.000000
706188.000000
707489.000000
708656.000000
709904.000000
711100.000000
712205.000000
713256.000000
714219.000000
715174.000000
716678.000000
717971.000000
719200.000000
720453.000000
721740.000000
723025.000000
724332.000000
725607.000000
726824.000000
728068.000000
729317.000000
730537.000000
731648.000000
732805.000000
734044.000000
735253.000000
736425.000000
737667.000000
738789.000000
739788.000000
740726.000000
741673.000000
742596.000000
743507.000000
744388.000000
745278.000000
746529.000000
747681.000000
748884.000000
750086.000000
751240.000000
752505.000000
753748.000000
754934.000000
756154.000000
757382.000000
758506.000000
759626.000000
760811.000000
762001.000000
763104.000000
764285.000000
765499.000000
766660.000000
767813.000000
769010.000000
770133.000000
771260.000000
772487.000000
773727.000000
774876.000000
775941.000000
777162.000000
778357.000000
779481.000000
780670.000000
781897.000000
783089.000000
784330.000000
785584.000000
786790.000000
788030.000000
789288.000000
790500.000000
791621.000000
792763.000000
794006.000000
795150.000000
796322.000000
797398.000000
798340.000000
799228.000000
800094.000000
801327.000000
802602.000000
803860.000000
805095.000000
806349.000000
807498.000000
808663.000000
809873.000000
810962.000000
812193.000000
813454.000000
814656.000000
815785.000000
817007.000000
818200.000000
819394.000000
820540.000000
821726.000000
822909.000000
824045.000000
825230.000000
826443.000000
827606.000000
828761.000000
829954.000000
831079.000000
832251.000000
833437.000000
834488.000000
835558.000000
836591.000000
837544.000000
838623.000000
839629.000000
840584.000000
841605.000000
842658.000000
843631.000000
844594.000000
845548.000000
846540.000000
847573.000000
848573.000000
849782.000000
850953.000000
852092.000000
853301.000000
854483.000000
855531.000000
856665.000000
857915.000000
859143.000000
860337.000000
861567.000000
862826.000000
864014.000000
865220.000000
866509.000000
867725.000000
868902.000000
870156.000000
871413.000000
872652.000000
873871.000000
874965.000000
876207.000000
877357.000000
878631.000000
879972.000000
881205.000000
882390.000000
883656.000000
884925.000000
886137.000000
887286.000000
888532.000000
889786.000000
891017.000000
892251.000000
893473.000000
894578.000000
895731.000000
896951.000000
898174.000000
899249.000000
900371.000000
901635.000000
