ECG (ms)
430.000000
1235.000000
2040.000000
2843.000000
3670.000000
4505.000000
5324.000000
6151.000000
6991.000000
7804.000000
8581.000000
9311.000000
10017.000000
10738.000000
11537.000000
12403.000000
13271.000000
14165.000000
15061.000000
15927.000000
16808.000000
17677.000000
18506.000000
19344.000000
20206.000000
21059.000000
21926.000000
22818.000000
23693.000000
24560.000000
25451.000000
26339.000000
27203.000000
28067.000000
28891.000000
29713.000000
30541.000000
31362.000000
32165.000000
32988.000000
33828.000000
34668.000000
35484.000000
36307.000000
37135.000000
37953.000000
38768.000000
39606.000000
40453.000000
41283.000000
42115.000000
42961.000000
43790.000000
44618.000000
45477.000000
46346.000000
47189.000000
48031.000000
48894.000000
49750.000000
50592.000000
51465.000000
52325.000000
53163.000000
54008.000000
54834.000000
55609.000000
56342.000000
57061.000000
57815.000000
58624.000000
59521.000000
60443.000000
61328.000000
62207.000000
63089.000000
63935.000000
64777.000000
65640.000000
66500.000000
67344.000000
68210.000000
69100.000000
69966.000000
70857.000000
71756.000000
72617.000000
73490.000000
74367.000000
75232.000000
76119.000000
77023.000000
77892.000000
78779.000000
79662.000000
80525.000000
81402.000000
82305.000000
83194.000000
84112.000000
85028.000000
85929.000000
86861.000000
87801.000000
88701.000000
89616.000000
90516.000000
91391.000000
92262.000000
93144.000000
94010.000000
94882.000000
95778.000000
96668.000000
97539.000000
98425.000000
99323.000000
100206.000000
101090.000000
101963.000000
102763.000000
103534.000000
104322.000000
105137.000000
105998.000000
106854.000000
107699.000000
108549.000000
109421.000000
110288.000000
111131.000000
111987.000000
112857.000000
113706.000000
114563.000000
115453.000000
116342.000000
117209.000000
118089.000000
118973.000000
119836.000000
120700.000000
121571.000000
122419.000000
123283.000000
124157.000000
125012.000000
125883.000000
126785.000000
127676.000000
128554.000000
129456.000000
130350.000000
131216.000000
132097.000000
132971.000000
133809.000000
134673.000000
135577.000000
136488.000000
137377.000000
138273.000000
139159.000000
140029.000000
140917.000000
141820.000000
142703.000000
143608.000000
144505.000000
145351.000000
146158.000000
146913.000000
147688.000000
148545.000000
149431.000000
150353.000000
151268.000000
152156.000000
153050.000000
153952.000000
154829.000000
155686.000000
156558.000000
157437.000000
158310.000000
159200.000000
160115.000000
161009.000000
161896.000000
162804.000000
163699.000000
164561.000000
165435.000000
166333.000000
167225.000000
168120.000000
169027.000000
169930.000000
170812.000000
171705.000000
172602.000000
173481.000000
174380.000000
175280.000000
176149.000000
177016.000000
177888.000000
178750.000000
179630.000000
180524.000000
181395.000000
182280.000000
183176.000000
184053.000000
184936.000000
185809.000000
186661.000000
187551.000000
188475.000000
189379.000000
190286.000000
191195.000000
192061.000000
192915.000000
193769.000000
194631.000000
195490.000000
196377.000000
197270.000000
198150.000000
199037.000000
199928.000000
200796.000000
201678.000000
202562.000000
203411.000000
204263.000000
205124.000000
205987.000000
206848.000000
207739.000000
208625.000000
209499.000000
210392.000000
211296.000000
212184.000000
213088.000000
213991.000000
214867.000000
215749.000000
216622.000000
217468.000000
218333.000000
219213.000000
220063.000000
220910.000000
221787.000000
222660.000000
223563.000000
224485.000000
225382.000000
226264.000000
227158.000000
228058.000000
228939.000000
229843.000000
230771.000000
231690.000000
232644.000000
233589.000000
234507.000000
235410.000000
236310.000000
237190.000000
238064.000000
238949.000000
239831.000000
240710.000000
241613.000000
242525.000000
243410.000000
244306.000000
245195.000000
246062.000000
246935.000000
247809.000000
248648.000000
249479.000000
250324.000000
251121.000000
251910.000000
252702.000000
253487.000000
254280.000000
255111.000000
255951.000000
256784.000000
257646.000000
258506.000000
259335.000000
260162.000000
261001.000000
261820.000000
262578.000000
263315.000000
264072.000000
264887.000000
265749.000000
266616.000000
267512.000000
268424.000000
269290.000000
270139.000000
270978.000000
271803.000000
272637.000000
273503.000000
274397.000000
275271.000000
276189.000000
277088.000000
277966.000000
278847.000000
279734.000000
280594.000000
281440.000000
282291.000000
283129.000000
283952.000000
284809.000000
285691.000000
286562.000000
287483.000000
288413.000000
289291.000000
290175.000000
291071.000000
291933.000000
292800.000000
293688.000000
294546.000000
295410.000000
296281.000000
297150.000000
298014.000000
298880.000000
299760.000000
300623.000000
301499.000000
302414.000000
303337.000000
304222.000000
305127.000000
306044.000000
306941.000000
307874.000000
308807.000000
309705.000000
310604.000000
311509.000000
312409.000000
313285.000000
314179.000000
315071.000000
315949.000000
316823.000000
317727.000000
318633.000000
319518.000000
320408.000000
321311.000000
322198.000000
323070.000000
323950.000000
324828.000000
325684.000000
326535.000000
327406.000000
328262.000000
329103.000000
329966.000000
330825.000000
331651.000000
332473.000000
333300.000000
334098.000000
334908.000000
335767.000000
336662.000000
337503.000000
338364.000000
339235.000000
340081.000000
340938.000000
341796.000000
342619.000000
343450.000000
344291.000000
345119.000000
345942.000000
346795.000000
347673.000000
348525.000000
349401.000000
350283.000000
351127.000000
351981.000000
352845.000000
353693.000000
354554.000000
355458.000000
356345.000000
357235.000000
358143.000000
359039.000000
359904.000000
360775.000000
361708.000000
362615.000000
363504.000000
364417.000000
365339.000000
366235.000000
367153.000000
368077.000000
368965.000000
369868.000000
370782.000000
371673.000000
372589.000000
373517.000000
374392.000000
375272.000000
376165.000000
377056.000000
377923.000000
378817.000000
379716.000000
380592.000000
381488.000000
382390.000000
383268.000000
384089.000000
384867.000000
385634.000000
386451.000000
387321.000000
388264.000000
389210.000000
390125.000000
391058.000000
392001.000000
392912.000000
393841.000000
394771.000000
395684.000000
396608.000000
397528.000000
398428.000000
399340.000000
400262.000000
401157.000000
402069.000000
402995.000000
403903.000000
404821.000000
405704.000000
406570.000000
407441.000000
408305.000000
409175.000000
410002.000000
410811.000000
411621.000000
412444.000000
413284.000000
414087.000000
414901.000000
415749.000000
416592.000000
417454.000000
418330.000000
419193.000000
420052.000000
420940.000000
421841.000000
422715.000000
423600.000000
424497.000000
425384.000000
426282.000000
427199.000000
428109.000000
429039.000000
429982.000000
430887.000000
431734.000000
432525.000000
433390.000000
434303.000000
435213.000000
436129.000000
437060.000000
437966.000000
438866.000000
439780.000000
440710.000000
441618.000000
442502.000000
443401.000000
444311.000000
445193.000000
446083.000000
447005.000000
447934.000000
448850.000000
449769.000000
450701.000000
451594.000000
452490.000000
453401.000000
454297.000000
455205.000000
456133.000000
457059.000000
457965.000000
458891.000000
459800.000000
460682.000000
461578.000000
462482.000000
463387.000000
464286.000000
465210.000000
466140.000000
467051.000000
467968.000000
468889.000000
469773.000000
470659.000000
471555.000000
472444.000000
473327.000000
474239.000000
475177.000000
476088.000000
477014.000000
477941.000000
478858.000000
479759.000000
480669.000000
481567.000000
482454.000000
483354.000000
484256.000000
485127.000000
486000.000000
486877.000000
487736.000000
488577.000000
489431.000000
490309.000000
491181.000000
492061.000000
492972.000000
493880.000000
494765.000000
495662.000000
496539.000000
497401.000000
498283.000000
499170.000000
500019.000000
500906.000000
501818.000000
502720.000000
503643.000000
504562.000000
505437.000000
506250.000000
507018.000000
507772.000000
508577.000000
509448.000000
510391.000000
511346.000000
512255.000000
513165.000000
514077.000000
514965.000000
515853.000000
516752.000000
517653.000000
518547.000000
519511.000000
520520.000000
521498.000000
522425.000000
523352.000000
524268.000000
525151.000000
526042.000000
526945.000000
527838.000000
528742.000000
529677.000000
530600.000000
531501.000000
532424.000000
533311.000000
534178.000000
535071.000000
536062.000000
536999.000000
537924.000000
538862.000000
539795.000000
540709.000000
541649.000000
542602.000000
543515.000000
544438.000000
545385.000000
546286.000000
547196.000000
548106.000000
548968.000000
549837.000000
550723.000000
551605.000000
552485.000000
553381.000000
554276.000000
555153.000000
556058.000000
556983.000000
557866.000000
558737.000000
559601.000000
560439.000000
561275.000000
562134.000000
562996.000000
563869.000000
564776.000000
565689.000000
566571.000000
567449.000000
568323.000000
569190.000000
570059.000000
570957.000000
571844.000000
572720.000000
573616.000000
574489.000000
575333.000000
576178.000000
577006.000000
577828.000000
578682.000000
579521.000000
580308.000000
581065.000000
581820.000000
582591.000000
583441.000000
584348.000000
585230.000000
586092.000000
586977.000000
587858.000000
588722.000000
589595.000000
590457.000000
591295.000000
592149.000000
593011.000000
593858.000000
594740.000000
595639.000000
596523.000000
597415.000000
598308.000000
599181.000000
600067.000000
600973.000000
601857.000000
602746.000000
603640.000000
604511.000000
605407.000000
606298.000000
607164.000000
608039.000000
608924.000000
609782.000000
610624.000000
611407.000000
612150.000000
612930.000000
613758.000000
614651.000000
615583.000000
616500.000000
617430.000000
618364.000000
619264.000000
620149.000000
621029.000000
621917.000000
622775.000000
623663.000000
624566.000000
625453.000000
626361.000000
627272.000000
628168.000000
629065.000000
629966.000000
630847.000000
631698.000000
632570.000000
633476.000000
634359.000000
635243.000000
636159.000000
637065.000000
637975.000000
638890.000000
639782.000000
640681.000000
641588.000000
642479.000000
643373.000000
644275.000000
645167.000000
646065.000000
646972.000000
647867.000000
648751.000000
649649.000000
650546.000000
651438.000000
652339.000000
653241.000000
654125.000000
655021.000000
655915.000000
656791.000000
657676.000000
658571.000000
659459.000000
660354.000000
661255.000000
662142.000000
663030.000000
663925.000000
664796.000000
665673.000000
666554.000000
667415.000000
668274.000000
669168.000000
670068.000000
670946.000000
671825.000000
672697.000000
673539.000000
674375.000000
675231.000000
676099.000000
676952.000000
677816.000000
678699.000000
679572.000000
680485.000000
681422.000000
682342.000000
683249.000000
684165.000000
685088.000000
685997.000000
686924.000000
687861.000000
688794.000000
689721.000000
690660.000000
691616.000000
692550.000000
693507.000000
694471.000000
695414.000000
696360.000000
697326.000000
698275.000000
699206.000000
700155.000000
701101.000000
702019.000000
702957.000000
703907.000000
704826.000000
705746.000000
706678.000000
707600.000000
708491.000000
709373.000000
710256.000000
711139.000000
711994.000000
712861.000000
713779.000000
714704.000000
715616.000000
716548.000000
717482.000000
718370.000000
719231.000000
720020.000000
720770.000000
721541.000000
722368.000000
723238.000000
724196.000000
725159.000000
726069.000000
727000.000000
727940.000000
728860.000000
729776.000000
730689.000000
731577.000000
732422.000000
733284.000000
734174.000000
735061.000000
735981.000000
736928.000000
737843.000000
738760.000000
739683.000000
740577.000000
741444.000000
742328.000000
743212.000000
744102.000000
745012.000000
745918.000000
746763.000000
747612.000000
748442.000000
749269.000000
750170.000000
751126.000000
752048.000000
752963.000000
753897.000000
754798.000000
755697.000000
756580.000000
757432.000000
758297.000000
759177.000000
760058.000000
760965.000000
761882.000000
762779.000000
763673.000000
764573.000000
765457.000000
766345.000000
767245.000000
768117.000000
769017.000000
769933.000000
770814.000000
771701.000000
772598.000000
773465.000000
774341.000000
775236.000000
776111.000000
777031.000000
778007.000000
778928.000000
779825.000000
780725.000000
781596.000000
782454.000000
783340.000000
784237.000000
785119.000000
785998.000000
786906.000000
787794.000000
788679.000000
789581.000000
790468.000000
791348.000000
792244.000000
793102.000000
793951.000000
794832.000000
795733.000000
796610.000000
797510.000000
798423.000000
799302.000000
800199.000000
801113.000000
802017.000000
802911.000000
803822.000000
804722.000000
805599.000000
806488.000000
807348.000000
808177.000000
808994.000000
809764.000000
810516.000000
811297.000000
812125.000000
812956.000000
813779.000000
814644.000000
815476.000000
816282.000000
817104.000000
817960.000000
818815.000000
819690.000000
820563.000000
821409.000000
822253.000000
823147.000000
824037.000000
824935.000000
825823.000000
826674.000000
827544.000000
828429.000000
829316.000000
830239.000000
831190.000000
832103.000000
833024.000000
833943.000000
834826.000000
835724.000000
836631.000000
837537.000000
838477.000000
839412.000000
840323.000000
841259.000000
842200.000000
843116.000000
844038.000000
844957.000000
845840.000000
846717.000000
847629.000000
848533.000000
849436.000000
850360.000000
851260.000000
852181.000000
853106.000000
854002.000000
854906.000000
855831.000000
856729.000000
857642.000000
858567.000000
859481.000000
860406.000000
861356.000000
862293.000000
863231.000000
864178.000000
865105.000000
866041.000000
867002.000000
867946.000000
868886.000000
869836.000000
870777.000000
871702.000000
872640.000000
873570.000000
874484.000000
875415.000000
876359.000000
877252.000000
878106.000000
878930.000000
879757.000000
880627.000000
881521.000000
882457.000000
883434.000000
884373.000000
885315.000000
886239.000000
887146.000000
887997.000000
888785.000000
889566.000000
890366.000000
891233.000000
892188.000000
893151.000000
894079.000000
895020.000000
895970.000000
896903.000000
897823.000000
898757.000000
899689.000000
900636.000000
