ECG (ms)
232.000000
1046.000000
1854.000000
2650.000000
3437.000000
4193.000000
4965.000000
5755.000000
6564.000000
7407.000000
8277.000000
9163.000000
10005.000000
10862.000000
11722.000000
12573.000000
13413.000000
14277.000000
15150.000000
16007.000000
16853.000000
17716.000000
18599.000000
19483.000000
20335.000000
21188.000000
22066.000000
22956.000000
23822.000000
24642.000000
25464.000000
26289.000000
27140.000000
28029.000000
28906.000000
29756.000000
30620.000000
31533.000000
32467.000000
33404.000000
34304.000000
35186.000000
36108.000000
37046.000000
37990.000000
38906.000000
39794.000000
40689.000000
41564.000000
42416.000000
43228.000000
44035.000000
44871.000000
45766.000000
46681.000000
47593.000000
48454.000000
49296.000000
50098.000000
50856.000000
51591.000000
52330.000000
53080.000000
53875.000000
54680.000000
55499.000000
56301.000000
57137.000000
57970.000000
58808.000000
59627.000000
60409.000000
61188.000000
61973.000000
62777.000000
63568.000000
64356.000000
65179.000000
65984.000000
66768.000000
67547.000000
68301.000000
69030.000000
69736.000000
70434.000000
71141.000000
71875.000000
72618.000000
73389.000000
74189.000000
74983.000000
75550.000000
76556.000000
77338.000000
78082.000000
78781.000000
79461.000000
80147.000000
80854.000000
81593.000000
82318.000000
83050.000000
83808.000000
84589.000000
85381.000000
86177.000000
86966.000000
87762.000000
88540.000000
89303.000000
90074.000000
90866.000000
91676.000000
92458.000000
93234.000000
93998.000000
94775.000000
95539.000000
96283.000000
97023.000000
97753.000000
98446.000000
99132.000000
99808.000000
100487.000000
101209.000000
101966.000000
102728.000000
103499.000000
104296.000000
105121.000000
105946.000000
106736.000000
107489.000000
108240.000000
109009.000000
109802.000000
110588.000000
111361.000000
112147.000000
112924.000000
113680.000000
114434.000000
115211.000000
116012.000000
116597.000000
117689.000000
118529.000000
119318.000000
120045.000000
120705.000000
121355.000000
122016.000000
122740.000000
123558.000000
124388.000000
125189.000000
125972.000000
126767.000000
127566.000000
128375.000000
129141.000000
129889.000000
130637.000000
131388.000000
132129.000000
132857.000000
133602.000000
134382.000000
135185.000000
135983.000000
136786.000000
137613.000000
138439.000000
139273.000000
140085.000000
140901.000000
141734.000000
142561.000000
143359.000000
144160.000000
144923.000000
145653.000000
146364.000000
147068.000000
147776.000000
148520.000000
149319.000000
150151.000000
150965.000000
151780.000000
152602.000000
153438.000000
154247.000000
155018.000000
155773.000000
156546.000000
157330.000000
158127.000000
158922.000000
159490.000000
160501.000000
161307.000000
162097.000000
162870.000000
163631.000000
164419.000000
165244.000000
166089.000000
166943.000000
167775.000000
168569.000000
169376.000000
170174.000000
170961.000000
171729.000000
172463.000000
173217.000000
173989.000000
174766.000000
175554.000000
176379.000000
177238.000000
178097.000000
178926.000000
179770.000000
180616.000000
181446.000000
182252.000000
183045.000000
183846.000000
184666.000000
185477.000000
186259.000000
187028.000000
187794.000000
188568.000000
189341.000000
190111.000000
190917.000000
191763.000000
192624.000000
193429.000000
194213.000000
195005.000000
195815.000000
196609.000000
197394.000000
198204.000000
199023.000000
199842.000000
200628.000000
201379.000000
202093.000000
202812.000000
203574.000000
204351.000000
205127.000000
205877.000000
206660.000000
207443.000000
208182.000000
208876.000000
209561.000000
210246.000000
210947.000000
211668.000000
212388.000000
213096.000000
213836.000000
214605.000000
215362.000000
216098.000000
216804.000000
217495.000000
218205.000000
218945.000000
219695.000000
220432.000000
221156.000000
221890.000000
222624.000000
223332.000000
224012.000000
224665.000000
225304.000000
225954.000000
226611.000000
227256.000000
227907.000000
228556.000000
229217.000000
229935.000000
230689.000000
231445.000000
232172.000000
232893.000000
233629.000000
234377.000000
235136.000000
235868.000000
236586.000000
237287.000000
238003.000000
238774.000000
239554.000000
240316.000000
241044.000000
241784.000000
242540.000000
243313.000000
244054.000000
244788.000000
245572.000000
246374.000000
247187.000000
247996.000000
248785.000000
249546.000000
250270.000000
250975.000000
251694.000000
252461.000000
253219.000000
253783.000000
254843.000000
255715.000000
256542.000000
257337.000000
258119.000000
258905.000000
259707.000000
260512.000000
261300.000000
262092.000000
262902.000000
263746.000000
264584.000000
265399.000000
266225.000000
267053.000000
267892.000000
268697.000000
269486.000000
270246.000000
270992.000000
271718.000000
272412.000000
273103.000000
273787.000000
274498.000000
275226.000000
275924.000000
276645.000000
277428.000000
278180.000000
278976.000000
279806.000000
280674.000000
281562.000000
282435.000000
283290.000000
284138.000000
284988.000000
285845.000000
286675.000000
287510.000000
288382.000000
289280.000000
290168.000000
290996.000000
291810.000000
292625.000000
293462.000000
294286.000000
295107.000000
295974.000000
296902.000000
297843.000000
298741.000000
299568.000000
300394.000000
301197.000000
301999.000000
302793.000000
303620.000000
304495.000000
305417.000000
306322.000000
307225.000000
308126.000000
309027.000000
309920.000000
310783.000000
311658.000000
312517.000000
313335.000000
314123.000000
314920.000000
315727.000000
316539.000000
317353.000000
318162.000000
318989.000000
319842.000000
320715.000000
321579.000000
322486.000000
323407.000000
324300.000000
325134.000000
325947.000000
326776.000000
327639.000000
328522.000000
329386.000000
330252.000000
331134.000000
332010.000000
332864.000000
333687.000000
334513.000000
335354.000000
336211.000000
337062.000000
337910.000000
338801.000000
339752.000000
340731.000000
341727.000000
342718.000000
343715.000000
344702.000000
345678.000000
346647.000000
347609.000000
348495.000000
349358.000000
350203.000000
351029.000000
351841.000000
352677.000000
353569.000000
354472.000000
355362.000000
356276.000000
357235.000000
358164.000000
359006.000000
359839.000000
360674.000000
361521.000000
362346.000000
363151.000000
363921.000000
364654.000000
365394.000000
366142.000000
366922.000000
367736.000000
368588.000000
369444.000000
370288.000000
371165.000000
372072.000000
372958.000000
373826.000000
374693.000000
375566.000000
376427.000000
377278.000000
378154.000000
379049.000000
379937.000000
380793.000000
381620.000000
382475.000000
383368.000000
384286.000000
385181.000000
386080.000000
386987.000000
387918.000000
388844.000000
389724.000000
390609.000000
391491.000000
392355.000000
393179.000000
394012.000000
394870.000000
395774.000000
396678.000000
397543.000000
398411.000000
399298.000000
400191.000000
401068.000000
401950.000000
402852.000000
403751.000000
404613.000000
405456.000000
406281.000000
407075.000000
407885.000000
408709.000000
409530.000000
410338.000000
411192.000000
412078.000000
412989.000000
413865.000000
414724.000000
415606.000000
416504.000000
417366.000000
418195.000000
419047.000000
419938.000000
420828.000000
421725.000000
422644.000000
423580.000000
424486.000000
425388.000000
426316.000000
427244.000000
428136.000000
429022.000000
429924.000000
430835.000000
431710.000000
432569.000000
433437.000000
434321.000000
435194.000000
436056.000000
436915.000000
437776.000000
438633.000000
439486.000000
440368.000000
441267.000000
442168.000000
443024.000000
443909.000000
444804.000000
445710.000000
446582.000000
447423.000000
448268.000000
449075.000000
449873.000000
450670.000000
451451.000000
452219.000000
453007.000000
453850.000000
454714.000000
455560.000000
456438.000000
457344.000000
458219.000000
459072.000000
459939.000000
460805.000000
461638.000000
462452.000000
463292.000000
464169.000000
465049.000000
465905.000000
466780.000000
467675.000000
468564.000000
469421.000000
470298.000000
471179.000000
472078.000000
472946.000000
473817.000000
474722.000000
475648.000000
476592.000000
477494.000000
478373.000000
479274.000000
480185.000000
481096.000000
481963.000000
482834.000000
483716.000000
484612.000000
485508.000000
486368.000000
487235.000000
488120.000000
489006.000000
489872.000000
490720.000000
491529.000000
492325.000000
493087.000000
493815.000000
494558.000000
495334.000000
496106.000000
496918.000000
497761.000000
498615.000000
499446.000000
500294.000000
501155.000000
501998.000000
502832.000000
503690.000000
504582.000000
505469.000000
506329.000000
507176.000000
508044.000000
508928.000000
509811.000000
510688.000000
511592.000000
512519.000000
513404.000000
514270.000000
515146.000000
516046.000000
516915.000000
517769.000000
518635.000000
519515.000000
520366.000000
521217.000000
522058.000000
522885.000000
523737.000000
524599.000000
525440.000000
526265.000000
527107.000000
527958.000000
528796.000000
529610.000000
530433.000000
531283.000000
532199.000000
533101.000000
533970.000000
534857.000000
535751.000000
536643.000000
537503.000000
538382.000000
539262.000000
540144.000000
540995.000000
541873.000000
542766.000000
543653.000000
544520.000000
545402.000000
546310.000000
547241.000000
548123.000000
549006.000000
549896.000000
550776.000000
551630.000000
552516.000000
553434.000000
554362.000000
555243.000000
556099.000000
556944.000000
557793.000000
558633.000000
559466.000000
560333.000000
561232.000000
562165.000000
563078.000000
563951.000000
564816.000000
565638.000000
566414.000000
567194.000000
568008.000000
568854.000000
569689.000000
570505.000000
571348.000000
572199.000000
573038.000000
573850.000000
574666.000000
575536.000000
576439.000000
577302.000000
578129.000000
578953.000000
579767.000000
580589.000000
581391.000000
582169.000000
582968.000000
583832.000000
584753.000000
585621.000000
586453.000000
587290.000000
588127.000000
588960.000000
589767.000000
590599.000000
591471.000000
592360.000000
593224.000000
594074.000000
594918.000000
595739.000000
596535.000000
597341.000000
598179.000000
599019.000000
599866.000000
600741.000000
601644.000000
602521.000000
603377.000000
604256.000000
605155.000000
606018.000000
606864.000000
607736.000000
608624.000000
609493.000000
610355.000000
611258.000000
612172.000000
613042.000000
613894.000000
614761.000000
615648.000000
616524.000000
617385.000000
618281.000000
619198.000000
620116.000000
621030.000000
621978.000000
622938.000000
623859.000000
624769.000000
625709.000000
626682.000000
627632.000000
628536.000000
629451.000000
630368.000000
631239.000000
632077.000000
632922.000000
633796.000000
634659.000000
635479.000000
636296.000000
637127.000000
638000.000000
638855.000000
639704.000000
640574.000000
641480.000000
642358.000000
643198.000000
644045.000000
644910.000000
645784.000000
646632.000000
647478.000000
648338.000000
649218.000000
650084.000000
650958.000000
651867.000000
652777.000000
653640.000000
654483.000000
655358.000000
656247.000000
657102.000000
657929.000000
658770.000000
659646.000000
660554.000000
661457.000000
662358.000000
663289.000000
664239.000000
665187.000000
666084.000000
666975.000000
667884.000000
668806.000000
669702.000000
670571.000000
671455.000000
672367.000000
673287.000000
674181.000000
675070.000000
675996.000000
676964.000000
677882.000000
678754.000000
679645.000000
680555.000000
681445.000000
682284.000000
683135.000000
684005.000000
684863.000000
685691.000000
686536.000000
687388.000000
688239.000000
689069.000000
689905.000000
690763.000000
691623.000000
692453.000000
693299.000000
694173.000000
695039.000000
695875.000000
696718.000000
697580.000000
698451.000000
699298.000000
700159.000000
701040.000000
701923.000000
702771.000000
703637.000000
704533.000000
705408.000000
706258.000000
707129.000000
708015.000000
708893.000000
709729.000000
710576.000000
711425.000000
712284.000000
713123.000000
713936.000000
714774.000000
715654.000000
716532.000000
717385.000000
718273.000000
719194.000000
720133.000000
721027.000000
721915.000000
722818.000000
723752.000000
724665.000000
725568.000000
726468.000000
727356.000000
728225.000000
729066.000000
729927.000000
730825.000000
731746.000000
732664.000000
733605.000000
734581.000000
735566.000000
736477.000000
737351.000000
738231.000000
739117.000000
739981.000000
740843.000000
741733.000000
742636.000000
743499.000000
744375.000000
745285.000000
746215.000000
747119.000000
748009.000000
748932.000000
749888.000000
750847.000000
751770.000000
752702.000000
753666.000000
754646.000000
755582.000000
756466.000000
757355.000000
758288.000000
759216.000000
760135.000000
761073.000000
761989.000000
762852.000000
763730.000000
764618.000000
765457.000000
766270.000000
767108.000000
767966.000000
768829.000000
769666.000000
770506.000000
771379.000000
772264.000000
773124.000000
773961.000000
774814.000000
775642.000000
776475.000000
777363.000000
778291.000000
779214.000000
780098.000000
781022.000000
781985.000000
782927.000000
783827.000000
784729.000000
785661.000000
786575.000000
787453.000000
788345.000000
789258.000000
790160.000000
791041.000000
791957.000000
792908.000000
793835.000000
794732.000000
795641.000000
796566.000000
797473.000000
798365.000000
799291.000000
800242.000000
801170.000000
802054.000000
802956.000000
803875.000000
804801.000000
805696.000000
806609.000000
807587.000000
808602.000000
809584.000000
810544.000000
811495.000000
812419.000000
813300.000000
814221.000000
815114.000000
815952.000000
816750.000000
817542.000000
818328.000000
819154.000000
819993.000000
820818.000000
821633.000000
822462.000000
823333.000000
824189.000000
825032.000000
825890.000000
826780.000000
827653.000000
828502.000000
829385.000000
830277.000000
831133.000000
831968.000000
832830.000000
833705.000000
834556.000000
835392.000000
836258.000000
837168.000000
838063.000000
838941.000000
839863.000000
840818.000000
841765.000000
842683.000000
843631.000000
844642.000000
845618.000000
846543.000000
847477.000000
848422.000000
849320.000000
850209.000000
851121.000000
852055.000000
852960.000000
853888.000000
854865.000000
855849.000000
856787.000000
857712.000000
858638.000000
859530.000000
860390.000000
861288.000000
862236.000000
863187.000000
864108.000000
865019.000000
865942.000000
866845.000000
867733.000000
868632.000000
869547.000000
870462.000000
871348.000000
872260.000000
873192.000000
874137.000000
