ECG (ms)
571.000000
1400.000000
2332.000000
3341.000000
4348.000000
5321.000000
6265.000000
7204.000000
8187.000000
9189.000000
10177.000000
11124.000000
12094.000000
13091.000000
14085.000000
15069.000000
16026.000000
17013.000000
18050.000000
19087.000000
20089.000000
21036.000000
21994.000000
22985.000000
23999.000000
24994.000000
25952.000000
26938.000000
27966.000000
28969.000000
29926.000000
30841.000000
31772.000000
32764.000000
33775.000000
34756.000000
35740.000000
36719.000000
37717.000000
38613.000000
39458.000000
40430.000000
41386.000000
42322.000000
43290.000000
44282.000000
45289.000000
46246.000000
47175.000000
48138.000000
49144.000000
50149.000000
51100.000000
52028.000000
52989.000000
53991.000000
54986.000000
55915.000000
56844.000000
57806.000000
58760.000000
59692.000000
60585.000000
61489.000000
62432.000000
63389.000000
64345.000000
65267.000000
66164.000000
67121.000000
68084.000000
69054.000000
69982.000000
70926.000000
71900.000000
72906.000000
73901.000000
74854.000000
75781.000000
76718.000000
77647.000000
78524.000000
79387.000000
80277.000000
81229.000000
82234.000000
83200.000000
84126.000000
85101.000000
86113.000000
87121.000000
88122.000000
89069.000000
90018.000000
91030.000000
92082.000000
93103.000000
94104.000000
95116.000000
96143.000000
97155.000000
98110.000000
99034.000000
99989.000000
100970.000000
101927.000000
102852.000000
103806.000000
104783.000000
105740.000000
106650.000000
107543.000000
108500.000000
109479.000000
110441.000000
111339.000000
112221.000000
113149.000000
114109.000000
115030.000000
115922.000000
116838.000000
117777.000000
118694.000000
119504.000000
120372.000000
121267.000000
122117.000000
122971.000000
123899.000000
124872.000000
125806.000000
126697.000000
127622.000000
128595.000000
129575.000000
130509.000000
131394.000000
132306.000000
133265.000000
134175.000000
135023.000000
135888.000000
136821.000000
137803.000000
138775.000000
139687.000000
140590.000000
141542.000000
142520.000000
143438.000000
144307.000000
145236.000000
146201.000000
147185.000000
148124.000000
149027.000000
150004.000000
151027.000000
152046.000000
152987.000000
153932.000000
154898.000000
155844.000000
156733.000000
157652.000000
158654.000000
159691.000000
160664.000000
161616.000000
162619.000000
163633.000000
164566.000000
165368.000000
166114.000000
166953.000000
167810.000000
168616.000000
169521.000000
170515.000000
171517.000000
172452.000000
173344.000000
174245.000000
175205.000000
176214.000000
177181.000000
178103.000000
179075.000000
180079.000000
181090.000000
182030.000000
182943.000000
183894.000000
184866.000000
185862.000000
186811.000000
187768.000000
188765.000000
189789.000000
190820.000000
191786.000000
192773.000000
193793.000000
194862.000000
195848.000000
196787.000000
197731.000000
198677.000000
199624.000000
200549.000000
201473.000000
202438.000000
203427.000000
204378.000000
205315.000000
206257.000000
207177.000000
208045.000000
208902.000000
209828.000000
210779.000000
211743.000000
212658.000000
213590.000000
214552.000000
215525.000000
216444.000000
217368.000000
218341.000000
219305.000000
220219.000000
221096.000000
221981.000000
222872.000000
223753.000000
224558.000000
225289.000000
226127.000000
226959.000000
227746.000000
228636.000000
229617.000000
230606.000000
231560.000000
232463.000000
233370.000000
234302.000000
235266.000000
236205.000000
237077.000000
237974.000000
238917.000000
239900.000000
240835.000000
241740.000000
242696.000000
243689.000000
244686.000000
245590.000000
246498.000000
247436.000000
248399.000000
249370.000000
250309.000000
251277.000000
252308.000000
253359.000000
254358.000000
255308.000000
256202.000000
257124.000000
258097.000000
259078.000000
260019.000000
260905.000000
261823.000000
262778.000000
263726.000000
264606.000000
265448.000000
266342.000000
267308.000000
268283.000000
269243.000000
270164.000000
271068.000000
272028.000000
273013.000000
273991.000000
274912.000000
275821.000000
276772.000000
277773.000000
278805.000000
279781.000000
280779.000000
281760.000000
282697.000000
283553.000000
284329.000000
285335.000000
286361.000000
287303.000000
288272.000000
289251.000000
290232.000000
291139.000000
292016.000000
292942.000000
293926.000000
294953.000000
295910.000000
296807.000000
297757.000000
298764.000000
299763.000000
300752.000000
301694.000000
302620.000000
303597.000000
304607.000000
305600.000000
306546.000000
307514.000000
308483.000000
309417.000000
310309.000000
311235.000000
312213.000000
313216.000000
314189.000000
315103.000000
316055.000000
317057.000000
318086.000000
319108.000000
320079.000000
321043.000000
322050.000000
323082.000000
324074.000000
325020.000000
326010.000000
327027.000000
328028.000000
328958.000000
329911.000000
330889.000000
331900.000000
332888.000000
333811.000000
334748.000000
335745.000000
336742.000000
337700.000000
338595.000000
339507.000000
340432.000000
341389.000000
342343.000000
343314.000000
344314.000000
345280.000000
346195.000000
347110.000000
348066.000000
349024.000000
349932.000000
350792.000000
351680.000000
352588.000000
353405.000000
354204.000000
355129.000000
356038.000000
356941.000000
357899.000000
358880.000000
359852.000000
360776.000000
361649.000000
362536.000000
363479.000000
364441.000000
365370.000000
366251.000000
367185.000000
368153.000000
369104.000000
370018.000000
370950.000000
371904.000000
372866.000000
373790.000000
374675.000000
375591.000000
376556.000000
377523.000000
378452.000000
379347.000000
380272.000000
381218.000000
382187.000000
383122.000000
384015.000000
384924.000000
385868.000000
386827.000000
387751.000000
388605.000000
389466.000000
390378.000000
391336.000000
392269.000000
393136.000000
393996.000000
394911.000000
395870.000000
396827.000000
397748.000000
398614.000000
399492.000000
400424.000000
401375.000000
402266.000000
403106.000000
404030.000000
405004.000000
405959.000000
406873.000000
407722.000000
408630.000000
409599.000000
410557.000000
411508.000000
412404.000000
413324.000000
414251.000000
415230.000000
416186.000000
417079.000000
417921.000000
418746.000000
419627.000000
420407.000000
421293.000000
422328.000000
423321.000000
424220.000000
425171.000000
426165.000000
427150.000000
428065.000000
428934.000000
429851.000000
430818.000000
431812.000000
432776.000000
433684.000000
434702.000000
435661.000000
436629.000000
437532.000000
438396.000000
439386.000000
440388.000000
441418.000000
442429.000000
443412.000000
444392.000000
445401.000000
446415.000000
447434.000000
448380.000000
449301.000000
450251.000000
451229.000000
452164.000000
453056.000000
454009.000000
455025.000000
456054.000000
457091.000000
458066.000000
458981.000000
459927.000000
460898.000000
461901.000000
462862.000000
463805.000000
464757.000000
465749.000000
466779.000000
467814.000000
468808.000000
469799.000000
470763.000000
471699.000000
472649.000000
473560.000000
474433.000000
475362.000000
476318.000000
477189.000000
478003.000000
478928.000000
479880.000000
480780.000000
481638.000000
482555.000000
483556.000000
484590.000000
485604.000000
486601.000000
487606.000000
488590.000000
489518.000000
490488.000000
491488.000000
492469.000000
493423.000000
494303.000000
495219.000000
496164.000000
497132.000000
498058.000000
498905.000000
499759.000000
500660.000000
501628.000000
502558.000000
503405.000000
504293.000000
505261.000000
506222.000000
507135.000000
508033.000000
508976.000000
509924.000000
510820.000000
511688.000000
512586.000000
513515.000000
514429.000000
515277.000000
516120.000000
517030.000000
517999.000000
518942.000000
519844.000000
520800.000000
521766.000000
522692.000000
523593.000000
524535.000000
525451.000000
526342.000000
527247.000000
528156.000000
529041.000000
529885.000000
530708.000000
531597.000000
532523.000000
533412.000000
534262.000000
535032.000000
535804.000000
536704.000000
537573.000000
538363.000000
539165.000000
540056.000000
541008.000000
541961.000000
542872.000000
543737.000000
544640.000000
545581.000000
546566.000000
547511.000000
548487.000000
549484.000000
550461.000000
551429.000000
552400.000000
553359.000000
554264.000000
555124.000000
555994.000000
556894.000000
557798.000000
558658.000000
559459.000000
560233.000000
561076.000000
562040.000000
562990.000000
563942.000000
564899.000000
565854.000000
566778.000000
567670.000000
568657.000000
569682.000000
570678.000000
571655.000000
572632.000000
573589.000000
574495.000000
575346.000000
576229.000000
577188.000000
578201.000000
579189.000000
580125.000000
581078.000000
582098.000000
583113.000000
584023.000000
584870.000000
585756.000000
586621.000000
587407.000000
588300.000000
589322.000000
590335.000000
591342.000000
592386.000000
593433.000000
594481.000000
595481.000000
596492.000000
597532.000000
598531.000000
599457.000000
600421.000000
601381.000000
602326.000000
603246.000000
604135.000000
605104.000000
606124.000000
607147.000000
608136.000000
609100.000000
610077.000000
611085.000000
612103.000000
613065.000000
614024.000000
615052.000000
616104.000000
617102.000000
618048.000000
618924.000000
619820.000000
620793.000000
621813.000000
622828.000000
623785.000000
624762.000000
625771.000000
626764.000000
627707.000000
628593.000000
629513.000000
630485.000000
631458.000000
632384.000000
633242.000000
634145.000000
635103.000000
636103.000000
637082.000000
637991.000000
638863.000000
639749.000000
640681.000000
641649.000000
642501.000000
643264.000000
644118.000000
645047.000000
645966.000000
646883.000000
647835.000000
648815.000000
649786.000000
650712.000000
651595.000000
652543.000000
653555.000000
654555.000000
655512.000000
656401.000000
657286.000000
658227.000000
659205.000000
660184.000000
661118.000000
662021.000000
662955.000000
663903.000000
664810.000000
665734.000000
666639.000000
667491.000000
668360.000000
669273.000000
670224.000000
671171.000000
672046.000000
672958.000000
673885.000000
674828.000000
675739.000000
676590.000000
677492.000000
678431.000000
679373.000000
680284.000000
681139.000000
682005.000000
682899.000000
683700.000000
684430.000000
685227.000000
686070.000000
686893.000000
687812.000000
688792.000000
689757.000000
690684.000000
691510.000000
692284.000000
693125.000000
694041.000000
695008.000000
695955.000000
696901.000000
697890.000000
698899.000000
699915.000000
700898.000000
701878.000000
702836.000000
703806.000000
704785.000000
705779.000000
706729.000000
707618.000000
708504.000000
709449.000000
710405.000000
711354.000000
712250.000000
713076.000000
713895.000000
714809.000000
715781.000000
716791.000000
717724.000000
718639.000000
719572.000000
720524.000000
721481.000000
722379.000000
723226.000000
724085.000000
724941.000000
725731.000000
726458.000000
727213.000000
728158.000000
729089.000000
729951.000000
730842.000000
731786.000000
732745.000000
733695.000000
734600.000000
735454.000000
736369.000000
737359.000000
738385.000000
739355.000000
740322.000000
741298.000000
742236.000000
743123.000000
744043.000000
745041.000000
746042.000000
746987.000000
747881.000000
748804.000000
749780.000000
750803.000000
751823.000000
752786.000000
753718.000000
754684.000000
755669.000000
756631.000000
757588.000000
758624.000000
759653.000000
760665.000000
761628.000000
762584.000000
763565.000000
764547.000000
765536.000000
766480.000000
767383.000000
768335.000000
769323.000000
770295.000000
771211.000000
772083.000000
772984.000000
773919.000000
774900.000000
775825.000000
776776.000000
777761.000000
778757.000000
779717.000000
780619.000000
781502.000000
782441.000000
783430.000000
784383.000000
785278.000000
786244.000000
787259.000000
788255.000000
789196.000000
790109.000000
791079.000000
792092.000000
793071.000000
793992.000000
794864.000000
795764.000000
796697.000000
797637.000000
798550.000000
799401.000000
800152.000000
800851.000000
801616.000000
802624.000000
803647.000000
804671.000000
805659.000000
806534.000000
807305.000000
808080.000000
808992.000000
809889.000000
810727.000000
811524.000000
812383.000000
813288.000000
814218.000000
815121.000000
816000.000000
816900.000000
817832.000000
818759.000000
819687.000000
820580.000000
821482.000000
822415.000000
823373.000000
824301.000000
825183.000000
826072.000000
827069.000000
828078.000000
829080.000000
829992.000000
830871.000000
831822.000000
832851.000000
833922.000000
834936.000000
835892.000000
836837.000000
837792.000000
838651.000000
839447.000000
840165.000000
840957.000000
841819.000000
842626.000000
843487.000000
844438.000000
845409.000000
846330.000000
847192.000000
848041.000000
848940.000000
849882.000000
850843.000000
851810.000000
852741.000000
853601.000000
854513.000000
855486.000000
856432.000000
857332.000000
858210.000000
859120.000000
860070.000000
861021.000000
861998.000000
862948.000000
863865.000000
864798.000000
865792.000000
866749.000000
867636.000000
868543.000000
869503.000000
870482.000000
871420.000000
872333.000000
873266.000000
874216.000000
875104.000000
875961.000000
876886.000000
877835.000000
878797.000000
879703.000000
880633.000000
881602.000000
882572.000000
883500.000000
884394.000000
885312.000000
886263.000000
887198.000000
888084.000000
888966.000000
889872.000000
890814.000000
891721.000000
892552.000000
893428.000000
894404.000000
895382.000000
896329.000000
897222.000000
898091.000000
899011.000000
899933.000000
900859.000000
901681.000000
902414.000000
903186.000000
904097.000000
905023.000000
905929.000000
906769.000000
907622.000000
908512.000000
909434.000000
910372.000000
911279.000000
912111.000000
912932.000000
913816.000000
914739.000000
915672.000000
916584.000000
917443.000000
918330.000000
919272.000000
920234.000000
921199.000000
922108.000000
923030.000000
923958.000000
924867.000000
925784.000000
926735.000000
927684.000000
928593.000000
929488.000000
930410.000000
931354.000000
932302.000000
933236.000000
934103.000000
934970.000000
935888.000000
936831.000000
937712.000000
938584.000000
939514.000000
940458.000000
941406.000000
942292.000000
943082.000000
943907.000000
944826.000000
945765.000000
946680.000000
947511.000000
948261.000000
949042.000000
949975.000000
950881.000000
951762.000000
952674.000000
953636.000000
954616.000000
955590.000000
956530.000000
957431.000000
958356.000000
959302.000000
960271.000000
961255.000000
962162.000000
963043.000000
963966.000000
964922.000000
965868.000000
966767.000000
967690.000000
968632.000000
969619.000000
970611.000000
971582.000000
972420.000000
973269.000000
974173.000000
975111.000000
976081.000000
976994.000000
977935.000000
978975.000000
980059.000000
981030.000000
981931.000000
982843.000000
983772.000000
984723.000000
985659.000000
986547.000000
987391.000000
988274.000000
989208.000000
990123.000000
991004.000000
991831.000000
992672.000000
993551.000000
994472.000000
995388.000000
996254.000000
997061.000000
997810.000000
998568.000000
999397.000000
1000303.000000
1001249.000000
1002199.000000
1003176.000000
1004098.000000
1004957.000000
1005822.000000
1006710.000000
1007626.000000
1008528.000000
1009389.000000
1010208.000000
1011020.000000
1011907.000000
1012830.000000
1013753.000000
1014642.000000
1015506.000000
1016355.000000
1017165.000000
1017914.000000
1018628.000000
1019368.000000
1020197.000000
1021045.000000
1021811.000000
1022561.000000
1023422.000000
1024316.000000
1025125.000000
1025947.000000
1026860.000000
1027818.000000
1028780.000000
1029695.000000
1030538.000000
1031388.000000
1032284.000000
1033217.000000
1034136.000000
1035032.000000
1035978.000000
1036939.000000
1037921.000000
1038896.000000
1039856.000000
1040740.000000
1041615.000000
1042545.000000
1043510.000000
1044460.000000
1045383.000000
1046270.000000
1047183.000000
1048115.000000
1049072.000000
1049981.000000
1050831.000000
1051646.000000
1052484.000000
1053370.000000
1054282.000000
1055212.000000
1056150.000000
1057042.000000
1057869.000000
1058732.000000
1059665.000000
1060611.000000
1061552.000000
1062442.000000
1063312.000000
1064222.000000
1065135.000000
1066049.000000
1066943.000000
1067867.000000
1068808.000000
1069761.000000
1070649.000000
1071511.000000
1072385.000000
1073303.000000
1074235.000000
1075150.000000
1076008.000000
1076832.000000
1077655.000000
1078562.000000
1079510.000000
1080383.000000
1081155.000000
1081974.000000
1082853.000000
1083695.000000
1084469.000000
1085259.000000
1086141.000000
1087062.000000
1087996.000000
1088908.000000
1089745.000000
1090586.000000
1091469.000000
1092378.000000
1093269.000000
1094121.000000
1094944.000000
1095805.000000
1096740.000000
1097694.000000
1098605.000000
1099453.000000
1100301.000000
1101175.000000
1102102.000000
1103060.000000
1103970.000000
1104828.000000
1105728.000000
1106645.000000
1107582.000000
1108529.000000
1109453.000000
1110314.000000
1111212.000000
1112167.000000
1113112.000000
1114031.000000
1114912.000000
1115836.000000
1116769.000000
1117703.000000
1118587.000000
1119429.000000
1120307.000000
1121200.000000
1122137.000000
1123049.000000
1123919.000000
1124859.000000
1125804.000000
1126702.000000
1127564.000000
1128344.000000
1129175.000000
1130050.000000
1130971.000000
1131868.000000
1132766.000000
1133580.000000
1134399.000000
1135178.000000
1135904.000000
1136684.000000
1137631.000000
1138592.000000
1139484.000000
1140312.000000
1141212.000000
1142166.000000
1143138.000000
1144075.000000
1144996.000000
1145871.000000
1146682.000000
1147540.000000
1148439.000000
1149348.000000
1150260.000000
1151099.000000
1151894.000000
1152789.000000
1153767.000000
1154766.000000
1155732.000000
1156685.000000
1157645.000000
1158608.000000
1159574.000000
1160543.000000
1161455.000000
1162300.000000
1163189.000000
1164107.000000
1164972.000000
1165837.000000
1166763.000000
1167720.000000
1168636.000000
1169560.000000
1170481.000000
1171369.000000
1172183.000000
1172997.000000
1173837.000000
1174715.000000
1175592.000000
1176454.000000
1177334.000000
1178213.000000
1179033.000000
1179767.000000
1180484.000000
1181245.000000
1182080.000000
1182963.000000
1183826.000000
1184612.000000
1185351.000000
1186122.000000
1186956.000000
1187818.000000
1188696.000000
1189546.000000
1190324.000000
1191076.000000
1191870.000000
1192684.000000
1193513.000000
1194396.000000
1195260.000000
1196086.000000
1196889.000000
1197720.000000
1198578.000000
1199440.000000
1200271.000000
1201051.000000
1201775.000000
1202529.000000
1203341.000000
1204200.000000
1205058.000000
1205901.000000
1206683.000000
1207413.000000
1208162.000000
1208984.000000
1209808.000000
1210576.000000
1211279.000000
1211979.000000
1212752.000000
1213546.000000
1214275.000000
1215012.000000
1215832.000000
1216702.000000
1217599.000000
1218490.000000
1219349.000000
1220147.000000
1220887.000000
1221637.000000
1222463.000000
1223308.000000
1224239.000000
1225124.000000
1225958.000000
1226801.000000
1227706.000000
1228625.000000
1229537.000000
1230405.000000
1231233.000000
1232130.000000
1233077.000000
1234030.000000
1234913.000000
1235718.000000
1236538.000000
1237431.000000
1238358.000000
1239291.000000
1240185.000000
1241021.000000
1241888.000000
1242834.000000
1243775.000000
1244709.000000
1245577.000000
1246371.000000
1247175.000000
1248022.000000
1248913.000000
1249816.000000
1250706.000000
1251538.000000
1252408.000000
1253319.000000
1254251.000000
1255168.000000
1256043.000000
1256851.000000
1257605.000000
1258425.000000
1259269.000000
1260141.000000
1261016.000000
1261882.000000
1262773.000000
1263691.000000
1264598.000000
1265412.000000
1266144.000000
1266917.000000
1267797.000000
1268643.000000
1269480.000000
1270382.000000
1271321.000000
1272278.000000
1273207.000000
1274080.000000
1274970.000000
1275889.000000
1276841.000000
1277764.000000
1278626.000000
1279434.000000
1280273.000000
1281182.000000
1282124.000000
1283003.000000
1283841.000000
1284705.000000
1285619.000000
1286530.000000
1287449.000000
1288333.000000
1289149.000000
1289945.000000
1290771.000000
1291659.000000
1292570.000000
1293451.000000
1294295.000000
1295109.000000
1295989.000000
1296925.000000
1297831.000000
1298702.000000
1299530.000000
1300265.000000
1300999.000000
1301802.000000
1302711.000000
1303624.000000
1304567.000000
1305501.000000
1306458.000000
1307391.000000
1308254.000000
1309035.000000
1309814.000000
1310674.000000
1311573.000000
1312486.000000
1313406.000000
1314281.000000
1315194.000000
1316101.000000
1317021.000000
1317900.000000
1318732.000000
1319551.000000
1320394.000000
1321224.000000
1321984.000000
1322704.000000
1323390.000000
1324144.000000
1325015.000000
1325832.000000
1326566.000000
1327385.000000
1328253.000000
1329151.000000
1330015.000000
1330782.000000
1331600.000000
1332449.000000
1333345.000000
1334231.000000
1335056.000000
1335880.000000
1336768.000000
1337689.000000
1338619.000000
1339491.000000
1340295.000000
1341115.000000
1342001.000000
1342951.000000
1343900.000000
1344823.000000
1345785.000000
1346766.000000
1347761.000000
1348726.000000
1349654.000000
1350564.000000
1351484.000000
1352369.000000
1353223.000000
1354045.000000
1354898.000000
1355860.000000
1356830.000000
1357761.000000
1358634.000000
1359531.000000
1360438.000000
1361312.000000
1362081.000000
1362798.000000
1363566.000000
1364399.000000
1365204.000000
1365941.000000
1366700.000000
1367528.000000
1368375.000000
1369277.000000
1370149.000000
1370965.000000
1371738.000000
1372589.000000
1373468.000000
1374387.000000
1375301.000000
1376194.000000
1377087.000000
1377978.000000
1378871.000000
1379753.000000
1380617.000000
1381432.000000
1382289.000000
1383194.000000
1384145.000000
1385078.000000
1385964.000000
1386857.000000
1387760.000000
1388679.000000
1389593.000000
1390470.000000
1391276.000000
1392072.000000
1392935.000000
1393865.000000
1394823.000000
1395750.000000
1396645.000000
1397584.000000
1398531.000000
1399490.000000
1400454.000000
1401390.000000
1402312.000000
1403253.000000
1404158.000000
1405037.000000
1405888.000000
1406658.000000
1407396.000000
1408198.000000
1409097.000000
1410028.000000
1410959.000000
1411858.000000
1412719.000000
1413592.000000
1414508.000000
1415404.000000
1416276.000000
1417090.000000
1417853.000000
1418677.000000
1419597.000000
1420564.000000
1421516.000000
1422441.000000
1423365.000000
1424281.000000
1425189.000000
1426080.000000
1426900.000000
1427726.000000
1428587.000000
1429479.000000
1430373.000000
1431241.000000
1432079.000000
1432934.000000
1433822.000000
1434731.000000
1435598.000000
1436418.000000
1437179.000000
1438016.000000
1438877.000000
1439715.000000
1440468.000000
1441215.000000
1442052.000000
1442865.000000
1443625.000000
1444449.000000
1445304.000000
1446224.000000
1447140.000000
1448019.000000
1448839.000000
1449581.000000
1450331.000000
1451161.000000
1452048.000000
1452989.000000
1453923.000000
1454836.000000
1455699.000000
1456595.000000
1457507.000000
1458395.000000
1459264.000000
1460123.000000
1460928.000000
1461733.000000
1462616.000000
1463529.000000
1464469.000000
1465366.000000
1466241.000000
1467143.000000
1468068.000000
1468984.000000
1469880.000000
1470754.000000
1471598.000000
1472431.000000
1473301.000000
1474246.000000
1475186.000000
1476104.000000
1476970.000000
1477787.000000
1478583.000000
1479459.000000
1480405.000000
1481367.000000
1482293.000000
1483186.000000
1483995.000000
1484790.000000
1485618.000000
1486423.000000
1487156.000000
1487890.000000
1488788.000000
1489683.000000
1490522.000000
1491345.000000
1492230.000000
1493149.000000
1494026.000000
1494857.000000
1495675.000000
1496497.000000
1497360.000000
1498229.000000
1499064.000000
1499844.000000
1500609.000000
1501431.000000
1502326.000000
1503253.000000
1504155.000000
1505018.000000
1505815.000000
1506588.000000
1507404.000000
1508286.000000
1509169.000000
1510020.000000
1510840.000000
1511705.000000
1512593.000000
1513509.000000
1514396.000000
1515241.000000
1516115.000000
1517031.000000
1517957.000000
1518835.000000
1519678.000000
1520544.000000
1521458.000000
1522384.000000
1523346.000000
1524281.000000
1525152.000000
1526077.000000
1527026.000000
1527985.000000
1528931.000000
1529878.000000
1530803.000000
1531711.000000
1532610.000000
1533444.000000
1534287.000000
1535229.000000
1536191.000000
1537126.000000
1538074.000000
1539023.000000
1539955.000000
1540835.000000
1541671.000000
1542423.000000
1543151.000000
1543923.000000
1544771.000000
1545675.000000
1546561.000000
1547368.000000
1548154.000000
1548973.000000
1549811.000000
1550598.000000
1551319.000000
1552060.000000
1552923.000000
1553750.000000
1554502.000000
1555276.000000
1556144.000000
1557064.000000
1558007.000000
1558938.000000
1559814.000000
1560608.000000
1561381.000000
1562235.000000
1563141.000000
1564068.000000
1564989.000000
1565878.000000
1566726.000000
1567584.000000
1568492.000000
1569414.000000
1570332.000000
1571183.000000
1572030.000000
1572934.000000
1573868.000000
1574788.000000
1575673.000000
1576509.000000
1577363.000000
1578284.000000
1579215.000000
1580145.000000
1581020.000000
1581840.000000
1582661.000000
1583527.000000
1584446.000000
1585380.000000
1586253.000000
1587079.000000
1587904.000000
1588781.000000
1589729.000000
1590630.000000
1591507.000000
1592366.000000
1593232.000000
1594109.000000
1594964.000000
1595809.000000
1596702.000000
1597675.000000
1598638.000000
1599555.000000
1600414.000000
1601220.000000
1602046.000000
1602911.000000
1603819.000000
1604730.000000
1605614.000000
1606438.000000
1607228.000000
1608061.000000
1608948.000000
1609845.000000
1610741.000000
1611584.000000
1612369.000000
1613164.000000
1614000.000000
1614831.000000
1615642.000000
1616383.000000
1617118.000000
1617944.000000
1618775.000000
1619554.000000
1620408.000000
1621307.000000
1622247.000000
1623154.000000
1624031.000000
1624869.000000
1625747.000000
1626648.000000
1627587.000000
1628491.000000
1629332.000000
1630166.000000
1631040.000000
1631941.000000
1632836.000000
1633694.000000
1634487.000000
1635240.000000
1636056.000000
1636973.000000
1637948.000000
1638911.000000
1639828.000000
1640683.000000
1641552.000000
1642473.000000
1643397.000000
1644302.000000
1645172.000000
1646012.000000
1646863.000000
1647762.000000
1648668.000000
1649557.000000
1650395.000000
1651194.000000
1652023.000000
1652913.000000
1653808.000000
1654689.000000
1655533.000000
1656352.000000
1657220.000000
1658121.000000
1659024.000000
1659912.000000
1660769.000000
1661576.000000
1662383.000000
1663249.000000
1664127.000000
1665005.000000
1665839.000000
1666648.000000
1667508.000000
1668417.000000
1669338.000000
1670254.000000
1671152.000000
1672052.000000
1672958.000000
1673842.000000
1674703.000000
1675556.000000
1676409.000000
1677252.000000
1678070.000000
1678852.000000
1679666.000000
1680511.000000
1681396.000000
1682278.000000
1683105.000000
1683894.000000
1684696.000000
1685525.000000
1686378.000000
1687171.000000
1687938.000000
1688719.000000
1689585.000000
1690476.000000
1691383.000000
1692253.000000
1693064.000000
1693868.000000
1694701.000000
1695560.000000
1696353.000000
1697078.000000
1697885.000000
1698707.000000
1699458.000000
1700203.000000
1701041.000000
1701923.000000
1702827.000000
1703705.000000
1704541.000000
1705396.000000
1706256.000000
1707120.000000
1707984.000000
1708830.000000
1709683.000000
1710575.000000
1711497.000000
1712431.000000
1713317.000000
1714136.000000
1714958.000000
1715826.000000
1716762.000000
1717706.000000
1718607.000000
1719473.000000
1720357.000000
1721274.000000
1722214.000000
1723121.000000
1723982.000000
1724820.000000
1725680.000000
1726607.000000
1727586.000000
1728565.000000
1729452.000000
1730278.000000
1731097.000000
1731958.000000
1732853.000000
1733755.000000
1734611.000000
1735437.000000
1736319.000000
1737246.000000
1738182.000000
1739111.000000
1740032.000000
1740924.000000
1741744.000000
1742529.000000
1743342.000000
1744237.000000
1745151.000000
1746047.000000
1746928.000000
1747757.000000
1748632.000000
1749544.000000
1750454.000000
1751366.000000
1752269.000000
1753156.000000
1754017.000000
1754774.000000
1755501.000000
1756310.000000
1757141.000000
1757937.000000
1758768.000000
1759674.000000
1760604.000000
1761544.000000
1762442.000000
1763265.000000
1764073.000000
1764909.000000
1765802.000000
1766712.000000
1767620.000000
1768474.000000
1769328.000000
1770234.000000
1771154.000000
1772075.000000
1772975.000000
1773810.000000
1774644.000000
1775517.000000
1776429.000000
1777345.000000
1778205.000000
1779004.000000
1779799.000000
1780660.000000
1781571.000000
1782496.000000
1783400.000000
1784219.000000
1785058.000000
1785947.000000
1786860.000000
1787734.000000
1788573.000000
1789452.000000
1790397.000000
1791363.000000
1792323.000000
1793244.000000
1794118.000000
1795023.000000
1795936.000000
1796865.000000
1797784.000000
1798643.000000
1799493.000000
1800383.000000
