ECG (ms)
573.000000
1486.000000
2413.000000
3347.000000
4263.000000
5194.000000
6144.000000
7076.000000
8003.000000
8953.000000
9893.000000
10833.000000
11782.000000
12729.000000
13650.000000
14599.000000
15531.000000
16440.000000
17351.000000
18282.000000
19200.000000
20123.000000
21078.000000
22017.000000
22952.000000
23899.000000
24825.000000
25732.000000
26659.000000
27585.000000
28511.000000
29465.000000
30443.000000
31435.000000
32417.000000
33404.000000
34399.000000
35370.000000
36316.000000
37267.000000
38216.000000
39162.000000
40104.000000
41064.000000
42014.000000
42953.000000
43947.000000
44936.000000
45905.000000
46879.000000
47881.000000
48904.000000
49898.000000
50872.000000
51854.000000
52836.000000
53808.000000
54776.000000
55724.000000
56642.000000
57585.000000
58544.000000
59490.000000
60470.000000
61476.000000
62477.000000
63446.000000
64434.000000
65402.000000
66345.000000
67292.000000
68251.000000
69210.000000
70154.000000
71119.000000
72095.000000
73060.000000
74030.000000
75032.000000
76015.000000
76987.000000
77973.000000
78968.000000
79940.000000
80917.000000
81915.000000
82894.000000
83869.000000
84855.000000
85827.000000
86801.000000
87809.000000
88797.000000
89773.000000
90785.000000
91773.000000
92772.000000
93774.000000
94764.000000
95729.000000
96711.000000
97688.000000
98661.000000
99668.000000
100649.000000
101615.000000
102606.000000
103601.000000
104565.000000
105533.000000
106511.000000
107470.000000
108440.000000
109421.000000
110371.000000
111334.000000
112319.000000
113267.000000
114232.000000
115193.000000
116124.000000
117063.000000
118008.000000
118935.000000
119863.000000
120799.000000
121754.000000
122692.000000
123630.000000
124575.000000
125526.000000
126458.000000
127398.000000
128364.000000
129290.000000
130210.000000
131154.000000
132093.000000
133007.000000
133946.000000
134882.000000
135802.000000
136726.000000
137671.000000
138610.000000
139540.000000
140459.000000
141398.000000
142319.000000
143243.000000
144187.000000
145148.000000
146102.000000
147078.000000
148021.000000
148949.000000
149900.000000
150844.000000
151829.000000
152818.000000
153797.000000
154778.000000
155762.000000
156707.000000
157664.000000
158641.000000
159597.000000
160541.000000
161483.000000
162422.000000
163381.000000
164318.000000
165245.000000
166185.000000
167121.000000
168055.000000
168996.000000
169926.000000
170862.000000
171799.000000
172724.000000
173634.000000
174552.000000
175468.000000
176376.000000
177315.000000
178275.000000
179233.000000
180206.000000
181178.000000
182136.000000
183063.000000
183985.000000
184922.000000
185862.000000
186782.000000
187667.000000
188556.000000
189466.000000
190429.000000
191404.000000
192362.000000
193327.000000
194300.000000
195260.000000
196218.000000
197184.000000
198136.000000
199083.000000
200044.000000
200991.000000
201969.000000
202959.000000
203917.000000
204912.000000
205920.000000
206895.000000
207905.000000
208898.000000
209872.000000
210887.000000
211905.000000
212904.000000
213862.000000
214822.000000
215782.000000
216766.000000
217759.000000
218733.000000
219697.000000
220653.000000
221594.000000
222536.000000
223494.000000
224448.000000
225403.000000
226367.000000
227334.000000
228289.000000
229243.000000
230206.000000
231168.000000
232125.000000
233090.000000
234042.000000
234985.000000
235918.000000
236859.000000
237789.000000
238720.000000
239649.000000
240576.000000
241490.000000
242434.000000
243395.000000
244336.000000
245267.000000
246204.000000
247142.000000
248067.000000
248998.000000
249946.000000
250912.000000
251844.000000
252788.000000
253725.000000
254663.000000
255592.000000
256543.000000
257488.000000
258419.000000
259363.000000
260334.000000
261306.000000
262253.000000
263218.000000
264174.000000
265135.000000
266089.000000
267040.000000
267989.000000
268918.000000
269863.000000
270792.000000
271710.000000
272651.000000
273590.000000
274515.000000
275443.000000
276380.000000
277302.000000
278221.000000
279153.000000
280079.000000
280984.000000
281891.000000
282838.000000
283805.000000
284737.000000
285691.000000
286640.000000
287603.000000
288532.000000
289465.000000
290402.000000
291351.000000
292282.000000
293234.000000
294187.000000
295143.000000
296078.000000
297019.000000
297963.000000
298893.000000
299819.000000
300749.000000
301690.000000
302606.000000
303523.000000
304450.000000
305371.000000
306318.000000
307248.000000
308174.000000
309118.000000
310059.000000
311008.000000
311940.000000
312887.000000
313846.000000
314481.000000
315599.000000
316572.000000
317544.000000
318505.000000
319483.000000
320471.000000
321422.000000
322370.000000
323332.000000
324273.000000
325169.000000
326044.000000
326936.000000
327836.000000
328759.000000
329716.000000
330658.000000
331603.000000
332582.000000
333577.000000
334512.000000
335453.000000
336400.000000
337319.000000
338229.000000
339170.000000
340087.000000
341000.000000
341939.000000
342899.000000
343852.000000
344822.000000
345792.000000
346744.000000
347690.000000
348640.000000
349571.000000
350488.000000
351416.000000
352353.000000
353286.000000
354235.000000
355209.000000
356188.000000
357132.000000
358082.000000
359035.000000
359966.000000
360883.000000
361795.000000
362699.000000
363597.000000
364485.000000
365381.000000
366286.000000
367172.000000
368071.000000
368978.000000
369880.000000
370786.000000
371714.000000
372648.000000
373585.000000
374561.000000
375534.000000
376487.000000
377448.000000
378415.000000
379365.000000
380306.000000
381257.000000
382203.000000
383136.000000
384103.000000
385089.000000
386051.000000
387023.000000
388004.000000
388977.000000
389921.000000
390861.000000
391798.000000
392711.000000
393607.000000
394506.000000
395390.000000
396282.000000
397203.000000
398133.000000
399078.000000
400025.000000
401020.000000
402006.000000
402955.000000
403913.000000
404847.000000
405772.000000
406720.000000
407664.000000
408598.000000
409558.000000
410546.000000
411527.000000
412527.000000
413565.000000
414549.000000
415522.000000
416492.000000
417453.000000
418398.000000
419320.000000
420274.000000
421225.000000
422157.000000
423083.000000
424024.000000
424971.000000
425893.000000
426833.000000
427773.000000
428694.000000
429606.000000
430529.000000
431439.000000
432325.000000
433210.000000
434111.000000
435053.000000
435990.000000
436924.000000
437894.000000
438853.000000
439794.000000
440764.000000
441713.000000
442655.000000
443639.000000
444603.000000
445565.000000
446547.000000
447513.000000
448488.000000
449488.000000
450460.000000
451453.000000
452439.000000
453411.000000
454390.000000
455350.000000
456292.000000
457256.000000
458230.000000
459166.000000
460114.000000
461075.000000
462019.000000
462955.000000
463908.000000
464841.000000
465744.000000
466651.000000
467563.000000
468488.000000
469425.000000
470373.000000
471351.000000
472300.000000
473256.000000
474210.000000
475152.000000
476085.000000
477036.000000
477998.000000
478940.000000
479911.000000
480880.000000
481835.000000
482823.000000
483813.000000
484769.000000
485720.000000
486670.000000
487601.000000
488509.000000
489426.000000
490335.000000
491241.000000
492177.000000
493104.000000
494055.000000
495157.000000
496200.000000
497169.000000
498130.000000
499098.000000
500973.000000
501901.000000
502793.000000
503680.000000
504596.000000
505520.000000
506480.000000
507538.000000
508598.000000
509656.000000
510754.000000
511791.000000
512810.000000
513839.000000
514849.000000
515849.000000
516872.000000
517882.000000
518900.000000
519896.000000
520846.000000
521813.000000
522753.000000
523659.000000
524572.000000
525467.000000
526353.000000
527266.000000
528192.000000
529109.000000
530045.000000
530980.000000
531905.000000
532816.000000
533750.000000
534683.000000
535593.000000
536506.000000
537429.000000
538332.000000
539214.000000
540095.000000
540981.000000
541892.000000
542803.000000
543756.000000
544753.000000
545728.000000
546683.000000
547631.000000
548568.000000
549476.000000
550401.000000
551337.000000
552272.000000
553233.000000
554210.000000
555187.000000
556183.000000
557186.000000
558183.000000
559156.000000
560143.000000
561136.000000
562084.000000
563034.000000
564017.000000
564991.000000
565946.000000
566912.000000
567876.000000
568826.000000
569777.000000
570730.000000
571684.000000
572628.000000
573580.000000
574561.000000
575541.000000
576479.000000
577400.000000
578325.000000
579237.000000
580155.000000
581121.000000
582101.000000
583077.000000
584088.000000
585115.000000
586099.000000
587071.000000
588046.000000
589033.000000
590005.000000
590997.000000
592030.000000
593032.000000
593999.000000
595006.000000
595965.000000
596882.000000
597789.000000
598701.000000
599587.000000
600473.000000
601385.000000
602315.000000
603243.000000
604201.000000
605181.000000
606146.000000
607126.000000
608090.000000
609044.000000
609996.000000
610947.000000
611879.000000
612853.000000
613855.000000
614836.000000
615843.000000
616850.000000
617861.000000
618829.000000
619813.000000
620777.000000
621709.000000
622643.000000
623589.000000
624541.000000
625458.000000
626393.000000
627338.000000
628276.000000
629191.000000
630112.000000
631038.000000
631954.000000
632876.000000
633820.000000
634754.000000
635670.000000
636626.000000
637579.000000
638517.000000
639472.000000
640476.000000
641458.000000
642435.000000
643445.000000
644448.000000
645418.000000
646413.000000
647448.000000
648439.000000
649423.000000
650439.000000
651448.000000
652434.000000
653448.000000
654452.000000
655434.000000
656471.000000
657515.000000
658507.000000
659494.000000
660469.000000
661430.000000
662401.000000
663365.000000
664315.000000
665285.000000
666232.000000
667165.000000
668107.000000
669025.000000
669960.000000
670896.000000
671845.000000
672807.000000
673759.000000
674701.000000
675658.000000
676609.000000
677542.000000
678461.000000
679388.000000
680311.000000
681224.000000
682161.000000
683082.000000
683992.000000
684934.000000
685869.000000
686793.000000
687716.000000
688668.000000
689618.000000
690572.000000
691621.000000
692668.000000
693678.000000
694673.000000
695686.000000
696694.000000
697686.000000
698678.000000
699703.000000
700687.000000
701689.000000
702703.000000
703690.000000
704672.000000
705684.000000
706668.000000
707645.000000
708622.000000
709611.000000
710588.000000
711567.000000
712523.000000
713491.000000
714487.000000
715448.000000
716409.000000
717404.000000
718360.000000
719332.000000
720312.000000
721289.000000
722255.000000
723217.000000
724170.000000
725119.000000
726085.000000
727030.000000
727965.000000
728909.000000
729860.000000
730788.000000
731734.000000
732689.000000
733644.000000
734576.000000
735494.000000
736424.000000
737346.000000
738272.000000
739204.000000
740159.000000
741083.000000
741985.000000
742880.000000
743785.000000
744684.000000
745578.000000
746486.000000
747425.000000
748358.000000
749276.000000
750201.000000
751150.000000
752078.000000
752999.000000
753943.000000
754910.000000
755847.000000
756769.000000
757730.000000
758666.000000
759567.000000
760470.000000
761382.000000
762289.000000
763193.000000
764137.000000
765071.000000
766005.000000
766979.000000
767954.000000
768903.000000
769863.000000
770814.000000
771747.000000
772695.000000
773636.000000
774579.000000
775555.000000
776539.000000
777498.000000
778466.000000
779447.000000
780407.000000
781343.000000
782308.000000
783260.000000
784194.000000
785161.000000
786156.000000
787143.000000
788151.000000
789158.000000
790160.000000
791122.000000
792076.000000
793037.000000
793968.000000
794899.000000
795854.000000
796823.000000
797778.000000
798748.000000
799747.000000
800719.000000
801648.000000
802605.000000
803544.000000
804468.000000
805394.000000
806332.000000
807273.000000
808208.000000
809188.000000
810179.000000
811154.000000
812147.000000
813133.000000
814085.000000
815054.000000
816035.000000
816998.000000
817972.000000
818961.000000
819979.000000
820977.000000
821978.000000
823013.000000
824028.000000
824999.000000
825959.000000
826947.000000
827918.000000
828864.000000
829780.000000
830720.000000
831662.000000
832583.000000
833546.000000
834505.000000
835449.000000
836414.000000
837381.000000
838333.000000
839323.000000
840315.000000
841294.000000
842284.000000
843260.000000
844231.000000
845217.000000
846201.000000
847186.000000
848169.000000
849128.000000
850104.000000
851070.000000
852028.000000
853002.000000
853989.000000
854979.000000
856001.000000
856990.000000
857990.000000
858984.000000
859949.000000
860946.000000
861958.000000
862925.000000
863882.000000
864829.000000
865756.000000
866696.000000
867646.000000
868575.000000
869520.000000
870479.000000
871418.000000
872363.000000
873330.000000
874302.000000
875270.000000
876269.000000
877298.000000
878329.000000
879320.000000
880297.000000
881266.000000
882214.000000
883197.000000
884188.000000
885202.000000
886190.000000
887184.000000
888201.000000
889204.000000
890218.000000
891284.000000
892293.000000
893247.000000
894211.000000
895163.000000
896100.000000
897057.000000
898044.000000
899038.000000
900091.000000
901141.000000
903138.000000
904132.000000
905071.000000
906005.000000
906960.000000
907958.000000
908987.000000
909996.000000
911048.000000
912096.000000
913094.000000
914114.000000
915155.000000
916168.000000
917129.000000
918086.000000
919046.000000
919972.000000
920906.000000
921876.000000
922854.000000
923819.000000
924821.000000
925852.000000
926842.000000
927847.000000
928870.000000
929886.000000
930923.000000
931959.000000
932998.000000
934001.000000
934980.000000
935990.000000
936966.000000
937940.000000
938923.000000
939875.000000
940831.000000
941842.000000
942849.000000
943818.000000
944816.000000
945797.000000
946742.000000
947689.000000
948659.000000
949625.000000
950591.000000
951580.000000
952573.000000
953556.000000
954575.000000
955601.000000
956572.000000
957542.000000
958524.000000
959463.000000
960411.000000
961361.000000
962292.000000
963228.000000
964189.000000
965138.000000
966089.000000
967073.000000
968062.000000
969021.000000
969976.000000
970936.000000
971907.000000
972865.000000
973818.000000
974760.000000
975715.000000
976677.000000
977622.000000
978537.000000
979461.000000
980399.000000
981317.000000
982245.000000
983207.000000
984168.000000
985100.000000
986061.000000
987019.000000
987951.000000
988907.000000
989901.000000
990897.000000
991862.000000
992811.000000
993769.000000
994695.000000
995637.000000
996596.000000
997552.000000
998513.000000
999504.000000
1000506.000000
1001479.000000
1002442.000000
1003423.000000
1004417.000000
1005392.000000
1006384.000000
1007414.000000
1008408.000000
1009360.000000
1010319.000000
1011292.000000
1012281.000000
1013242.000000
1014191.000000
1015159.000000
1016117.000000
1017061.000000
1018012.000000
1018998.000000
1019947.000000
1020870.000000
1021803.000000
1022741.000000
1023663.000000
1024577.000000
1025611.000000
1026619.000000
1027573.000000
1028486.000000
1029414.000000
1030369.000000
1031305.000000
1032246.000000
1033213.000000
1034180.000000
1035152.000000
1036165.000000
1037176.000000
1038149.000000
1039181.000000
1040228.000000
1041249.000000
1042279.000000
1043307.000000
1044401.000000
1045433.000000
1046421.000000
1047413.000000
1048389.000000
1049336.000000
1050291.000000
1051250.000000
1052200.000000
1053162.000000
1054141.000000
1055099.000000
1056052.000000
1057037.000000
1058037.000000
1058998.000000
1059994.000000
1060964.000000
1061912.000000
1062868.000000
1063831.000000
1064770.000000
1065704.000000
1066657.000000
1067628.000000
1068572.000000
1069506.000000
1070463.000000
1071423.000000
1072360.000000
1073331.000000
1074295.000000
1075268.000000
1076224.000000
1077168.000000
1078141.000000
1079105.000000
1080033.000000
1080950.000000
1081892.000000
1082830.000000
1083766.000000
1084699.000000
1085673.000000
1086711.000000
1087706.000000
1088683.000000
1089651.000000
1090586.000000
1091490.000000
1092400.000000
1093306.000000
1094197.000000
1095084.000000
1096011.000000
1096953.000000
1097906.000000
1098876.000000
1099846.000000
1100805.000000
1101748.000000
1102717.000000
1103689.000000
1104635.000000
1105600.000000
1106559.000000
1107503.000000
1108458.000000
1109429.000000
1110387.000000
1111357.000000
1112357.000000
1113350.000000
1114332.000000
1115337.000000
1116327.000000
1117295.000000
1118300.000000
1119314.000000
1120314.000000
1121269.000000
1122247.000000
1123229.000000
1124177.000000
1125094.000000
1126032.000000
1126955.000000
1127870.000000
1128823.000000
1129780.000000
1130720.000000
1131683.000000
1132667.000000
1133627.000000
1134577.000000
1135553.000000
1136531.000000
1137505.000000
1138453.000000
1139401.000000
1140369.000000
1141295.000000
1142187.000000
1143095.000000
1143992.000000
1144889.000000
1145803.000000
1146741.000000
1147667.000000
1148597.000000
1149559.000000
1150516.000000
1151444.000000
1152407.000000
1153383.000000
1154337.000000
1155302.000000
1156284.000000
1157244.000000
1158214.000000
1159205.000000
1160166.000000
1161126.000000
1162075.000000
1163016.000000
1163965.000000
1164916.000000
1165848.000000
1166785.000000
1167753.000000
1168697.000000
1169638.000000
1170602.000000
1171539.000000
1172460.000000
1173396.000000
1174332.000000
1175248.000000
1176182.000000
1177116.000000
1178035.000000
1178974.000000
1179913.000000
1180844.000000
1181802.000000
1182770.000000
1183719.000000
1184694.000000
1185671.000000
1186611.000000
1187560.000000
1188496.000000
1189419.000000
1190371.000000
1191336.000000
1192278.000000
1193236.000000
1194181.000000
1195101.000000
1196027.000000
1196960.000000
1197873.000000
1198799.000000
1199748.000000
1200690.000000
1201620.000000
1202572.000000
1203500.000000
1204431.000000
1205380.000000
1206350.000000
1207284.000000
1208231.000000
1209186.000000
1210114.000000
1211063.000000
1212015.000000
1212940.000000
1213898.000000
1214845.000000
1215775.000000
1216722.000000
1217664.000000
1218591.000000
1219543.000000
1220495.000000
1221428.000000
1222368.000000
1223310.000000
1224230.000000
1225175.000000
1226120.000000
1227055.000000
1227982.000000
1228903.000000
1229817.000000
1230755.000000
1231695.000000
1232623.000000
1233579.000000
1234545.000000
1235484.000000
1236439.000000
1237386.000000
1238311.000000
1239256.000000
1240205.000000
1241132.000000
1242057.000000
1242989.000000
1243912.000000
1244842.000000
1245781.000000
1246709.000000
1247637.000000
1248569.000000
1249488.000000
1250425.000000
1251377.000000
1252327.000000
1253264.000000
1254212.000000
1255148.000000
1256070.000000
1257016.000000
1257985.000000
1258925.000000
1259877.000000
1260831.000000
1261769.000000
1262728.000000
1263684.000000
1264620.000000
1265570.000000
1266529.000000
1267462.000000
1268409.000000
1269361.000000
1270296.000000
1271236.000000
1272191.000000
1273140.000000
1274084.000000
1275041.000000
1276002.000000
1276940.000000
1277901.000000
1278866.000000
1279794.000000
1280738.000000
1281669.000000
1282589.000000
1283507.000000
1284435.000000
1285359.000000
1286280.000000
1287217.000000
1288161.000000
1289093.000000
1290029.000000
1290953.000000
1291876.000000
1292821.000000
1293764.000000
1294685.000000
1295633.000000
1296568.000000
1297494.000000
1298437.000000
1299375.000000
1300320.000000
1301287.000000
1302247.000000
1304129.000000
1305032.000000
1305913.000000
1306811.000000
1307706.000000
1308599.000000
1309544.000000
1310524.000000
1311497.000000
1312481.000000
1313482.000000
1314459.000000
1315459.000000
1316461.000000
1317438.000000
1318407.000000
1319375.000000
1320321.000000
1321269.000000
1322214.000000
1323167.000000
1324092.000000
1325020.000000
1325970.000000
1326902.000000
1327818.000000
1328760.000000
1329701.000000
1330637.000000
1331591.000000
1332547.000000
1333490.000000
1334491.000000
1335491.000000
1336458.000000
1337427.000000
1338394.000000
1339326.000000
1340264.000000
1341199.000000
1342125.000000
1343057.000000
1344012.000000
1344950.000000
1345899.000000
1346853.000000
1347794.000000
1348746.000000
1349690.000000
1350621.000000
1351557.000000
1352499.000000
1353432.000000
1354385.000000
1355347.000000
1356308.000000
1357276.000000
1358215.000000
1359157.000000
1360127.000000
1361067.000000
1362020.000000
1362958.000000
1363883.000000
1364821.000000
1365761.000000
1366681.000000
1367612.000000
1368550.000000
1369481.000000
1370438.000000
1371383.000000
1372337.000000
1373281.000000
1374195.000000
1375117.000000
1376035.000000
1376940.000000
1377856.000000
1378784.000000
1379700.000000
1380646.000000
1381572.000000
1382485.000000
1383410.000000
1384325.000000
1385245.000000
1386168.000000
1387107.000000
1388062.000000
1389028.000000
1389978.000000
1390909.000000
1391859.000000
1392779.000000
1393688.000000
1394594.000000
1395495.000000
1396399.000000
1397313.000000
1398211.000000
1399108.000000
1400030.000000
1400952.000000
1401876.000000
1402823.000000
1403754.000000
1404689.000000
1405659.000000
1406616.000000
1407572.000000
1408520.000000
1409484.000000
1410492.000000
1411491.000000
1412491.000000
1413514.000000
1414512.000000
1415492.000000
