ECG (ms)
765.000000
1615.000000
2437.000000
3286.000000
4157.000000
4992.000000
5846.000000
6745.000000
7627.000000
8438.000000
9220.000000
10018.000000
10840.000000
11671.000000
12519.000000
13459.000000
14345.000000
15218.000000
16133.000000
17026.000000
17882.000000
18786.000000
19683.000000
20530.000000
21373.000000
22235.000000
23057.000000
23844.000000
24680.000000
25572.000000
26437.000000
27271.000000
28153.000000
29089.000000
29942.000000
30769.000000
31623.000000
32486.000000
33302.000000
34108.000000
34978.000000
35891.000000
36752.000000
37565.000000
38398.000000
39236.000000
40044.000000
40863.000000
41716.000000
42575.000000
43396.000000
44222.000000
45086.000000
45949.000000
46755.000000
47498.000000
48223.000000
49025.000000
49862.000000
50636.000000
51383.000000
52164.000000
52981.000000
53788.000000
54555.000000
55350.000000
56214.000000
57172.000000
58059.000000
58938.000000
59868.000000
60769.000000
61595.000000
62413.000000
63250.000000
64124.000000
64956.000000
65762.000000
66606.000000
67550.000000
68434.000000
69311.000000
70251.000000
71178.000000
72024.000000
72844.000000
73709.000000
74629.000000
75502.000000
76376.000000
77362.000000
78346.000000
79215.000000
80053.000000
80915.000000
81829.000000
82678.000000
83530.000000
84437.000000
85351.000000
86191.000000
87026.000000
87906.000000
88817.000000
89677.000000
90548.000000
91488.000000
92403.000000
93237.000000
94095.000000
95056.000000
96005.000000
96880.000000
97807.000000
98756.000000
99631.000000
100501.000000
101415.000000
102347.000000
103199.000000
104033.000000
104895.000000
105766.000000
106589.000000
107407.000000
108272.000000
109158.000000
109994.000000
110817.000000
111681.000000
112581.000000
113423.000000
114275.000000
115184.000000
116071.000000
116900.000000
117748.000000
118634.000000
119485.000000
120280.000000
121082.000000
121937.000000
122827.000000
123653.000000
124453.000000
125288.000000
126167.000000
126992.000000
127788.000000
128612.000000
129467.000000
130290.000000
131099.000000
131935.000000
132789.000000
133599.000000
134405.000000
135278.000000
136191.000000
137040.000000
137868.000000
138733.000000
139607.000000
140442.000000
141310.000000
142244.000000
143125.000000
144005.000000
144938.000000
145842.000000
146681.000000
147541.000000
148450.000000
149338.000000
150201.000000
151145.000000
152121.000000
153017.000000
153854.000000
154698.000000
155564.000000
156433.000000
157255.000000
158056.000000
158893.000000
159802.000000
160672.000000
161531.000000
162420.000000
163329.000000
164171.000000
165030.000000
165917.000000
166775.000000
167580.000000
168405.000000
169287.000000
170144.000000
170979.000000
171857.000000
172761.000000
173598.000000
174433.000000
175329.000000
176268.000000
177135.000000
177996.000000
178900.000000
179773.000000
180618.000000
181477.000000
182362.000000
183199.000000
184037.000000
184904.000000
185770.000000
186594.000000
187432.000000
188328.000000
189222.000000
190093.000000
190995.000000
191896.000000
192745.000000
193574.000000
194468.000000
195357.000000
196209.000000
197074.000000
198006.000000
198895.000000
199718.000000
200544.000000
201411.000000
202290.000000
203114.000000
203929.000000
204786.000000
205652.000000
206485.000000
207322.000000
208197.000000
209039.000000
209869.000000
210747.000000
211639.000000
212466.000000
213305.000000
214172.000000
215030.000000
215845.000000
216675.000000
217567.000000
218437.000000
219239.000000
220037.000000
220874.000000
221760.000000
222596.000000
223407.000000
224268.000000
225178.000000
226046.000000
226882.000000
227758.000000
228708.000000
229590.000000
230425.000000
231282.000000
232177.000000
233036.000000
233908.000000
234829.000000
235749.000000
236598.000000
237439.000000
238334.000000
239258.000000
240132.000000
241003.000000
241894.000000
242752.000000
243598.000000
244474.000000
245369.000000
246216.000000
247058.000000
247942.000000
248821.000000
249650.000000
250491.000000
251379.000000
252257.000000
253093.000000
253960.000000
254858.000000
255706.000000
256543.000000
257413.000000
258325.000000
259179.000000
260018.000000
260902.000000
261787.000000
262610.000000
263431.000000
264277.000000
265105.000000
265915.000000
266746.000000
267648.000000
268524.000000
269356.000000
270190.000000
271067.000000
271909.000000
272698.000000
273465.000000
274252.000000
275074.000000
275896.000000
276701.000000
277531.000000
278412.000000
279243.000000
280027.000000
280848.000000
281709.000000
282537.000000
283327.000000
284135.000000
284994.000000
285850.000000
286648.000000
287477.000000
288369.000000
289235.000000
290083.000000
290967.000000
291863.000000
292720.000000
293575.000000
294446.000000
295286.000000
296078.000000
296869.000000
297711.000000
298629.000000
299509.000000
300399.000000
301367.000000
302298.000000
303163.000000
304054.000000
304975.000000
305836.000000
306713.000000
307607.000000
308488.000000
309343.000000
310213.000000
311112.000000
311994.000000
312827.000000
313650.000000
314498.000000
315395.000000
316232.000000
317081.000000
317971.000000
318870.000000
319739.000000
320617.000000
321526.000000
322382.000000
323231.000000
324131.000000
325008.000000
325868.000000
326737.000000
327609.000000
328449.000000
329274.000000
330136.000000
331012.000000
331879.000000
332699.000000
333543.000000
334421.000000
335280.000000
336128.000000
337010.000000
337900.000000
338770.000000
339596.000000
340467.000000
341345.000000
342216.000000
343074.000000
343949.000000
344832.000000
345688.000000
346538.000000
347419.000000
348298.000000
349137.000000
349937.000000
350793.000000
351678.000000
352543.000000
353383.000000
354251.000000
355136.000000
356004.000000
356842.000000
357709.000000
358593.000000
359444.000000
360278.000000
361136.000000
362005.000000
362845.000000
363695.000000
364561.000000
365436.000000
366292.000000
367163.000000
368043.000000
368903.000000
369729.000000
370562.000000
371404.000000
372238.000000
373057.000000
373894.000000
374762.000000
375605.000000
376435.000000
377281.000000
378135.000000
378948.000000
379744.000000
380553.000000
381382.000000
382197.000000
383024.000000
383889.000000
384769.000000
385610.000000
386468.000000
387352.000000
388224.000000
389046.000000
389917.000000
390800.000000
391661.000000
392509.000000
393383.000000
394266.000000
395122.000000
395971.000000
396831.000000
397688.000000
398521.000000
399385.000000
400268.000000
401156.000000
401997.000000
402832.000000
403677.000000
404545.000000
405405.000000
406233.000000
407081.000000
407955.000000
408832.000000
409683.000000
410557.000000
411434.000000
412281.000000
413117.000000
413975.000000
414855.000000
415737.000000
416600.000000
417458.000000
418343.000000
419206.000000
420030.000000
420861.000000
421719.000000
422611.000000
423468.000000
424302.000000
425166.000000
426059.000000
426930.000000
427812.000000
428714.000000
429591.000000
430479.000000
431389.000000
432270.000000
433122.000000
433968.000000
434806.000000
435665.000000
436527.000000
437364.000000
438245.000000
439171.000000
440076.000000
440956.000000
441867.000000
442805.000000
443682.000000
444569.000000
445466.000000
446353.000000
447214.000000
448096.000000
448993.000000
449859.000000
450723.000000
451612.000000
452506.000000
453387.000000
454290.000000
455201.000000
456050.000000
456910.000000
457788.000000
458670.000000
459524.000000
460365.000000
461242.000000
462142.000000
463025.000000
463929.000000
464833.000000
465708.000000
466577.000000
467443.000000
468288.000000
469124.000000
469978.000000
470858.000000
471720.000000
472562.000000
473429.000000
474316.000000
475171.000000
475993.000000
476821.000000
477692.000000
478604.000000
479475.000000
480317.000000
481196.000000
482098.000000
482969.000000
483871.000000
484792.000000
485708.000000
486590.000000
487485.000000
488390.000000
489266.000000
490092.000000
490938.000000
491818.000000
492683.000000
493529.000000
494402.000000
495315.000000
496201.000000
497083.000000
497993.000000
498902.000000
499782.000000
500684.000000
501600.000000
502524.000000
503408.000000
504302.000000
505209.000000
506076.000000
506902.000000
507738.000000
508583.000000
509429.000000
510239.000000
511021.000000
511875.000000
512833.000000
513726.000000
514556.000000
515418.000000
516316.000000
517157.000000
517991.000000
518893.000000
519837.000000
520721.000000
521625.000000
522551.000000
523466.000000
524347.000000
525237.000000
526124.000000
526980.000000
527780.000000
528567.000000
529398.000000
530313.000000
531190.000000
532020.000000
532899.000000
533880.000000
534820.000000
535671.000000
536549.000000
537482.000000
538367.000000
539185.000000
540024.000000
540921.000000
541867.000000
542763.000000
543672.000000
544584.000000
545449.000000
546285.000000
547163.000000
548113.000000
549006.000000
549906.000000
550874.000000
551845.000000
552783.000000
553673.000000
554535.000000
555420.000000
556312.000000
557134.000000
557936.000000
558772.000000
559677.000000
560566.000000
561386.000000
562235.000000
563213.000000
564192.000000
565088.000000
566002.000000
566894.000000
567765.000000
568618.000000
569494.000000
570343.000000
571172.000000
572047.000000
572982.000000
573868.000000
574711.000000
575562.000000
576419.000000
577227.000000
577995.000000
578803.000000
579777.000000
580789.000000
581693.000000
582585.000000
583513.000000
584452.000000
585355.000000
586276.000000
587223.000000
588137.000000
589047.000000
589954.000000
590873.000000
591787.000000
592659.000000
593497.000000
594359.000000
595220.000000
596073.000000
596928.000000
597827.000000
598774.000000
599718.000000
600644.000000
601580.000000
602479.000000
603324.000000
604165.000000
605030.000000
605891.000000
606726.000000
607541.000000
608409.000000
609365.000000
610271.000000
611119.000000
612021.000000
613039.000000
613988.000000
614891.000000
615824.000000
616765.000000
617676.000000
618574.000000
619501.000000
620397.000000
621282.000000
622182.000000
623087.000000
623970.000000
624805.000000
625674.000000
626559.000000
627436.000000
628287.000000
629172.000000
630072.000000
630939.000000
631735.000000
632564.000000
633425.000000
634303.000000
635144.000000
636022.000000
636958.000000
637855.000000
638750.000000
639694.000000
640666.000000
641594.000000
642545.000000
643511.000000
644469.000000
645431.000000
646326.000000
647173.000000
648043.000000
648959.000000
649873.000000
650761.000000
651666.000000
652590.000000
653482.000000
654397.000000
655337.000000
656239.000000
657124.000000
658039.000000
658932.000000
659832.000000
660702.000000
661606.000000
662506.000000
663406.000000
664290.000000
665184.000000
666100.000000
666990.000000
667843.000000
668727.000000
669622.000000
670542.000000
671415.000000
672310.000000
673222.000000
674113.000000
674969.000000
675839.000000
676708.000000
677548.000000
678387.000000
679253.000000
680170.000000
681024.000000
681842.000000
682686.000000
683573.000000
684459.000000
685309.000000
686188.000000
687101.000000
688004.000000
688862.000000
689744.000000
690669.000000
691609.000000
692515.000000
693434.000000
694372.000000
695316.000000
696234.000000
697156.000000
698066.000000
698982.000000
699893.000000
700786.000000
701634.000000
702507.000000
703390.000000
704280.000000
705195.000000
706082.000000
706942.000000
707776.000000
708663.000000
709620.000000
710542.000000
711431.000000
712370.000000
713329.000000
714247.000000
715144.000000
716075.000000
717022.000000
717940.000000
718831.000000
719729.000000
720616.000000
721468.000000
722342.000000
723257.000000
724187.000000
725073.000000
725973.000000
726916.000000
727832.000000
728697.000000
729568.000000
730444.000000
731345.000000
732213.000000
733050.000000
733925.000000
734831.000000
735740.000000
736622.000000
737513.000000
738439.000000
739361.000000
740242.000000
741124.000000
742015.000000
742912.000000
743790.000000
744643.000000
745526.000000
746429.000000
747316.000000
748174.000000
749058.000000
749967.000000
750886.000000
751770.000000
752634.000000
753526.000000
754432.000000
755303.000000
756136.000000
756990.000000
757864.000000
758763.000000
759624.000000
760450.000000
761271.000000
762111.000000
762974.000000
763810.000000
764615.000000
765462.000000
766372.000000
767263.000000
768107.000000
768991.000000
769913.000000
770797.000000
771669.000000
772605.000000
773529.000000
774401.000000
775265.000000
776157.000000
777067.000000
777945.000000
778855.000000
779785.000000
780710.000000
781632.000000
782547.000000
783436.000000
784284.000000
785148.000000
786030.000000
786917.000000
787745.000000
788553.000000
789362.000000
790161.000000
790932.000000
791727.000000
792636.000000
793583.000000
794461.000000
795369.000000
796323.000000
797280.000000
798182.000000
799100.000000
800035.000000
800951.000000
801837.000000
802735.000000
803644.000000
804501.000000
805326.000000
806199.000000
807115.000000
808005.000000
808876.000000
809757.000000
810673.000000
811584.000000
812505.000000
813380.000000
814246.000000
815131.000000
816015.000000
816865.000000
817692.000000
818558.000000
819475.000000
820363.000000
821205.000000
822047.000000
822926.000000
823822.000000
824682.000000
825548.000000
826453.000000
827365.000000
828251.000000
829168.000000
830118.000000
831083.000000
832024.000000
832938.000000
833867.000000
834798.000000
835674.000000
836538.000000
837438.000000
838359.000000
839262.000000
840133.000000
841033.000000
841952.000000
842849.000000
843699.000000
844561.000000
845446.000000
846323.000000
847168.000000
848042.000000
848956.000000
849878.000000
850757.000000
851612.000000
852496.000000
853392.000000
854242.000000
855044.000000
855858.000000
856716.000000
857607.000000
858464.000000
859351.000000
860285.000000
861218.000000
862123.000000
863034.000000
863980.000000
864914.000000
865842.000000
866732.000000
867564.000000
868413.000000
869346.000000
870299.000000
871185.000000
872119.000000
873125.000000
874099.000000
875043.000000
876031.000000
877023.000000
877954.000000
878827.000000
879704.000000
880609.000000
881540.000000
882451.000000
883387.000000
884378.000000
885365.000000
886311.000000
887272.000000
888236.000000
889159.000000
890095.000000
891026.000000
891898.000000
892768.000000
893687.000000
894656.000000
895572.000000
896498.000000
897471.000000
898443.000000
899340.000000
900202.000000
901098.000000
902034.000000
902931.000000
903780.000000
904664.000000
905631.000000
906551.000000
907443.000000
908381.000000
909367.000000
910327.000000
911262.000000
912212.000000
913157.000000
914053.000000
914962.000000
915895.000000
916820.000000
917721.000000
918616.000000
919503.000000
920360.000000
921200.000000
922022.000000
922854.000000
923717.000000
924578.000000
925396.000000
926230.000000
927154.000000
928107.000000
929011.000000
929961.000000
930928.000000
931884.000000
932783.000000
933684.000000
934622.000000
935549.000000
936474.000000
937360.000000
938275.000000
939207.000000
940146.000000
941050.000000
941919.000000
942798.000000
943658.000000
944528.000000
945397.000000
946234.000000
947027.000000
947848.000000
948742.000000
949675.000000
950545.000000
951439.000000
952398.000000
953344.000000
954235.000000
955132.000000
956043.000000
956925.000000
957763.000000
958620.000000
959498.000000
960353.000000
961197.000000
962111.000000
963059.000000
963965.000000
964851.000000
965786.000000
966734.000000
967636.000000
968515.000000
969401.000000
970305.000000
971182.000000
972052.000000
972962.000000
973918.000000
974886.000000
975819.000000
976739.000000
977713.000000
978702.000000
979658.000000
980602.000000
981553.000000
982465.000000
983388.000000
984302.000000
985195.000000
986058.000000
986956.000000
987904.000000
988852.000000
989760.000000
990668.000000
991607.000000
992522.000000
993453.000000
994409.000000
995339.000000
996233.000000
997157.000000
998075.000000
998942.000000
999776.000000
1000626.000000
1001494.000000
1002356.000000
1003208.000000
1004101.000000
1005041.000000
1005933.000000
1006774.000000
1007651.000000
1008581.000000
1009495.000000
1010377.000000
1011306.000000
1012259.000000
1013157.000000
1014058.000000
1015010.000000
1015982.000000
1016909.000000
1017844.000000
1018808.000000
1019758.000000
1020676.000000
1021587.000000
1022508.000000
1023417.000000
1024316.000000
1025244.000000
1026185.000000
1027111.000000
1028000.000000
1028897.000000
1029800.000000
1030672.000000
1031532.000000
1032411.000000
1033292.000000
1034139.000000
1034982.000000
1035843.000000
1036704.000000
1037536.000000
1038369.000000
1039230.000000
1040097.000000
1040951.000000
1041759.000000
1042584.000000
1043443.000000
1044320.000000
1045155.000000
1045985.000000
1046940.000000
1047931.000000
1048816.000000
1049740.000000
1050729.000000
1051698.000000
1052616.000000
1053532.000000
1054457.000000
1055410.000000
1056339.000000
1057250.000000
1058206.000000
1059190.000000
1060169.000000
1061108.000000
1062040.000000
1062982.000000
1063933.000000
1064842.000000
1065742.000000
1066684.000000
1067661.000000
1068624.000000
1069535.000000
1070439.000000
1071357.000000
1072294.000000
1073247.000000
1074184.000000
1075110.000000
1076060.000000
1076999.000000
1077888.000000
1078741.000000
1079604.000000
1080477.000000
1081348.000000
1082175.000000
1083021.000000
1083941.000000
1084873.000000
1085726.000000
1086608.000000
1087559.000000
1088480.000000
1089357.000000
1090285.000000
1091222.000000
1092107.000000
1093000.000000
1093932.000000
1094861.000000
1095739.000000
1096614.000000
1097519.000000
1098428.000000
1099294.000000
1100169.000000
1101079.000000
1101999.000000
1102884.000000
1103780.000000
1104697.000000
1105618.000000
1106533.000000
1107435.000000
1108319.000000
1109201.000000
1110102.000000
1110958.000000
1111757.000000
1112558.000000
1113451.000000
1114368.000000
1115189.000000
1115962.000000
1116791.000000
1117715.000000
1118602.000000
1119407.000000
1120219.000000
1121075.000000
1121936.000000
1122738.000000
1123537.000000
1124370.000000
1125207.000000
1126007.000000
1126796.000000
1127618.000000
1128473.000000
1129283.000000
1130069.000000
1130884.000000
1131723.000000
1132541.000000
1133362.000000
1134218.000000
1135071.000000
1135896.000000
1136761.000000
1137657.000000
1138536.000000
1139372.000000
1140191.000000
1141025.000000
1141865.000000
1142675.000000
1143466.000000
1144272.000000
1145112.000000
1145914.000000
1146666.000000
1147430.000000
1148247.000000
1149084.000000
1149876.000000
1150635.000000
1151441.000000
1152284.000000
1153088.000000
1153850.000000
1154626.000000
1155452.000000
1156270.000000
1157051.000000
1157836.000000
1158672.000000
1159551.000000
1160377.000000
1161197.000000
1162106.000000
1163073.000000
1163965.000000
1164874.000000
1165801.000000
1166751.000000
1167668.000000
1168527.000000
1169405.000000
1170285.000000
1171156.000000
1171997.000000
1172840.000000
1173662.000000
1174465.000000
1175277.000000
1176043.000000
1176772.000000
1177520.000000
1178272.000000
1179004.000000
1179752.000000
1180534.000000
1181320.000000
1182084.000000
1182823.000000
1183582.000000
1184369.000000
1185173.000000
1185944.000000
1186712.000000
1187516.000000
1188349.000000
1189162.000000
1189947.000000
1190753.000000
1191609.000000
1192476.000000
1193301.000000
1194103.000000
1194927.000000
