ECG (ms)
535.000000
1520.000000
2473.000000
3411.000000
4371.000000
5332.000000
6299.000000
7270.000000
8234.000000
9230.000000
10227.000000
11225.000000
12239.000000
13255.000000
14250.000000
15259.000000
16264.000000
17249.000000
18225.000000
19196.000000
20156.000000
21122.000000
22073.000000
23012.000000
23958.000000
24896.000000
25817.000000
26745.000000
27679.000000
28601.000000
29536.000000
30465.000000
31394.000000
32336.000000
33285.000000
34229.000000
35184.000000
36138.000000
37093.000000
38064.000000
39028.000000
39993.000000
40979.000000
41973.000000
42953.000000
43934.000000
44912.000000
45868.000000
46865.000000
47864.000000
48847.000000
49844.000000
50844.000000
51832.000000
52812.000000
53793.000000
54750.000000
55711.000000
56684.000000
57652.000000
58625.000000
59605.000000
60573.000000
61541.000000
62507.000000
63451.000000
64408.000000
65381.000000
66348.000000
67337.000000
68329.000000
69308.000000
70298.000000
71286.000000
72253.000000
73226.000000
74216.000000
75200.000000
76202.000000
77188.000000
78147.000000
79136.000000
80115.000000
81075.000000
82047.000000
83014.000000
83986.000000
84981.000000
85992.000000
86983.000000
87993.000000
88996.000000
89980.000000
90984.000000
91984.000000
92964.000000
93960.000000
94940.000000
95901.000000
96869.000000
97841.000000
98801.000000
99775.000000
100753.000000
101709.000000
102673.000000
103628.000000
104567.000000
105516.000000
106462.000000
107393.000000
108338.000000
109282.000000
110215.000000
111157.000000
112097.000000
113024.000000
113965.000000
114903.000000
115829.000000
116760.000000
117700.000000
118628.000000
119564.000000
120536.000000
121514.000000
122484.000000
123469.000000
124466.000000
125434.000000
126422.000000
127417.000000
128400.000000
129367.000000
130338.000000
131307.000000
132277.000000
133228.000000
134195.000000
135171.000000
136135.000000
137102.000000
138083.000000
139058.000000
140022.000000
141015.000000
142024.000000
143019.000000
144022.000000
145035.000000
146028.000000
147015.000000
148004.000000
148989.000000
150003.000000
151018.000000
152010.000000
153007.000000
154020.000000
155012.000000
156016.000000
157018.000000
158019.000000
159052.000000
160090.000000
161088.000000
162092.000000
163087.000000
164060.000000
165045.000000
166039.000000
167012.000000
167997.000000
168993.000000
169939.000000
170874.000000
171800.000000
172719.000000
173625.000000
174561.000000
175531.000000
176519.000000
177517.000000
178507.000000
179528.000000
180576.000000
181634.000000
182730.000000
183811.000000
184863.000000
185915.000000
186938.000000
187952.000000
188962.000000
189945.000000
190942.000000
191930.000000
192900.000000
193887.000000
194859.000000
195823.000000
196801.000000
197776.000000
198765.000000
199772.000000
200766.000000
201750.000000
202724.000000
203668.000000
204619.000000
205570.000000
206514.000000
207479.000000
208441.000000
209395.000000
210364.000000
211329.000000
212274.000000
213227.000000
214171.000000
215106.000000
216046.000000
216976.000000
217901.000000
218835.000000
219766.000000
220692.000000
221626.000000
222550.000000
223479.000000
224404.000000
225317.000000
226241.000000
227163.000000
228075.000000
229007.000000
229934.000000
230854.000000
231785.000000
232708.000000
233629.000000
234566.000000
235512.000000
236449.000000
237392.000000
238328.000000
239253.000000
240193.000000
241132.000000
242065.000000
243011.000000
243954.000000
244905.000000
245859.000000
246796.000000
247744.000000
248686.000000
249618.000000
250558.000000
251490.000000
252419.000000
253362.000000
254303.000000
255252.000000
256212.000000
257157.000000
258114.000000
259061.000000
259993.000000
260934.000000
261873.000000
262818.000000
263779.000000
264744.000000
265710.000000
266703.000000
267694.000000
268707.000000
269770.000000
270837.000000
271958.000000
273083.000000
274152.000000
275224.000000
276282.000000
277319.000000
278367.000000
279384.000000
280438.000000
281480.000000
282500.000000
283537.000000
284561.000000
285553.000000
286545.000000
287534.000000
288496.000000
289468.000000
290440.000000
291413.000000
292429.000000
293461.000000
294493.000000
295515.000000
296548.000000
297559.000000
298570.000000
299583.000000
300576.000000
301592.000000
302633.000000
303646.000000
304695.000000
305745.000000
306754.000000
307793.000000
308846.000000
309857.000000
310875.000000
311887.000000
312861.000000
313853.000000
314856.000000
315844.000000
316849.000000
317862.000000
318854.000000
319853.000000
320837.000000
321800.000000
322772.000000
323746.000000
324705.000000
325678.000000
326643.000000
327578.000000
328522.000000
329469.000000
330409.000000
331364.000000
332329.000000
333281.000000
334254.000000
335233.000000
336237.000000
337252.000000
338269.000000
339263.000000
340276.000000
341299.000000
342297.000000
343316.000000
344356.000000
345373.000000
346410.000000
347447.000000
348461.000000
349477.000000
350486.000000
351491.000000
352507.000000
353515.000000
354503.000000
355492.000000
356465.000000
357434.000000
358429.000000
359412.000000
360380.000000
361388.000000
362390.000000
363375.000000
364375.000000
365367.000000
366348.000000
367345.000000
368341.000000
369322.000000
370325.000000
371354.000000
372329.000000
373291.000000
374258.000000
375218.000000
376184.000000
377167.000000
378154.000000
379154.000000
380159.000000
381179.000000
382218.000000
383234.000000
384244.000000
385251.000000
386239.000000
387251.000000
388281.000000
389309.000000
390347.000000
391350.000000
392345.000000
393303.000000
394233.000000
395163.000000
396092.000000
397037.000000
398003.000000
398970.000000
399946.000000
400928.000000
401892.000000
402859.000000
403812.000000
404753.000000
405693.000000
406622.000000
407545.000000
408477.000000
409399.000000
410329.000000
411270.000000
412202.000000
413152.000000
414101.000000
415040.000000
415988.000000
416938.000000
417864.000000
418795.000000
419716.000000
420630.000000
421568.000000
422520.000000
423462.000000
424411.000000
425350.000000
426275.000000
427210.000000
428135.000000
429061.000000
430002.000000
430934.000000
431863.000000
432802.000000
433729.000000
434657.000000
435595.000000
436529.000000
437483.000000
438436.000000
439379.000000
440336.000000
441286.000000
442221.000000
443173.000000
444123.000000
445062.000000
446024.000000
446988.000000
447948.000000
448931.000000
449919.000000
450898.000000
451906.000000
452904.000000
453883.000000
454875.000000
455850.000000
456813.000000
457781.000000
458737.000000
459698.000000
460667.000000
461637.000000
462613.000000
463611.000000
464588.000000
465588.000000
466617.000000
467634.000000
468674.000000
469702.000000
470698.000000
471699.000000
472706.000000
473716.000000
474721.000000
475732.000000
476730.000000
477747.000000
478755.000000
479733.000000
480722.000000
481721.000000
482694.000000
483681.000000
484674.000000
485651.000000
486639.000000
487630.000000
488604.000000
489597.000000
490611.000000
491603.000000
492607.000000
493619.000000
494623.000000
495635.000000
496639.000000
497631.000000
498631.000000
499621.000000
500603.000000
501601.000000
502599.000000
503593.000000
504604.000000
505630.000000
506626.000000
507625.000000
508611.000000
509567.000000
510534.000000
511500.000000
512470.000000
513428.000000
514376.000000
515322.000000
516256.000000
517205.000000
518161.000000
519119.000000
520093.000000
521067.000000
522042.000000
523013.000000
523968.000000
524930.000000
525873.000000
526813.000000
527753.000000
528676.000000
529616.000000
530550.000000
531477.000000
532425.000000
533375.000000
534322.000000
535317.000000
536299.000000
537267.000000
538256.000000
539232.000000
540184.000000
541142.000000
542089.000000
543025.000000
543965.000000
544885.000000
545795.000000
546711.000000
547617.000000
548519.000000
549430.000000
550333.000000
551229.000000
552135.000000
553060.000000
553989.000000
554945.000000
555920.000000
556891.000000
557886.000000
558872.000000
559843.000000
560822.000000
561790.000000
562733.000000
563684.000000
564623.000000
565550.000000
566500.000000
567446.000000
568387.000000
569362.000000
570347.000000
571336.000000
572343.000000
573344.000000
574326.000000
575307.000000
576269.000000
577200.000000
578135.000000
579063.000000
579985.000000
580941.000000
581898.000000
582845.000000
583815.000000
584786.000000
585740.000000
586704.000000
587655.000000
588595.000000
589538.000000
590476.000000
591417.000000
592399.000000
593370.000000
594332.000000
595297.000000
596257.000000
597197.000000
598154.000000
599097.000000
600039.000000
601000.000000
601960.000000
602969.000000
604006.000000
605034.000000
606085.000000
607155.000000
608200.000000
609274.000000
610338.000000
611383.000000
612450.000000
613525.000000
614561.000000
615624.000000
616673.000000
617674.000000
618695.000000
619710.000000
620705.000000
621726.000000
622742.000000
623723.000000
624712.000000
625689.000000
626651.000000
627635.000000
628623.000000
629600.000000
630598.000000
631600.000000
632584.000000
633590.000000
634591.000000
635571.000000
636565.000000
637562.000000
638543.000000
639550.000000
640564.000000
641547.000000
642554.000000
643583.000000
644549.000000
645495.000000
646472.000000
647451.000000
648432.000000
649406.000000
650395.000000
651383.000000
652378.000000
653409.000000
654455.000000
655527.000000
656615.000000
657676.000000
658705.000000
659726.000000
660725.000000
661716.000000
662690.000000
663624.000000
664559.000000
665475.000000
666381.000000
667297.000000
668209.000000
669122.000000
670050.000000
670975.000000
671893.000000
672826.000000
673748.000000
674662.000000
675583.000000
676504.000000
677420.000000
678363.000000
679306.000000
680252.000000
681217.000000
682187.000000
683138.000000
684099.000000
685045.000000
685970.000000
686911.000000
687849.000000
688773.000000
689716.000000
690662.000000
691597.000000
692539.000000
693472.000000
694391.000000
695318.000000
696242.000000
697158.000000
698090.000000
699028.000000
699952.000000
700886.000000
701817.000000
702743.000000
703688.000000
704642.000000
705587.000000
706538.000000
707498.000000
708457.000000
709444.000000
710428.000000
711396.000000
712369.000000
713350.000000
714323.000000
715271.000000
716222.000000
717170.000000
718098.000000
719044.000000
719995.000000
720925.000000
721868.000000
722809.000000
723746.000000
724692.000000
725643.000000
726583.000000
727543.000000
728500.000000
729437.000000
730391.000000
731364.000000
732333.000000
733318.000000
734319.000000
735306.000000
736331.000000
737336.000000
738289.000000
739262.000000
740244.000000
741212.000000
742173.000000
743157.000000
744152.000000
745189.000000
746249.000000
747322.000000
748367.000000
749436.000000
750498.000000
751534.000000
752594.000000
753637.000000
754625.000000
755611.000000
756580.000000
757535.000000
758511.000000
759475.000000
760440.000000
761428.000000
762421.000000
763402.000000
764411.000000
765422.000000
766409.000000
767409.000000
768415.000000
769407.000000
770449.000000
771498.000000
772515.000000
773562.000000
774616.000000
775621.000000
776651.000000
777667.000000
778663.000000
779684.000000
780702.000000
781693.000000
782689.000000
783693.000000
784660.000000
785629.000000
786605.000000
787563.000000
788538.000000
789526.000000
790507.000000
791499.000000
792505.000000
793486.000000
794485.000000
795481.000000
796465.000000
797458.000000
798462.000000
799447.000000
800448.000000
801449.000000
802437.000000
803440.000000
804441.000000
805413.000000
806393.000000
807385.000000
808362.000000
809339.000000
810325.000000
811312.000000
812300.000000
813312.000000
814312.000000
815300.000000
816304.000000
817298.000000
818270.000000
819248.000000
820223.000000
821184.000000
822159.000000
823145.000000
824132.000000
825122.000000
826128.000000
827134.000000
828148.000000
829184.000000
830188.000000
831192.000000
832189.000000
833165.000000
834168.000000
835222.000000
836288.000000
837413.000000
838492.000000
839540.000000
840616.000000
841700.000000
842748.000000
843802.000000
844832.000000
845844.000000
846860.000000
847848.000000
848844.000000
849872.000000
850883.000000
851899.000000
852924.000000
853922.000000
854941.000000
855948.000000
856941.000000
857963.000000
858983.000000
859978.000000
860979.000000
861972.000000
862964.000000
863959.000000
864932.000000
865916.000000
866916.000000
867955.000000
869016.000000
870068.000000
871097.000000
872138.000000
873166.000000
874162.000000
875187.000000
876237.000000
877279.000000
878356.000000
879412.000000
880432.000000
881452.000000
882471.000000
883465.000000
884469.000000
885496.000000
886501.000000
887530.000000
888567.000000
889585.000000
890609.000000
891605.000000
892597.000000
893602.000000
894607.000000
895612.000000
896641.000000
897685.000000
898693.000000
899679.000000
900673.000000
901669.000000
902695.000000
903734.000000
904764.000000
905772.000000
906787.000000
907800.000000
908795.000000
909787.000000
910777.000000
911741.000000
912696.000000
913624.000000
914529.000000
915410.000000
916291.000000
917182.000000
918089.000000
918996.000000
919924.000000
920854.000000
921781.000000
922725.000000
923674.000000
924611.000000
925567.000000
926542.000000
927494.000000
928433.000000
929412.000000
930410.000000
931430.000000
932463.000000
933503.000000
934541.000000
935600.000000
936653.000000
937721.000000
938773.000000
939808.000000
940846.000000
941857.000000
942837.000000
943829.000000
944796.000000
945779.000000
946761.000000
947740.000000
948728.000000
949712.000000
950666.000000
951632.000000
952589.000000
953525.000000
954466.000000
955397.000000
956331.000000
957297.000000
958266.000000
959241.000000
960257.000000
961264.000000
962265.000000
963271.000000
964241.000000
965211.000000
966180.000000
967150.000000
968109.000000
969066.000000
970039.000000
971017.000000
971976.000000
972943.000000
973911.000000
974862.000000
975827.000000
976794.000000
977743.000000
978706.000000
979664.000000
980610.000000
981572.000000
982544.000000
983509.000000
984487.000000
985465.000000
986427.000000
987416.000000
988416.000000
989391.000000
990374.000000
991358.000000
992316.000000
993287.000000
994254.000000
995206.000000
996177.000000
997142.000000
998088.000000
999051.000000
1000015.000000
1000968.000000
1001933.000000
1002901.000000
1003852.000000
1004813.000000
1005758.000000
1006680.000000
1007610.000000
1008537.000000
1009453.000000
1010386.000000
1011329.000000
1012259.000000
1013204.000000
1014145.000000
1015071.000000
1016004.000000
1016933.000000
1017851.000000
1018776.000000
1019697.000000
1020609.000000
1021534.000000
1022462.000000
1023382.000000
1024321.000000
1025257.000000
1026182.000000
1027123.000000
1028062.000000
1028986.000000
1029922.000000
1030858.000000
1031779.000000
1032715.000000
1033651.000000
1034581.000000
1035522.000000
1036463.000000
1037388.000000
1038321.000000
1039246.000000
1040154.000000
1041079.000000
1042013.000000
1042950.000000
1043893.000000
1044844.000000
1045776.000000
1046716.000000
1047657.000000
1048577.000000
1049517.000000
1050460.000000
1051393.000000
1052348.000000
1053305.000000
1054250.000000
1055219.000000
1056197.000000
1057164.000000
1058148.000000
1059178.000000
1060201.000000
1061212.000000
1062251.000000
1063299.000000
1064314.000000
1065334.000000
1066345.000000
1067335.000000
1068342.000000
1069355.000000
1070349.000000
1071357.000000
1072364.000000
1073345.000000
1074340.000000
1075344.000000
1076340.000000
1077361.000000
1078387.000000
1079383.000000
1080381.000000
1081397.000000
1082378.000000
1083374.000000
1084353.000000
1085290.000000
1086231.000000
1087176.000000
1088107.000000
1089055.000000
1090011.000000
1090957.000000
1091927.000000
1092924.000000
1093919.000000
1094928.000000
1095921.000000
1096905.000000
1097894.000000
1098880.000000
1099857.000000
1100834.000000
1101799.000000
1102749.000000
1103710.000000
1104670.000000
1105619.000000
1106589.000000
1107559.000000
1108517.000000
1109483.000000
1110445.000000
1111402.000000
1112384.000000
1113402.000000
1114380.000000
1115347.000000
1116344.000000
1117347.000000
1118378.000000
1119418.000000
1120470.000000
1121520.000000
1122563.000000
1123574.000000
1124597.000000
1125627.000000
1126643.000000
1127678.000000
1128694.000000
1129696.000000
1130693.000000
1131664.000000
1132647.000000
1133633.000000
1134603.000000
1135586.000000
1136566.000000
1137534.000000
1138518.000000
1139490.000000
1140450.000000
1141426.000000
1142414.000000
1143384.000000
1144379.000000
1145386.000000
1146388.000000
1147400.000000
1148383.000000
1149373.000000
1150365.000000
1151342.000000
1152330.000000
1153331.000000
1154310.000000
1155303.000000
1156300.000000
1157282.000000
1158255.000000
1159237.000000
1160207.000000
1161155.000000
1162126.000000
1163110.000000
1164079.000000
1165066.000000
1166061.000000
1167039.000000
1168025.000000
1169006.000000
1169966.000000
1170942.000000
1171924.000000
1172891.000000
1173875.000000
1174864.000000
1175831.000000
1176799.000000
1177767.000000
1178719.000000
1179700.000000
1180684.000000
1181647.000000
1182622.000000
1183601.000000
1184563.000000
1185535.000000
1186514.000000
1187470.000000
1188439.000000
1189405.000000
1190356.000000
1191324.000000
1192292.000000
1193246.000000
1194216.000000
1195193.000000
1196145.000000
1197110.000000
1198096.000000
1199082.000000
1200069.000000
1201072.000000
1202067.000000
1203029.000000
1204000.000000
1204987.000000
1205974.000000
1206989.000000
1208016.000000
1209019.000000
1210017.000000
1211026.000000
1212024.000000
1212999.000000
1213994.000000
1214995.000000
1215986.000000
1216998.000000
1218031.000000
1219035.000000
1220067.000000
1221122.000000
1222162.000000
1223193.000000
1224241.000000
1225252.000000
1226283.000000
1227312.000000
1228305.000000
1229290.000000
1230278.000000
1231241.000000
1232211.000000
1233188.000000
1234153.000000
1235132.000000
1236113.000000
1237059.000000
1238004.000000
1238974.000000
1239954.000000
1240934.000000
1241923.000000
1242918.000000
1243910.000000
1244916.000000
1245915.000000
1246892.000000
1247894.000000
1248910.000000
1249920.000000
1250936.000000
1251956.000000
1252920.000000
1253882.000000
1254834.000000
1255770.000000
1256727.000000
1257688.000000
1258649.000000
1259640.000000
1260648.000000
1261638.000000
1262636.000000
1263619.000000
1264583.000000
1265558.000000
1266543.000000
1267513.000000
1268519.000000
1269527.000000
1270520.000000
1271539.000000
1272561.000000
1273560.000000
1274556.000000
1275578.000000
1276609.000000
1277615.000000
1278633.000000
1279650.000000
1280657.000000
1281674.000000
1282681.000000
1283677.000000
1284664.000000
1285632.000000
1286615.000000
1287608.000000
1288583.000000
1289568.000000
1290566.000000
1291537.000000
1292525.000000
1293514.000000
1294490.000000
1295482.000000
1296471.000000
1297442.000000
1298426.000000
1299410.000000
1300375.000000
1301344.000000
1302311.000000
1303261.000000
1304215.000000
1305174.000000
1306122.000000
1307075.000000
1308044.000000
1308997.000000
1309967.000000
1310948.000000
1311908.000000
1312869.000000
1313847.000000
1314836.000000
1315801.000000
1316782.000000
1317769.000000
1318747.000000
1319725.000000
1320702.000000
1321664.000000
1322642.000000
1323619.000000
1324599.000000
1325600.000000
1326611.000000
1327602.000000
1328593.000000
1329567.000000
1330545.000000
1331534.000000
1332520.000000
1333484.000000
1334449.000000
1335426.000000
1336411.000000
1337394.000000
1338400.000000
1339417.000000
1340425.000000
1341442.000000
1342465.000000
1343454.000000
1344447.000000
1345435.000000
1346396.000000
1347369.000000
1348358.000000
1349348.000000
1350316.000000
1351305.000000
1352285.000000
1353243.000000
1354189.000000
1355120.000000
1356029.000000
1356922.000000
1357798.000000
1358689.000000
1359592.000000
1360503.000000
1361444.000000
1362404.000000
1363353.000000
1364322.000000
1365292.000000
1366250.000000
1367226.000000
1368214.000000
1369162.000000
1370101.000000
1371072.000000
1372045.000000
1373030.000000
1374023.000000
1375039.000000
1376067.000000
1377110.000000
1378148.000000
1379182.000000
1380215.000000
1381247.000000
1382277.000000
1383300.000000
1384322.000000
1385331.000000
1386305.000000
1387312.000000
1388309.000000
1389321.000000
1390332.000000
1391318.000000
1392307.000000
1393278.000000
1394238.000000
1395203.000000
1396167.000000
1397118.000000
1398092.000000
1399071.000000
1400038.000000
1401026.000000
1402008.000000
1402962.000000
1403915.000000
1404858.000000
1405787.000000
1406722.000000
1407659.000000
1408605.000000
1409563.000000
1410526.000000
1411475.000000
1412429.000000
1413386.000000
1414330.000000
1415279.000000
1416237.000000
1417197.000000
1418170.000000
1419143.000000
1420103.000000
1421088.000000
1422095.000000
1423098.000000
1424124.000000
1425137.000000
1426113.000000
1427097.000000
1428088.000000
1429067.000000
1430066.000000
1431069.000000
1432060.000000
1433043.000000
1434048.000000
1435052.000000
1436040.000000
1437037.000000
1438021.000000
1438979.000000
1439939.000000
1440901.000000
1441856.000000
1442838.000000
1443837.000000
1444827.000000
1445830.000000
1446823.000000
1447775.000000
1448737.000000
1449698.000000
1450656.000000
1451644.000000
1452642.000000
1453633.000000
1454633.000000
1455634.000000
1456612.000000
1457607.000000
1458620.000000
1459622.000000
1460631.000000
1461657.000000
1462642.000000
1463601.000000
1464580.000000
1465559.000000
1466534.000000
1467552.000000
1468593.000000
1469615.000000
1470648.000000
1471673.000000
1472662.000000
1473655.000000
1474639.000000
1475602.000000
1476589.000000
1477583.000000
1478565.000000
1479564.000000
1480552.000000
1481515.000000
1482484.000000
1483448.000000
1484401.000000
1485374.000000
1486351.000000
1487320.000000
1488321.000000
1489323.000000
1490312.000000
1491308.000000
1492282.000000
1493235.000000
1494202.000000
1495164.000000
1496112.000000
1497081.000000
1498060.000000
1499029.000000
1500025.000000
1501029.000000
1502016.000000
1503011.000000
1504002.000000
1504965.000000
1505944.000000
1506949.000000
1507975.000000
1508958.000000
1509943.000000
1510931.000000
1511893.000000
1512836.000000
1513775.000000
1514705.000000
1515622.000000
1516557.000000
1517492.000000
1518414.000000
1519353.000000
1520300.000000
1521238.000000
1522199.000000
1523173.000000
1524142.000000
1525120.000000
1526116.000000
1527099.000000
1528101.000000
1529103.000000
1530075.000000
1531047.000000
1532018.000000
1532965.000000
1533932.000000
1534917.000000
1535892.000000
1536897.000000
1537902.000000
1538911.000000
1539915.000000
1540862.000000
1541805.000000
1542755.000000
1543710.000000
1544683.000000
1545686.000000
1546695.000000
1547713.000000
1548737.000000
1549751.000000
1550721.000000
1551699.000000
1552670.000000
1553629.000000
1554604.000000
1555597.000000
1556572.000000
1557572.000000
1558572.000000
1559565.000000
1560568.000000
1561578.000000
1562589.000000
1563630.000000
1564698.000000
1565728.000000
1566766.000000
1567806.000000
1568822.000000
1569830.000000
1570827.000000
1571803.000000
1572774.000000
1573747.000000
1574719.000000
1575712.000000
1576722.000000
1577711.000000
1578718.000000
1579730.000000
1580713.000000
1581700.000000
1582700.000000
1583667.000000
1584622.000000
1585581.000000
1586524.000000
1587445.000000
1588371.000000
1589332.000000
1590292.000000
1591253.000000
1592226.000000
1593222.000000
1594216.000000
1595200.000000
1596178.000000
1597135.000000
1598056.000000
1598951.000000
1599849.000000
1600751.000000
1601652.000000
1602579.000000
1603516.000000
1604450.000000
1605403.000000
1606369.000000
1607331.000000
1608306.000000
1609290.000000
1610264.000000
1611262.000000
1612265.000000
1613250.000000
1614250.000000
1615250.000000
1616237.000000
1617232.000000
1618230.000000
1619223.000000
1620236.000000
1621241.000000
1622216.000000
1623196.000000
1624182.000000
1625152.000000
1626154.000000
1627183.000000
1628183.000000
1629189.000000
1630202.000000
1631193.000000
1632214.000000
1633217.000000
1634203.000000
1635205.000000
1636209.000000
1637210.000000
1638238.000000
1639278.000000
1640325.000000
1641385.000000
1642424.000000
1643467.000000
1644537.000000
1645581.000000
1646574.000000
1647574.000000
1648567.000000
1649541.000000
1650536.000000
1651540.000000
1652532.000000
1653544.000000
1654548.000000
1655538.000000
1656544.000000
1657563.000000
1658578.000000
1659606.000000
1660648.000000
1661664.000000
1662713.000000
1663787.000000
1664831.000000
1665883.000000
1666935.000000
1667962.000000
1668994.000000
1670036.000000
1671058.000000
1672072.000000
1673089.000000
1674088.000000
1675111.000000
1676152.000000
1677156.000000
1678180.000000
1679211.000000
1680214.000000
1681221.000000
1682226.000000
1683215.000000
1684230.000000
1685275.000000
1686307.000000
1687367.000000
1688434.000000
1689475.000000
1690533.000000
1691588.000000
1692619.000000
1693660.000000
1694691.000000
1695719.000000
1696769.000000
1697830.000000
1698876.000000
1699918.000000
1700936.000000
1701910.000000
1702906.000000
1703889.000000
1704829.000000
1705789.000000
1706753.000000
1707712.000000
1708690.000000
1709660.000000
1710616.000000
1711593.000000
1712567.000000
1713530.000000
1714510.000000
1715495.000000
1716467.000000
1717436.000000
1718411.000000
1719380.000000
1720366.000000
1721358.000000
1722332.000000
1723328.000000
1724321.000000
1725290.000000
1726272.000000
1727256.000000
1728239.000000
1729231.000000
1730215.000000
1731187.000000
1732166.000000
1733136.000000
1734078.000000
1735005.000000
1735938.000000
1736872.000000
1737806.000000
1738744.000000
1739697.000000
1740650.000000
1741615.000000
1742582.000000
1743550.000000
1744530.000000
1745525.000000
1746507.000000
1747506.000000
1748507.000000
1749518.000000
1750538.000000
1751571.000000
1752624.000000
1753687.000000
1754703.000000
1755711.000000
1756705.000000
1757672.000000
1758649.000000
1759643.000000
1760617.000000
1761614.000000
1762616.000000
1763607.000000
1764621.000000
1765640.000000
1766642.000000
1767655.000000
1768653.000000
1769656.000000
1770640.000000
1771597.000000
1772558.000000
1773522.000000
1774470.000000
1775430.000000
1776396.000000
1777348.000000
1778319.000000
1779294.000000
1780248.000000
1781195.000000
1782148.000000
1783096.000000
1784046.000000
1785022.000000
1786030.000000
1787009.000000
1788015.000000
1789033.000000
1790034.000000
1791050.000000
1792081.000000
1793087.000000
1794096.000000
1795119.000000
1796153.000000
1797179.000000
1798209.000000
1799236.000000
1800244.000000
1801272.000000
1802301.000000
1803314.000000
1804342.000000
1805368.000000
1806364.000000
1807353.000000
1808337.000000
1809290.000000
1810263.000000
1811255.000000
1812238.000000
1813255.000000
1814263.000000
1815259.000000
1816261.000000
1817263.000000
1818241.000000
1819232.000000
1820231.000000
1821222.000000
1822235.000000
1823259.000000
1824253.000000
1825255.000000
1826245.000000
1827214.000000
1828191.000000
1829158.000000
1830114.000000
1831093.000000
1832074.000000
1833045.000000
1834012.000000
1834984.000000
1835958.000000
1836924.000000
1837928.000000
1838962.000000
1839971.000000
1841003.000000
1842050.000000
1843096.000000
1844128.000000
1845154.000000
1846187.000000
1847227.000000
1848273.000000
1849351.000000
1850423.000000
1851434.000000
1852433.000000
1853417.000000
1854374.000000
1855353.000000
1856333.000000
1857317.000000
1858324.000000
1859311.000000
1860296.000000
1861297.000000
1862298.000000
1863283.000000
1864269.000000
1865246.000000
1866202.000000
1867185.000000
1868190.000000
1869195.000000
1870220.000000
1871249.000000
1872276.000000
1873316.000000
1874346.000000
1875345.000000
1876353.000000
1877344.000000
1878299.000000
1879228.000000
1880151.000000
1881055.000000
1881940.000000
1882808.000000
1883684.000000
1884564.000000
1885456.000000
1886369.000000
1887284.000000
1888195.000000
1889124.000000
1890063.000000
1890990.000000
1891936.000000
1892892.000000
1893837.000000
1894795.000000
1895760.000000
1896723.000000
1897673.000000
1898637.000000
1899613.000000
1900565.000000
1901529.000000
1902499.000000
1903447.000000
1904401.000000
1905369.000000
1906326.000000
1907259.000000
1908204.000000
1909142.000000
1910067.000000
1911011.000000
1911952.000000
1912896.000000
1913856.000000
1914809.000000
1915750.000000
1916708.000000
1917669.000000
1918613.000000
1919569.000000
1920514.000000
1921442.000000
1922376.000000
1923297.000000
1924213.000000
1925136.000000
1926055.000000
1926968.000000
1927889.000000
1928804.000000
1929714.000000
1930640.000000
1931565.000000
1932485.000000
1933429.000000
1934378.000000
1935314.000000
1936269.000000
1937216.000000
1938143.000000
1939084.000000
1940019.000000
1940934.000000
1941870.000000
1942829.000000
1943777.000000
1944741.000000
1945732.000000
1946708.000000
1947690.000000
1948669.000000
1949632.000000
1950599.000000
1951569.000000
1952531.000000
1953495.000000
1954465.000000
1955409.000000
1956364.000000
1957322.000000
1958265.000000
1959215.000000
1960162.000000
1961095.000000
1962045.000000
1963007.000000
1963965.000000
1964936.000000
1965911.000000
1966871.000000
1967837.000000
1968809.000000
1969735.000000
1970657.000000
1971577.000000
1972495.000000
1973433.000000
1974370.000000
1975295.000000
1976245.000000
1977211.000000
1978169.000000
1979165.000000
1980186.000000
1981186.000000
1982208.000000
1983248.000000
1984251.000000
1985266.000000
1986274.000000
1987258.000000
1988263.000000
1989285.000000
1990279.000000
1991288.000000
1992301.000000
1993287.000000
1994280.000000
1995259.000000
1996204.000000
1997156.000000
1998099.000000
1999030.000000
1999975.000000
2000923.000000
2001857.000000
2002808.000000
2003757.000000
2004690.000000
2005635.000000
2006591.000000
2007545.000000
2008521.000000
2009525.000000
2010534.000000
2011579.000000
2012638.000000
2013667.000000
2014695.000000
2015713.000000
2016704.000000
2017697.000000
2018690.000000
2019660.000000
2020625.000000
2021598.000000
2022552.000000
2023520.000000
2024504.000000
2025484.000000
2026480.000000
2027492.000000
2028497.000000
2029464.000000
2030435.000000
2031411.000000
2032360.000000
2033308.000000
2034267.000000
2035206.000000
2036142.000000
2037072.000000
2037988.000000
2038901.000000
2039789.000000
2040670.000000
