ECG (ms)
178.000000
1116.000000
1970.000000
2810.000000
3681.000000
4584.000000
5456.000000
6287.000000
7103.000000
7946.000000
8923.000000
9871.000000
10749.000000
11664.000000
12602.000000
13451.000000
14250.000000
15096.000000
16221.000000
17223.000000
18147.000000
19167.000000
20049.000000
20860.000000
21656.000000
22898.000000
23982.000000
24863.000000
25707.000000
26564.000000
27391.000000
28173.000000
28907.000000
29696.000000
30813.000000
31765.000000
32717.000000
33602.000000
34480.000000
35355.000000
36229.000000
37118.000000
37996.000000
38909.000000
39831.000000
40729.000000
41579.000000
42446.000000
43325.000000
44124.000000
44915.000000
45778.000000
46778.000000
47670.000000
48546.000000
49352.000000
50182.000000
51030.000000
51828.000000
52771.000000
53716.000000
54657.000000
55532.000000
56391.000000
57241.000000
58102.000000
58937.000000
59835.000000
60721.000000
61563.000000
62416.000000
63277.000000
64092.000000
64964.000000
65756.000000
66542.000000
67293.000000
68010.000000
68761.000000
69594.000000
70474.000000
71354.000000
72196.000000
72984.000000
73754.000000
74517.000000
75416.000000
76447.000000
77430.000000
78392.000000
79325.000000
80253.000000
81149.000000
82020.000000
82857.000000
83713.000000
84679.000000
85635.000000
86574.000000
87519.000000
88423.000000
89289.000000
90156.000000
91036.000000
91957.000000
92858.000000
93751.000000
94653.000000
95509.000000
96379.000000
97309.000000
98269.000000
99167.000000
100056.000000
100932.000000
101783.000000
102593.000000
103410.000000
104269.000000
105144.000000
106033.000000
106914.000000
107755.000000
108580.000000
109388.000000
110228.000000
111048.000000
111877.000000
112718.000000
113545.000000
114354.000000
115220.000000
116097.000000
116948.000000
117819.000000
118712.000000
119566.000000
120405.000000
121247.000000
122143.000000
123031.000000
123965.000000
124947.000000
125858.000000
126757.000000
127750.000000
128751.000000
129717.000000
130681.000000
131633.000000
132538.000000
133382.000000
134213.000000
135047.000000
135869.000000
136799.000000
137843.000000
138814.000000
139720.000000
140699.000000
141612.000000
142526.000000
143470.000000
144395.000000
145309.000000
146209.000000
147116.000000
148011.000000
148948.000000
149945.000000
150907.000000
151922.000000
152899.000000
153828.000000
154789.000000
155731.000000
156658.000000
157557.000000
158484.000000
159410.000000
160357.000000
161303.000000
162242.000000
163172.000000
164113.000000
165015.000000
165868.000000
166721.000000
167650.000000
168579.000000
169422.000000
170219.000000
171036.000000
171927.000000
172740.000000
173479.000000
174219.000000
174985.000000
176149.000000
177234.000000
178173.000000
179091.000000
180029.000000
180944.000000
181801.000000
182642.000000
183516.000000
184476.000000
185423.000000
186354.000000
187331.000000
188268.000000
189150.000000
190068.000000
191032.000000
191999.000000
192969.000000
193905.000000
194810.000000
195765.000000
196671.000000
197501.000000
198357.000000
199353.000000
200332.000000
201308.000000
202282.000000
203238.000000
204134.000000
205038.000000
205997.000000
206921.000000
207871.000000
208824.000000
209742.000000
210692.000000
211596.000000
212506.000000
213459.000000
214373.000000
215296.000000
216200.000000
217063.000000
217951.000000
218849.000000
219700.000000
220559.000000
221436.000000
222327.000000
223239.000000
224229.000000
225182.000000
226084.000000
226991.000000
227897.000000
228752.000000
229608.000000
230491.000000
231318.000000
232179.000000
233080.000000
233948.000000
234798.000000
235711.000000
236632.000000
237547.000000
238571.000000
239534.000000
240499.000000
241491.000000
242422.000000
243269.000000
244057.000000
244864.000000
246199.000000
247270.000000
248160.000000
249078.000000
250019.000000
250954.000000
251834.000000
252788.000000
253747.000000
254580.000000
255397.000000
256227.000000
257270.000000
258290.000000
259262.000000
260212.000000
261205.000000
262206.000000
263150.000000
264054.000000
264964.000000
265862.000000
266758.000000
267732.000000
268669.000000
269695.000000
270749.000000
271748.000000
272754.000000
273756.000000
274708.000000
275674.000000
276521.000000
277329.000000
278182.000000
279471.000000
280504.000000
281438.000000
282430.000000
283356.000000
284248.000000
285114.000000
286009.000000
286982.000000
287925.000000
288919.000000
289862.000000
290761.000000
291699.000000
292666.000000
293547.000000
294499.000000
295394.000000
296301.000000
297255.000000
298101.000000
299000.000000
299908.000000
300749.000000
301595.000000
302496.000000
303409.000000
304283.000000
305191.000000
306111.000000
306995.000000
307892.000000
308791.000000
309707.000000
310655.000000
311676.000000
312548.000000
313347.000000
314123.000000
315026.000000
316081.000000
317024.000000
317886.000000
318664.000000
319539.000000
320519.000000
321507.000000
322500.000000
323449.000000
324405.000000
325330.000000
326190.000000
326976.000000
327754.000000
328619.000000
329737.000000
330804.000000
331771.000000
332675.000000
333510.000000
334311.000000
335099.000000
335960.000000
337110.000000
338278.000000
339234.000000
340099.000000
340951.000000
341842.000000
342805.000000
343726.000000
344705.000000
345714.000000
346671.000000
347615.000000
348501.000000
349400.000000
350344.000000
351335.000000
352330.000000
353273.000000
354212.000000
355109.000000
356030.000000
356935.000000
357824.000000
358691.000000
359558.000000
360379.000000
361166.000000
361912.000000
362659.000000
363493.000000
364355.000000
365245.000000
366162.000000
367084.000000
367971.000000
368838.000000
369697.000000
370509.000000
371351.000000
372233.000000
373111.000000
373982.000000
374815.000000
375663.000000
376520.000000
377351.000000
378193.000000
379070.000000
379966.000000
380870.000000
381771.000000
382682.000000
383585.000000
384492.000000
385391.000000
386262.000000
387133.000000
388029.000000
388905.000000
389809.000000
390707.000000
391551.000000
392387.000000
393205.000000
394016.000000
394848.000000
395726.000000
396652.000000
397548.000000
398457.000000
399403.000000
400303.000000
401194.000000
402134.000000
403038.000000
403946.000000
404852.000000
405711.000000
406505.000000
407303.000000
408609.000000
409652.000000
410526.000000
411358.000000
412188.000000
413065.000000
413894.000000
414752.000000
415725.000000
416740.000000
417640.000000
418552.000000
419477.000000
420387.000000
421272.000000
422144.000000
423035.000000
423977.000000
424908.000000
425908.000000
426911.000000
427893.000000
428849.000000
429820.000000
430718.000000
431575.000000
432420.000000
433258.000000
434118.000000
435038.000000
435936.000000
436785.000000
437596.000000
438453.000000
439430.000000
440375.000000
441271.000000
442167.000000
443069.000000
443944.000000
444850.000000
445754.000000
446684.000000
447569.000000
448476.000000
449383.000000
450375.000000
451338.000000
452251.000000
453169.000000
454082.000000
454944.000000
455803.000000
456711.000000
457663.000000
458548.000000
459451.000000
460421.000000
461382.000000
462344.000000
463288.000000
464222.000000
465149.000000
466098.000000
467026.000000
467960.000000
468964.000000
469897.000000
470776.000000
471649.000000
472536.000000
473422.000000
474363.000000
475366.000000
476344.000000
477337.000000
478325.000000
479241.000000
480067.000000
480862.000000
481697.000000
483035.000000
484019.000000
484861.000000
485648.000000
486452.000000
487442.000000
488360.000000
489366.000000
490316.000000
491288.000000
492266.000000
493183.000000
494113.000000
495084.000000
496034.000000
496928.000000
497849.000000
498755.000000
499697.000000
500615.000000
501578.000000
502505.000000
503507.000000
504483.000000
505446.000000
506456.000000
507404.000000
508343.000000
509313.000000
510258.000000
511152.000000
512090.000000
513114.000000
514069.000000
514993.000000
515969.000000
516994.000000
517976.000000
518905.000000
519842.000000
520805.000000
521734.000000
522720.000000
523731.000000
524712.000000
525697.000000
526712.000000
527676.000000
528609.000000
529538.000000
530426.000000
531278.000000
532135.000000
533108.000000
534019.000000
534995.000000
535998.000000
536908.000000
537863.000000
538814.000000
539723.000000
540621.000000
541553.000000
542480.000000
543360.000000
544282.000000
545261.000000
546210.000000
547180.000000
548169.000000
549106.000000
550051.000000
550989.000000
551870.000000
552772.000000
553730.000000
554671.000000
555599.000000
556609.000000
557567.000000
558472.000000
559408.000000
560284.000000
561106.000000
561863.000000
562633.000000
563578.000000
564577.000000
565482.000000
566395.000000
567299.000000
568156.000000
569023.000000
569940.000000
570810.000000
571733.000000
572722.000000
573694.000000
574711.000000
575728.000000
576687.000000
577665.000000
578615.000000
579490.000000
580414.000000
581386.000000
582326.000000
583322.000000
584330.000000
585275.000000
586213.000000
587140.000000
588027.000000
588923.000000
589837.000000
590753.000000
591750.000000
592770.000000
593782.000000
594767.000000
595779.000000
596778.000000
597748.000000
598769.000000
599699.000000
600629.000000
601593.000000
602558.000000
603502.000000
604501.000000
605479.000000
606402.000000
607354.000000
608318.000000
609254.000000
610165.000000
611144.000000
612078.000000
612992.000000
613955.000000
614936.000000
615874.000000
616834.000000
617837.000000
618733.000000
619593.000000
620414.000000
621248.000000
622070.000000
622967.000000
624165.000000
625231.000000
626273.000000
627293.000000
628262.000000
629187.000000
630148.000000
631072.000000
632000.000000
632972.000000
633954.000000
634886.000000
635860.000000
636821.000000
637746.000000
638685.000000
639643.000000
640581.000000
641484.000000
642441.000000
643401.000000
644325.000000
645264.000000
646193.000000
647106.000000
648030.000000
648938.000000
649797.000000
650624.000000
651492.000000
652553.000000
653525.000000
654481.000000
655455.000000
656403.000000
657307.000000
658261.000000
659197.000000
660135.000000
661092.000000
662046.000000
662953.000000
663883.000000
664828.000000
665748.000000
666684.000000
667650.000000
668580.000000
669433.000000
670245.000000
671048.000000
672490.000000
673432.000000
674269.000000
675063.000000
675852.000000
676643.000000
677438.000000
678204.000000
678962.000000
679717.000000
680509.000000
681354.000000
682205.000000
683026.000000
683889.000000
684784.000000
685647.000000
686476.000000
687318.000000
688222.000000
689078.000000
689893.000000
690706.000000
691509.000000
692364.000000
693226.000000
694090.000000
694917.000000
695746.000000
696592.000000
697454.000000
698311.000000
699203.000000
700112.000000
701023.000000
701945.000000
702878.000000
703778.000000
704685.000000
705596.000000
706480.000000
707349.000000
708284.000000
709203.000000
710098.000000
710966.000000
711787.000000
712574.000000
713353.000000
714234.000000
715337.000000
716361.000000
717298.000000
718247.000000
719196.000000
720092.000000
720947.000000
721828.000000
722684.000000
723566.000000
724451.000000
725309.000000
726206.000000
727138.000000
728090.000000
729039.000000
729965.000000
730831.000000
731713.000000
732619.000000
733575.000000
734588.000000
735572.000000
736487.000000
737415.000000
738306.000000
739148.000000
739960.000000
740779.000000
741771.000000
742714.000000
743619.000000
744562.000000
745505.000000
746418.000000
747369.000000
748309.000000
749181.000000
750051.000000
750899.000000
751795.000000
752852.000000
754068.000000
755080.000000
756070.000000
757029.000000
757935.000000
758864.000000
759845.000000
760801.000000
761762.000000
762720.000000
763607.000000
764508.000000
765438.000000
766316.000000
767208.000000
768158.000000
769102.000000
770053.000000
771041.000000
772029.000000
772957.000000
773894.000000
774781.000000
775636.000000
776450.000000
777220.000000
778008.000000
778930.000000
779922.000000
780950.000000
781921.000000
782917.000000
783915.000000
784857.000000
785837.000000
786835.000000
787785.000000
788752.000000
789742.000000
790646.000000
791556.000000
792457.000000
793367.000000
794276.000000
795252.000000
796161.000000
797067.000000
797964.000000
798815.000000
799706.000000
800678.000000
801625.000000
802582.000000
803583.000000
804540.000000
805460.000000
806396.000000
807293.000000
808185.000000
809102.000000
810058.000000
810960.000000
811888.000000
812798.000000
813665.000000
814494.000000
815336.000000
816245.000000
817216.000000
818158.000000
819155.000000
820109.000000
821000.000000
821870.000000
822731.000000
823681.000000
824673.000000
825680.000000
826731.000000
827734.000000
828681.000000
829626.000000
830604.000000
831552.000000
832474.000000
833415.000000
834359.000000
835307.000000
836325.000000
837288.000000
838151.000000
839047.000000
840002.000000
840961.000000
841835.000000
842754.000000
843734.000000
844734.000000
845617.000000
846497.000000
847439.000000
848290.000000
849167.000000
850080.000000
851013.000000
851880.000000
852791.000000
853695.000000
854596.000000
855456.000000
856388.000000
857313.000000
858184.000000
859084.000000
860041.000000
860956.000000
861822.000000
862794.000000
863719.000000
864584.000000
865488.000000
866388.000000
867227.000000
868113.000000
868916.000000
869694.000000
870461.000000
871564.000000
872561.000000
873501.000000
874425.000000
875398.000000
876374.000000
877331.000000
878226.000000
879231.000000
880220.000000
881138.000000
882095.000000
883076.000000
883986.000000
884982.000000
886007.000000
887007.000000
887987.000000
888983.000000
889993.000000
890953.000000
891925.000000
892910.000000
893863.000000
894845.000000
895820.000000
896727.000000
897622.000000
898560.000000
899609.000000
900572.000000
901538.000000
902518.000000
903403.000000
904306.000000
905271.000000
906280.000000
907206.000000
908224.000000
909265.000000
910237.000000
