ECG (ms)
452.000000
1318.000000
2260.000000
3404.000000
4480.000000
5562.000000
6651.000000
7740.000000
8814.000000
9845.000000
10843.000000
11830.000000
12871.000000
13952.000000
15051.000000
16157.000000
17262.000000
18362.000000
19431.000000
20489.000000
21542.000000
22578.000000
23547.000000
24493.000000
25433.000000
26467.000000
27539.000000
28589.000000
29583.000000
30490.000000
31400.000000
32355.000000
33352.000000
34352.000000
35372.000000
36377.000000
37390.000000
38343.000000
39263.000000
40144.000000
41031.000000
41944.000000
42923.000000
43979.000000
44995.000000
45985.000000
46948.000000
47877.000000
48774.000000
49711.000000
50693.000000
51709.000000
52760.000000
53773.000000
54697.000000
55634.000000
56610.000000
57507.000000
58319.000000
59097.000000
59885.000000
61121.000000
62192.000000
63240.000000
64268.000000
65241.000000
66122.000000
66906.000000
67670.000000
68446.000000
69263.000000
70166.000000
71158.000000
72238.000000
73296.000000
74336.000000
75326.000000
76313.000000
77274.000000
78205.000000
79116.000000
80007.000000
80953.000000
82008.000000
83143.000000
84168.000000
85151.000000
86034.000000
86908.000000
87814.000000
88863.000000
90050.000000
91164.000000
92260.000000
93299.000000
94298.000000
95242.000000
96182.000000
97162.000000
98157.000000
99194.000000
100238.000000
101321.000000
102328.000000
103296.000000
104227.000000
105198.000000
106281.000000
107335.000000
108417.000000
109533.000000
110631.000000
111618.000000
112577.000000
113531.000000
114485.000000
115514.000000
116600.000000
117725.000000
118844.000000
119976.000000
121061.000000
122106.000000
123086.000000
124031.000000
124934.000000
125907.000000
127146.000000
128303.000000
129448.000000
130566.000000
131627.000000
132525.000000
133350.000000
134136.000000
134967.000000
135917.000000
136916.000000
137997.000000
139055.000000
140123.000000
141019.000000
141871.000000
142695.000000
143514.000000
144408.000000
145409.000000
146435.000000
147302.000000
148107.000000
148881.000000
149675.000000
150521.000000
151481.000000
152588.000000
153680.000000
154636.000000
155579.000000
156466.000000
157380.000000
158335.000000
159323.000000
160411.000000
161446.000000
162403.000000
163349.000000
164376.000000
165382.000000
166364.000000
167279.000000
168143.000000
168945.000000
169743.000000
170949.000000
172043.000000
173154.000000
174267.000000
175360.000000
176473.000000
177525.000000
178499.000000
179452.000000
180407.000000
181423.000000
182514.000000
183681.000000
184814.000000
185908.000000
187008.000000
188117.000000
189182.000000
190179.000000
191112.000000
192089.000000
193124.000000
194167.000000
195205.000000
196303.000000
197429.000000
198565.000000
199653.000000
200673.000000
201665.000000
202683.000000
203737.000000
204707.000000
205598.000000
206456.000000
207352.000000
208455.000000
209496.000000
210497.000000
211535.000000
212524.000000
213510.000000
214447.000000
215375.000000
216297.000000
217175.000000
218128.000000
219072.000000
219993.000000
220911.000000
221827.000000
222812.000000
223796.000000
224728.000000
225623.000000
226548.000000
227518.000000
228491.000000
229393.000000
230231.000000
231088.000000
232030.000000
233047.000000
234196.000000
235293.000000
236349.000000
237319.000000
238238.000000
239140.000000
239977.000000
240884.000000
241952.000000
243090.000000
244177.000000
245226.000000
246256.000000
247285.000000
248350.000000
249386.000000
250447.000000
251478.000000
252468.000000
253455.000000
254532.000000
255675.000000
256765.000000
257861.000000
258969.000000
260101.000000
261161.000000
262223.000000
263253.000000
264165.000000
265075.000000
266001.000000
266987.000000
268135.000000
269290.000000
270400.000000
271411.000000
272355.000000
273246.000000
274100.000000
275007.000000
275953.000000
276982.000000
278054.000000
279135.000000
280128.000000
281044.000000
281964.000000
282865.000000
283895.000000
285138.000000
286241.000000
287331.000000
288456.000000
289531.000000
290556.000000
291512.000000
292407.000000
293265.000000
294134.000000
295080.000000
296297.000000
297504.000000
298652.000000
299782.000000
300848.000000
301785.000000
302622.000000
303393.000000
304154.000000
304958.000000
305841.000000
306820.000000
307841.000000
308890.000000
309999.000000
310931.000000
311785.000000
312643.000000
313567.000000
314900.000000
316066.000000
317172.000000
318293.000000
319449.000000
320579.000000
321713.000000
322818.000000
323905.000000
324942.000000
325972.000000
327054.000000
328029.000000
329085.000000
330197.000000
331355.000000
332464.000000
333543.000000
334617.000000
335674.000000
336671.000000
337670.000000
338774.000000
339899.000000
340948.000000
341999.000000
343101.000000
344170.000000
345267.000000
346345.000000
347333.000000
348364.000000
349389.000000
350393.000000
351466.000000
352396.000000
353271.000000
354141.000000
355157.000000
356459.000000
357577.000000
358657.000000
359777.000000
360883.000000
361913.000000
362901.000000
363900.000000
364911.000000
365980.000000
367068.000000
368140.000000
369196.000000
370196.000000
371221.000000
372240.000000
373228.000000
374119.000000
374980.000000
375877.000000
377122.000000
378287.000000
379368.000000
380462.000000
381559.000000
382607.000000
383662.000000
384759.000000
385833.000000
386816.000000
387706.000000
388566.000000
389453.000000
390273.000000
391065.000000
391823.000000
392598.000000
393431.000000
394330.000000
395373.000000
396456.000000
397481.000000
398452.000000
399372.000000
400346.000000
401404.000000
402508.000000
403538.000000
404565.000000
405555.000000
406487.000000
407476.000000
408515.000000
409621.000000
410663.000000
411766.000000
412822.000000
413868.000000
414895.000000
415885.000000
416850.000000
417777.000000
418679.000000
419668.000000
420746.000000
421811.000000
422840.000000
423920.000000
424981.000000
425977.000000
426963.000000
427903.000000
428817.000000
429701.000000
430628.000000
431631.000000
432680.000000
433657.000000
434617.000000
435591.000000
436542.000000
437489.000000
438457.000000
439385.000000
440353.000000
441289.000000
442191.000000
443073.000000
444039.000000
445126.000000
446223.000000
447198.000000
448149.000000
449058.000000
449923.000000
450777.000000
451689.000000
452705.000000
453807.000000
454889.000000
455985.000000
457012.000000
458047.000000
459059.000000
460044.000000
461023.000000
462061.000000
463106.000000
464139.000000
465188.000000
466240.000000
467334.000000
468385.000000
469391.000000
470414.000000
471359.000000
472249.000000
473075.000000
473933.000000
475136.000000
476247.000000
477316.000000
478427.000000
479507.000000
480562.000000
481598.000000
482649.000000
483720.000000
484806.000000
485896.000000
486933.000000
487972.000000
488960.000000
489982.000000
491054.000000
492110.000000
493113.000000
494071.000000
494971.000000
496199.000000
497416.000000
498603.000000
499765.000000
500908.000000
502022.000000
503104.000000
504213.000000
505301.000000
506390.000000
507501.000000
508550.000000
509488.000000
510469.000000
511679.000000
512844.000000
514000.000000
515126.000000
516197.000000
517254.000000
518302.000000
519401.000000
520541.000000
521716.000000
522852.000000
523970.000000
525074.000000
526176.000000
527271.000000
528384.000000
529422.000000
530453.000000
531546.000000
532727.000000
533899.000000
535006.000000
536077.000000
537172.000000
538250.000000
539287.000000
540343.000000
541452.000000
542530.000000
543553.000000
544591.000000
545588.000000
546473.000000
547288.000000
548055.000000
548810.000000
549611.000000
550503.000000
551683.000000
552787.000000
553852.000000
554945.000000
556003.000000
556979.000000
557885.000000
558733.000000
559556.000000
560372.000000
561242.000000
562291.000000
563292.000000
564183.000000
565067.000000
565969.000000
566922.000000
567875.000000
568770.000000
569643.000000
570548.000000
571485.000000
572438.000000
573345.000000
574289.000000
575230.000000
576171.000000
577070.000000
577895.000000
578722.000000
579616.000000
580708.000000
581749.000000
582637.000000
583472.000000
584306.000000
585176.000000
586078.000000
587011.000000
587940.000000
588906.000000
589885.000000
590840.000000
591773.000000
592719.000000
593670.000000
594682.000000
595749.000000
596863.000000
597905.000000
598931.000000
600051.000000
601190.000000
602242.000000
603207.000000
604191.000000
605301.000000
606391.000000
607452.000000
608509.000000
609538.000000
610493.000000
611333.000000
612117.000000
612895.000000
613719.000000
614663.000000
615832.000000
616875.000000
617890.000000
618915.000000
619940.000000
620976.000000
622035.000000
623094.000000
624090.000000
625061.000000
626134.000000
627325.000000
628390.000000
629432.000000
630509.000000
631573.000000
632599.000000
633608.000000
634653.000000
635710.000000
636786.000000
637885.000000
638938.000000
639923.000000
640915.000000
641897.000000
642907.000000
643929.000000
644987.000000
646008.000000
646935.000000
647770.000000
648600.000000
649524.000000
650713.000000
651810.000000
652913.000000
654032.000000
655019.000000
655888.000000
656745.000000
657619.000000
658573.000000
659556.000000
660661.000000
661850.000000
662966.000000
664054.000000
665109.000000
666098.000000
667041.000000
667955.000000
669040.000000
670274.000000
671389.000000
672447.000000
673548.000000
674624.000000
675596.000000
676604.000000
677716.000000
678719.000000
679628.000000
680536.000000
681510.000000
682521.000000
683522.000000
684489.000000
685529.000000
686590.000000
687597.000000
688587.000000
689565.000000
690455.000000
691313.000000
692184.000000
693051.000000
693883.000000
694670.000000
695519.000000
696487.000000
697442.000000
698455.000000
699482.000000
700446.000000
701404.000000
702363.000000
703229.000000
704047.000000
704831.000000
705599.000000
706505.000000
707572.000000
708531.000000
709415.000000
710298.000000
711150.000000
712000.000000
712904.000000
713894.000000
714919.000000
715857.000000
716762.000000
717658.000000
718577.000000
719504.000000
720406.000000
721362.000000
722409.000000
723529.000000
724524.000000
725474.000000
726448.000000
727441.000000
728421.000000
729462.000000
730504.000000
731448.000000
732369.000000
733316.000000
734347.000000
735387.000000
736353.000000
737279.000000
738262.000000
739257.000000
740260.000000
741258.000000
742219.000000
743162.000000
744039.000000
744870.000000
745685.000000
746478.000000
747262.000000
748143.000000
749086.000000
750112.000000
751219.000000
752257.000000
753309.000000
754317.000000
755361.000000
756410.000000
757451.000000
758394.000000
759347.000000
760427.000000
761699.000000
762818.000000
763759.000000
764615.000000
765464.000000
766317.000000
767161.000000
768062.000000
769097.000000
770151.000000
771150.000000
772200.000000
773150.000000
774113.000000
775088.000000
776052.000000
777058.000000
778234.000000
779430.000000
780575.000000
781574.000000
782494.000000
783350.000000
784373.000000
785726.000000
786884.000000
787999.000000
789135.000000
790317.000000
791440.000000
792419.000000
793341.000000
794234.000000
795184.000000
796220.000000
797319.000000
798253.000000
799256.000000
800344.000000
801451.000000
802517.000000
803565.000000
804472.000000
805327.000000
806141.000000
806928.000000
807810.000000
809133.000000
810261.000000
811417.000000
812538.000000
813617.000000
814630.000000
815580.000000
816445.000000
817262.000000
818061.000000
818938.000000
819919.000000
821008.000000
822132.000000
823090.000000
823997.000000
824874.000000
825762.000000
826729.000000
827873.000000
829105.000000
830273.000000
831431.000000
832522.000000
833512.000000
834422.000000
835256.000000
836047.000000
836914.000000
837911.000000
838905.000000
840117.000000
841284.000000
842416.000000
843548.000000
844651.000000
845685.000000
846624.000000
847564.000000
848632.000000
849862.000000
850857.000000
851839.000000
852877.000000
853935.000000
855053.000000
856069.000000
857115.000000
858222.000000
859369.000000
860538.000000
861635.000000
862664.000000
863622.000000
864579.000000
865597.000000
866709.000000
867851.000000
868855.000000
869865.000000
870909.000000
871839.000000
872713.000000
873552.000000
