ECG (ms)
325.000000
1047.000000
1765.000000
2471.000000
3177.000000
3879.000000
4596.000000
5313.000000
6027.000000
6741.000000
7458.000000
8180.000000
8891.000000
9601.000000
10309.000000
11022.000000
11732.000000
12449.000000
13164.000000
13886.000000
14601.000000
15315.000000
16026.000000
16731.000000
17439.000000
18153.000000
18861.000000
19570.000000
20290.000000
21021.000000
21758.000000
22482.000000
23204.000000
23923.000000
24645.000000
25372.000000
26092.000000
26808.000000
27516.000000
28222.000000
28930.000000
29645.000000
30373.000000
31109.000000
31865.000000
32624.000000
33375.000000
34122.000000
34864.000000
35594.000000
36318.000000
37039.000000
37765.000000
38496.000000
39218.000000
39946.000000
40677.000000
41415.000000
42162.000000
42912.000000
43657.000000
44396.000000
45140.000000
45880.000000
46624.000000
47367.000000
48113.000000
48863.000000
49604.000000
50345.000000
51105.000000
51886.000000
52679.000000
53463.000000
54232.000000
55001.000000
55768.000000
56528.000000
57277.000000
58017.000000
58758.000000
59503.000000
60244.000000
60976.000000
61721.000000
62477.000000
63252.000000
64022.000000
64792.000000
65559.000000
66319.000000
67060.000000
67796.000000
68528.000000
69262.000000
69991.000000
70713.000000
71444.000000
72172.000000
72910.000000
73637.000000
74366.000000
75097.000000
75826.000000
76548.000000
77255.000000
77945.000000
78632.000000
79326.000000
80030.000000
80746.000000
81458.000000
82169.000000
82878.000000
83593.000000
84313.000000
85030.000000
85747.000000
86465.000000
87192.000000
87932.000000
88668.000000
89393.000000
90112.000000
90831.000000
91557.000000
92291.000000
93027.000000
93766.000000
94510.000000
95268.000000
96018.000000
96758.000000
97493.000000
98224.000000
98948.000000
99663.000000
100376.000000
101100.000000
101839.000000
102617.000000
103393.000000
104171.000000
104955.000000
105723.000000
106480.000000
107226.000000
107956.000000
108687.000000
109420.000000
110172.000000
110926.000000
111678.000000
112440.000000
113197.000000
113977.000000
114759.000000
115520.000000
116270.000000
117019.000000
117778.000000
118532.000000
119284.000000
120051.000000
120816.000000
121585.000000
122362.000000
123111.000000
123860.000000
124609.000000
125364.000000
126124.000000
126886.000000
127647.000000
128408.000000
129165.000000
129903.000000
130642.000000
131371.000000
132097.000000
132821.000000
133550.000000
134301.000000
135065.000000
135863.000000
136656.000000
137426.000000
138186.000000
138944.000000
139688.000000
140421.000000
141157.000000
141895.000000
142633.000000
143368.000000
144094.000000
144822.000000
145546.000000
146269.000000
146988.000000
147703.000000
148427.000000
149143.000000
149860.000000
150572.000000
151283.000000
151991.000000
152698.000000
153406.000000
154123.000000
154853.000000
155574.000000
156291.000000
157000.000000
157712.000000
158423.000000
159134.000000
159839.000000
160541.000000
161238.000000
161934.000000
162644.000000
163381.000000
164113.000000
164842.000000
165559.000000
166279.000000
166997.000000
167740.000000
168493.000000
169236.000000
169978.000000
170725.000000
171451.000000
172157.000000
172849.000000
173549.000000
174256.000000
174974.000000
175700.000000
176436.000000
177172.000000
177906.000000
178645.000000
179382.000000
180109.000000
180835.000000
181562.000000
182290.000000
183008.000000
183721.000000
184424.000000
185124.000000
185818.000000
186500.000000
187183.000000
187883.000000
188599.000000
189331.000000
190061.000000
190783.000000
191486.000000
192177.000000
192850.000000
193517.000000
194181.000000
194871.000000
195562.000000
196292.000000
197039.000000
197779.000000
198510.000000
199247.000000
199969.000000
200687.000000
201407.000000
202136.000000
202885.000000
203628.000000
204362.000000
205076.000000
205809.000000
206542.000000
207261.000000
207966.000000
208688.000000
209442.000000
210218.000000
210977.000000
211717.000000
212434.000000
213133.000000
213821.000000
214519.000000
215236.000000
215965.000000
216718.000000
217481.000000
218225.000000
218960.000000
219671.000000
220369.000000
221059.000000
221728.000000
222403.000000
223084.000000
223776.000000
224476.000000
225175.000000
225866.000000
226562.000000
227292.000000
228032.000000
228780.000000
229504.000000
230208.000000
230900.000000
231581.000000
232273.000000
232978.000000
233698.000000
234435.000000
235182.000000
235896.000000
236595.000000
237289.000000
237985.000000
238682.000000
239380.000000
240087.000000
240787.000000
241488.000000
242195.000000
242913.000000
243653.000000
244408.000000
245158.000000
245901.000000
246663.000000
247412.000000
248155.000000
248875.000000
249605.000000
250328.000000
251033.000000
251736.000000
252455.000000
253168.000000
253882.000000
254594.000000
255301.000000
255995.000000
256680.000000
257351.000000
258013.000000
258671.000000
259322.000000
259974.000000
260653.000000
261373.000000
262118.000000
262884.000000
263657.000000
264452.000000
265299.000000
266101.000000
266869.000000
267623.000000
268370.000000
269113.000000
269845.000000
270556.000000
271254.000000
271958.000000
272671.000000
273396.000000
274128.000000
274869.000000
275608.000000
276357.000000
277113.000000
277868.000000
278614.000000
279349.000000
280080.000000
280809.000000
281537.000000
282257.000000
282978.000000
283697.000000
284414.000000
285148.000000
285915.000000
286679.000000
287429.000000
288158.000000
288863.000000
289558.000000
290238.000000
290914.000000
291590.000000
292285.000000
293022.000000
293800.000000
294614.000000
295418.000000
296257.000000
297065.000000
297879.000000
298692.000000
299492.000000
300288.000000
301087.000000
301874.000000
302660.000000
303438.000000
304207.000000
304965.000000
305739.000000
306498.000000
307247.000000
307977.000000
308697.000000
309454.000000
310210.000000
310963.000000
311704.000000
312429.000000
313141.000000
313844.000000
314538.000000
315226.000000
315917.000000
316614.000000
317342.000000
318117.000000
318988.000000
319865.000000
320724.000000
321563.000000
322409.000000
323216.000000
324018.000000
324805.000000
325575.000000
326350.000000
327120.000000
327878.000000
328626.000000
329372.000000
330097.000000
330803.000000
331549.000000
332309.000000
333054.000000
333778.000000
334494.000000
335201.000000
335930.000000
336673.000000
337441.000000
338185.000000
338912.000000
339632.000000
340347.000000
341060.000000
341769.000000
342494.000000
343212.000000
344011.000000
344803.000000
345596.000000
346390.000000
347189.000000
347970.000000
348749.000000
349513.000000
350279.000000
351046.000000
351810.000000
352567.000000
353321.000000
354065.000000
354801.000000
355531.000000
356239.000000
356963.000000
357712.000000
358470.000000
359209.000000
359943.000000
360665.000000
361384.000000
362096.000000
362817.000000
363556.000000
364329.000000
365110.000000
365901.000000
366661.000000
367400.000000
368124.000000
368844.000000
369560.000000
370268.000000
370966.000000
371665.000000
372404.000000
373186.000000
373977.000000
374739.000000
375487.000000
376220.000000
376943.000000
377655.000000
378368.000000
379114.000000
379866.000000
380639.000000
381391.000000
382131.000000
382847.000000
383572.000000
384312.000000
385046.000000
385776.000000
386497.000000
387215.000000
387921.000000
388625.000000
389321.000000
390014.000000
390711.000000
391408.000000
392118.000000
392838.000000
393578.000000
394339.000000
395095.000000
395852.000000
396602.000000
397328.000000
398045.000000
398759.000000
399469.000000
400177.000000
400905.000000
401642.000000
402374.000000
403095.000000
403794.000000
404497.000000
405206.000000
405916.000000
406644.000000
407377.000000
408095.000000
408803.000000
409496.000000
410187.000000
410905.000000
411630.000000
412355.000000
413069.000000
413782.000000
414496.000000
415218.000000
415944.000000
416661.000000
417362.000000
418066.000000
418754.000000
419448.000000
420137.000000
420826.000000
421511.000000
422185.000000
422850.000000
423515.000000
424184.000000
424860.000000
425547.000000
426264.000000
427012.000000
427773.000000
428533.000000
429298.000000
430054.000000
430797.000000
431529.000000
432254.000000
432968.000000
433670.000000
434368.000000
435093.000000
435851.000000
436610.000000
437370.000000
438128.000000
438859.000000
439581.000000
440299.000000
441018.000000
441733.000000
442444.000000
443150.000000
443860.000000
444575.000000
445311.000000
446072.000000
446847.000000
447684.000000
448503.000000
449305.000000
450082.000000
450824.000000
451541.000000
452247.000000
452942.000000
453634.000000
454313.000000
455048.000000
455867.000000
456734.000000
457576.000000
458402.000000
459204.000000
459952.000000
460685.000000
461404.000000
462122.000000
462837.000000
463566.000000
464311.000000
465064.000000
465826.000000
466588.000000
467360.000000
468161.000000
468973.000000
469769.000000
470552.000000
471324.000000
472083.000000
472830.000000
473566.000000
474291.000000
475015.000000
475738.000000
476477.000000
477213.000000
477949.000000
478695.000000
479454.000000
480222.000000
480987.000000
481740.000000
482484.000000
483206.000000
483915.000000
484630.000000
485359.000000
486088.000000
486818.000000
487546.000000
488276.000000
488997.000000
489708.000000
490442.000000
491189.000000
491949.000000
492710.000000
493450.000000
494182.000000
494902.000000
495602.000000
496278.000000
496958.000000
497653.000000
498383.000000
499132.000000
499851.000000
500568.000000
501276.000000
501994.000000
502718.000000
503445.000000
504183.000000
504939.000000
505708.000000
506465.000000
507201.000000
507927.000000
508633.000000
509332.000000
510025.000000
510721.000000
511429.000000
512163.000000
512927.000000
513732.000000
514579.000000
515459.000000
516313.000000
517168.000000
518021.000000
518870.000000
519671.000000
520452.000000
521205.000000
521933.000000
522651.000000
523371.000000
524108.000000
524877.000000
525645.000000
526425.000000
527206.000000
527974.000000
528735.000000
529483.000000
530242.000000
530996.000000
531747.000000
532497.000000
533239.000000
533984.000000
534727.000000
535456.000000
536170.000000
536897.000000
537642.000000
538389.000000
539120.000000
539847.000000
540562.000000
541270.000000
541975.000000
542679.000000
543386.000000
544113.000000
544874.000000
545645.000000
546431.000000
547209.000000
547969.000000
548734.000000
549477.000000
550216.000000
550947.000000
551673.000000
552409.000000
553161.000000
553917.000000
554675.000000
555440.000000
556194.000000
556942.000000
557693.000000
558434.000000
559164.000000
559875.000000
560573.000000
561259.000000
561945.000000
562632.000000
563321.000000
564020.000000
564737.000000
565465.000000
566190.000000
566928.000000
567664.000000
568406.000000
569158.000000
569904.000000
570641.000000
571370.000000
572091.000000
572816.000000
573541.000000
574261.000000
574971.000000
575670.000000
576342.000000
577070.000000
577791.000000
578514.000000
579231.000000
579942.000000
580639.000000
581334.000000
582024.000000
582726.000000
583433.000000
584152.000000
584876.000000
585608.000000
586337.000000
587077.000000
587809.000000
588540.000000
589264.000000
589991.000000
590717.000000
591434.000000
592148.000000
592857.000000
593562.000000
594262.000000
594954.000000
595652.000000
596345.000000
597033.000000
597723.000000
598416.000000
599128.000000
599839.000000
600566.000000
601283.000000
601999.000000
602715.000000
603430.000000
604153.000000
604872.000000
605594.000000
606300.000000
607001.000000
607691.000000
608402.000000
609132.000000
609862.000000
610597.000000
611332.000000
612059.000000
612772.000000
613471.000000
614164.000000
614845.000000
615537.000000
616239.000000
616970.000000
617723.000000
618461.000000
619180.000000
619893.000000
620604.000000
621300.000000
621988.000000
622682.000000
623380.000000
624119.000000
624863.000000
625616.000000
626375.000000
627118.000000
627842.000000
628555.000000
629254.000000
629938.000000
630609.000000
631273.000000
631933.000000
632597.000000
633312.000000
634124.000000
634999.000000
635878.000000
636762.000000
637626.000000
638482.000000
639331.000000
640171.000000
640966.000000
641717.000000
642446.000000
643169.000000
643875.000000
644574.000000
645263.000000
645938.000000
646624.000000
647328.000000
648072.000000
648892.000000
649748.000000
650517.000000
651297.000000
652049.000000
652796.000000
653516.000000
654223.000000
654919.000000
655610.000000
656314.000000
657033.000000
657776.000000
658556.000000
659351.000000
660167.000000
660964.000000
661751.000000
662498.000000
663248.000000
663992.000000
664745.000000
665487.000000
666238.000000
666988.000000
667729.000000
668457.000000
669172.000000
669882.000000
670577.000000
671315.000000
672067.000000
672819.000000
673544.000000
674259.000000
674965.000000
675670.000000
676379.000000
677086.000000
677798.000000
678513.000000
679231.000000
679933.000000
680629.000000
681321.000000
682013.000000
682704.000000
683401.000000
684115.000000
684858.000000
685623.000000
686409.000000
687216.000000
688010.000000
688806.000000
689589.000000
690364.000000
691136.000000
691907.000000
692686.000000
693467.000000
694240.000000
694999.000000
695751.000000
696488.000000
697216.000000
697930.000000
698629.000000
699321.000000
700022.000000
700730.000000
701426.000000
702123.000000
702822.000000
703539.000000
704328.000000
705139.000000
705964.000000
706780.000000
707564.000000
708319.000000
709049.000000
709762.000000
710465.000000
711159.000000
711861.000000
712583.000000
713362.000000
714198.000000
715041.000000
715895.000000
716744.000000
717594.000000
718439.000000
719238.000000
720018.000000
720798.000000
721567.000000
722324.000000
723070.000000
723806.000000
724533.000000
725253.000000
725972.000000
726688.000000
727417.000000
728164.000000
728912.000000
729654.000000
730404.000000
731166.000000
731943.000000
732711.000000
733468.000000
734211.000000
734950.000000
735682.000000
736412.000000
737142.000000
737862.000000
738578.000000
739298.000000
740025.000000
740769.000000
741507.000000
742242.000000
742970.000000
743693.000000
744425.000000
745154.000000
745874.000000
746576.000000
747265.000000
747946.000000
748637.000000
749323.000000
750019.000000
750720.000000
751426.000000
752121.000000
752827.000000
753527.000000
754233.000000
754937.000000
755646.000000
756353.000000
757065.000000
757774.000000
758481.000000
759188.000000
759901.000000
760628.000000
761353.000000
762082.000000
762821.000000
763560.000000
764295.000000
765036.000000
765765.000000
766497.000000
767225.000000
767959.000000
768683.000000
769401.000000
770111.000000
770822.000000
771527.000000
772233.000000
772960.000000
773688.000000
774418.000000
775149.000000
775891.000000
776621.000000
777345.000000
778063.000000
778769.000000
779470.000000
780166.000000
780867.000000
781574.000000
782272.000000
782971.000000
783680.000000
784393.000000
785097.000000
785802.000000
786508.000000
787218.000000
787924.000000
788625.000000
789324.000000
790018.000000
790709.000000
791398.000000
792086.000000
792783.000000
793476.000000
794171.000000
794871.000000
795576.000000
796274.000000
796968.000000
797663.000000
798365.000000
799063.000000
799764.000000
800463.000000
801167.000000
801873.000000
802574.000000
803282.000000
803980.000000
804676.000000
805366.000000
806057.000000
806755.000000
807445.000000
808141.000000
808840.000000
809553.000000
810262.000000
810970.000000
811690.000000
812404.000000
813116.000000
813823.000000
814531.000000
815231.000000
815932.000000
816626.000000
817320.000000
818011.000000
818703.000000
819394.000000
820090.000000
820790.000000
821484.000000
822182.000000
822878.000000
823574.000000
824267.000000
824960.000000
825652.000000
826345.000000
827041.000000
827738.000000
828442.000000
829138.000000
829833.000000
830529.000000
831231.000000
831926.000000
832617.000000
833307.000000
834005.000000
834699.000000
835391.000000
836078.000000
836774.000000
837473.000000
838168.000000
838862.000000
839561.000000
840258.000000
840952.000000
841641.000000
842326.000000
843012.000000
843693.000000
844374.000000
845057.000000
845745.000000
846442.000000
847136.000000
847830.000000
848535.000000
849232.000000
849922.000000
850611.000000
851306.000000
852000.000000
852694.000000
853389.000000
854089.000000
854792.000000
855487.000000
856177.000000
856871.000000
857567.000000
858264.000000
858958.000000
859652.000000
860351.000000
861060.000000
861760.000000
862466.000000
863181.000000
863901.000000
864618.000000
865336.000000
866059.000000
866785.000000
867504.000000
868221.000000
868930.000000
869641.000000
870353.000000
871063.000000
871774.000000
872496.000000
873223.000000
873950.000000
874685.000000
875418.000000
876141.000000
876862.000000
877589.000000
878308.000000
879024.000000
879737.000000
880465.000000
881196.000000
881926.000000
882657.000000
883397.000000
884146.000000
884891.000000
885639.000000
886374.000000
887113.000000
887849.000000
888590.000000
889324.000000
890050.000000
890785.000000
891528.000000
892277.000000
893036.000000
893782.000000
894529.000000
895281.000000
896034.000000
896782.000000
897528.000000
898269.000000
899020.000000
899779.000000
