ECG (ms)
351.000000
1328.000000
2341.000000
3304.000000
4254.000000
5213.000000
6146.000000
7056.000000
8026.000000
9025.000000
9972.000000
10870.000000
11778.000000
12694.000000
13641.000000
14605.000000
15638.000000
16631.000000
17606.000000
18604.000000
19630.000000
20679.000000
21723.000000
22744.000000
23750.000000
24749.000000
25744.000000
26741.000000
27734.000000
28716.000000
29723.000000
30718.000000
31703.000000
32708.000000
33732.000000
34716.000000
35671.000000
36754.000000
37891.000000
38948.000000
39946.000000
40970.000000
41989.000000
42945.000000
43922.000000
44933.000000
45958.000000
46949.000000
47912.000000
48865.000000
49842.000000
50849.000000
51845.000000
52818.000000
53769.000000
54752.000000
55817.000000
56915.000000
57962.000000
58958.000000
59958.000000
60987.000000
62020.000000
63004.000000
63908.000000
64836.000000
65863.000000
66907.000000
67973.000000
68907.000000
69879.000000
70873.000000
71822.000000
72742.000000
73768.000000
74814.000000
75757.000000
76691.000000
77711.000000
78696.000000
79598.000000
80485.000000
81399.000000
82346.000000
83276.000000
84237.000000
85202.000000
86134.000000
87051.000000
88003.000000
88978.000000
89955.000000
90912.000000
91884.000000
92853.000000
93824.000000
94773.000000
95723.000000
96703.000000
97746.000000
98798.000000
99808.000000
100793.000000
101779.000000
102776.000000
103677.000000
104555.000000
105552.000000
106544.000000
107456.000000
108457.000000
109518.000000
110454.000000
111327.000000
112255.000000
113260.000000
114221.000000
115138.000000
116074.000000
117013.000000
117909.000000
118787.000000
119720.000000
120663.000000
121613.000000
122582.000000
123567.000000
124587.000000
125528.000000
126452.000000
127427.000000
128449.000000
129525.000000
130601.000000
131649.000000
132666.000000
133665.000000
134655.000000
135621.000000
136585.000000
137611.000000
138562.000000
139512.000000
140568.000000
141704.000000
142776.000000
143847.000000
144934.000000
146011.000000
147052.000000
148075.000000
149083.000000
150072.000000
151059.000000
152031.000000
152983.000000
153945.000000
154901.000000
155864.000000
156837.000000
157803.000000
158836.000000
159904.000000
160955.000000
162027.000000
163107.000000
164146.000000
165178.000000
166032.000000
166901.000000
167861.000000
168786.000000
169717.000000
170891.000000
171947.000000
172936.000000
173964.000000
174970.000000
175905.000000
176839.000000
177787.000000
178687.000000
179552.000000
180464.000000
181443.000000
182407.000000
183390.000000
184401.000000
185427.000000
186428.000000
187398.000000
188353.000000
189321.000000
190308.000000
191274.000000
192232.000000
193174.000000
194187.000000
195216.000000
196222.000000
197228.000000
198241.000000
199250.000000
200167.000000
201078.000000
202108.000000
203244.000000
204403.000000
205446.000000
206521.000000
207625.000000
208702.000000
209757.000000
210829.000000
211942.000000
213031.000000
214036.000000
215035.000000
216054.000000
217108.000000
218139.000000
219207.000000
220269.000000
221323.000000
222365.000000
223371.000000
224403.000000
225417.000000
226398.000000
227370.000000
228323.000000
229272.000000
230265.000000
231345.000000
232372.000000
233404.000000
234484.000000
235559.000000
236545.000000
237580.000000
238675.000000
239752.000000
240781.000000
241845.000000
242899.000000
243898.000000
244852.000000
245791.000000
246834.000000
247969.000000
249115.000000
250203.000000
251170.000000
252133.000000
253093.000000
254094.000000
255139.000000
256206.000000
257209.000000
258242.000000
259310.000000
260350.000000
261326.000000
262286.000000
263249.000000
264294.000000
265224.000000
266082.000000
266956.000000
267887.000000
268801.000000
269794.000000
270877.000000
271835.000000
272749.000000
273670.000000
274567.000000
275414.000000
276313.000000
277260.000000
278209.000000
279121.000000
280039.000000
280971.000000
281903.000000
282786.000000
283679.000000
284581.000000
285477.000000
286402.000000
287379.000000
288325.000000
289290.000000
290297.000000
291328.000000
292351.000000
293360.000000
294324.000000
295252.000000
296164.000000
297084.000000
298047.000000
299006.000000
299992.000000
301012.000000
302072.000000
303119.000000
304135.000000
305001.000000
305908.000000
306917.000000
307902.000000
308888.000000
310065.000000
311218.000000
312254.000000
313310.000000
314373.000000
315396.000000
316372.000000
317356.000000
318363.000000
319354.000000
320306.000000
321281.000000
322305.000000
323307.000000
324340.000000
325364.000000
326389.000000
327388.000000
328383.000000
329380.000000
330404.000000
331365.000000
332329.000000
333348.000000
334394.000000
335478.000000
336505.000000
337589.000000
338661.000000
339679.000000
340707.000000
341809.000000
342889.000000
343871.000000
344949.000000
346067.000000
347141.000000
348121.000000
349153.000000
350215.000000
351226.000000
352258.000000
353276.000000
354245.000000
355244.000000
356261.000000
357285.000000
358277.000000
359311.000000
360346.000000
361325.000000
362305.000000
363262.000000
364251.000000
365297.000000
366338.000000
367314.000000
368314.000000
369333.000000
370344.000000
371300.000000
372286.000000
373168.000000
374049.000000
375065.000000
376064.000000
377234.000000
378401.000000
379463.000000
380529.000000
381611.000000
382663.000000
383624.000000
384606.000000
385603.000000
386578.000000
387479.000000
388401.000000
389389.000000
390409.000000
391431.000000
392420.000000
393423.000000
394428.000000
395393.000000
396324.000000
397277.000000
398283.000000
399286.000000
400241.000000
401218.000000
402252.000000
403355.000000
404376.000000
405375.000000
406433.000000
407589.000000
408741.000000
409849.000000
410964.000000
412075.000000
413130.000000
414117.000000
415166.000000
416208.000000
417235.000000
418225.000000
419287.000000
420360.000000
421405.000000
422407.000000
423488.000000
424510.000000
425369.000000
426262.000000
427414.000000
428480.000000
429632.000000
430777.000000
431845.000000
432838.000000
433933.000000
434974.000000
435936.000000
436801.000000
437652.000000
438430.000000
439184.000000
439917.000000
440677.000000
441565.000000
442588.000000
443560.000000
444482.000000
445452.000000
446435.000000
447358.000000
448282.000000
449249.000000
450246.000000
451260.000000
452255.000000
453223.000000
454191.000000
455167.000000
456134.000000
457118.000000
458169.000000
459198.000000
460208.000000
461248.000000
462311.000000
463379.000000
464453.000000
465505.000000
466543.000000
467566.000000
468514.000000
469553.000000
470664.000000
471756.000000
472798.000000
473938.000000
475079.000000
476153.000000
477166.000000
478116.000000
479082.000000
480084.000000
481108.000000
482100.000000
483095.000000
484129.000000
485176.000000
486165.000000
487131.000000
488106.000000
489072.000000
490026.000000
491007.000000
492007.000000
493066.000000
494086.000000
495005.000000
495957.000000
497016.000000
498146.000000
499196.000000
500219.000000
501290.000000
502438.000000
503546.000000
504584.000000
505654.000000
506762.000000
507814.000000
508801.000000
509847.000000
510939.000000
511983.000000
512951.000000
513922.000000
514927.000000
515945.000000
517027.000000
518010.000000
518910.000000
519827.000000
520937.000000
522076.000000
523203.000000
524260.000000
525312.000000
526366.000000
527373.000000
528397.000000
529326.000000
530220.000000
531348.000000
532501.000000
533596.000000
534721.000000
535865.000000
536984.000000
538023.000000
539083.000000
540153.000000
541167.000000
542115.000000
543070.000000
544083.000000
545129.000000
546131.000000
547137.000000
548184.000000
549199.000000
550159.000000
551148.000000
552159.000000
553142.000000
554084.000000
555053.000000
556121.000000
557234.000000
558226.000000
559127.000000
560053.000000
561147.000000
562229.000000
563195.000000
564173.000000
565253.000000
566294.000000
567230.000000
568191.000000
569231.000000
570266.000000
571276.000000
572298.000000
573305.000000
574287.000000
575240.000000
576234.000000
577268.000000
578291.000000
579278.000000
580259.000000
581274.000000
582253.000000
583231.000000
584225.000000
585185.000000
586114.000000
587080.000000
588067.000000
588996.000000
589913.000000
590894.000000
591916.000000
592912.000000
593911.000000
594888.000000
596007.000000
597062.000000
597991.000000
599030.000000
600128.000000
601119.000000
602103.000000
603168.000000
604199.000000
605152.000000
606105.000000
607090.000000
608111.000000
609076.000000
609988.000000
610953.000000
611944.000000
612901.000000
613887.000000
614944.000000
616020.000000
617081.000000
618088.000000
619081.000000
620058.000000
621038.000000
622061.000000
623059.000000
624031.000000
625030.000000
626079.000000
627203.000000
628263.000000
629349.000000
630545.000000
631622.000000
632613.000000
633655.000000
634728.000000
635775.000000
637003.000000
638114.000000
639113.000000
640139.000000
641169.000000
642160.000000
643117.000000
644121.000000
645167.000000
646185.000000
647159.000000
648153.000000
649175.000000
650203.000000
651233.000000
652213.000000
653191.000000
654234.000000
655237.000000
656239.000000
657302.000000
658413.000000
659473.000000
660510.000000
661596.000000
662701.000000
663807.000000
664916.000000
666011.000000
667067.000000
668074.000000
669103.000000
670124.000000
671108.000000
672087.000000
673098.000000
674108.000000
675108.000000
676089.000000
677040.000000
677929.000000
678898.000000
680007.000000
681124.000000
682178.000000
683186.000000
684255.000000
685303.000000
686287.000000
687281.000000
688367.000000
689408.000000
690343.000000
691298.000000
692303.000000
693291.000000
694196.000000
695119.000000
696101.000000
697109.000000
698104.000000
699059.000000
700064.000000
701078.000000
702070.000000
703052.000000
704033.000000
705007.000000
705983.000000
706920.000000
707857.000000
708808.000000
709769.000000
710715.000000
711663.000000
712641.000000
713642.000000
714609.000000
715553.000000
716506.000000
717640.000000
718636.000000
719515.000000
720416.000000
721572.000000
722677.000000
723781.000000
724944.000000
726096.000000
727113.000000
728185.000000
729214.000000
730128.000000
730942.000000
731706.000000
732492.000000
733345.000000
734277.000000
735246.000000
736184.000000
737147.000000
738113.000000
738991.000000
739850.000000
740740.000000
741667.000000
742580.000000
743437.000000
744321.000000
745257.000000
746210.000000
747109.000000
748013.000000
748924.000000
749837.000000
750709.000000
751573.000000
752490.000000
753458.000000
754467.000000
755438.000000
756417.000000
757357.000000
758244.000000
759145.000000
760074.000000
761026.000000
761993.000000
762954.000000
763935.000000
764944.000000
765952.000000
766938.000000
767910.000000
768866.000000
769815.000000
770781.000000
771740.000000
772726.000000
773755.000000
774772.000000
775776.000000
776712.000000
777655.000000
778650.000000
779678.000000
780727.000000
781782.000000
782829.000000
783840.000000
784818.000000
785754.000000
786698.000000
787679.000000
788694.000000
789748.000000
790786.000000
791705.000000
792636.000000
793712.000000
794763.000000
795895.000000
797055.000000
798142.000000
799162.000000
800192.000000
801206.000000
802159.000000
803146.000000
804188.000000
805217.000000
806226.000000
807240.000000
808258.000000
809269.000000
810283.000000
811297.000000
812304.000000
813311.000000
814330.000000
815335.000000
816317.000000
817302.000000
818303.000000
819357.000000
820397.000000
821423.000000
822461.000000
823526.000000
824592.000000
825634.000000
826633.000000
827543.000000
828441.000000
829483.000000
830643.000000
831795.000000
832833.000000
833917.000000
834985.000000
835990.000000
836910.000000
837872.000000
838892.000000
839895.000000
840908.000000
842028.000000
843160.000000
844246.000000
845291.000000
846315.000000
847316.000000
848271.000000
849175.000000
850127.000000
851146.000000
852204.000000
853272.000000
854353.000000
855398.000000
856412.000000
857406.000000
858398.000000
859410.000000
860445.000000
861567.000000
862639.000000
863622.000000
864582.000000
865621.000000
866685.000000
867703.000000
868682.000000
869754.000000
870841.000000
871875.000000
872896.000000
873926.000000
874941.000000
875915.000000
876897.000000
877894.000000
878898.000000
879942.000000
881010.000000
882064.000000
883104.000000
884097.000000
885093.000000
886131.000000
887182.000000
888233.000000
889253.000000
890237.000000
891255.000000
892275.000000
893286.000000
894284.000000
895319.000000
896414.000000
897449.000000
898322.000000
899211.000000
900213.000000
901203.000000
902190.000000
903324.000000
904382.000000
905351.000000
906388.000000
907426.000000
908403.000000
909353.000000
910311.000000
911282.000000
912210.000000
913121.000000
914069.000000
915077.000000
916074.000000
917053.000000
918003.000000
918947.000000
919891.000000
920874.000000
921807.000000
922695.000000
923652.000000
924692.000000
925747.000000
926818.000000
927868.000000
928855.000000
929805.000000
930766.000000
931764.000000
932672.000000
933607.000000
934750.000000
935874.000000
936884.000000
937792.000000
938802.000000
939904.000000
940992.000000
942016.000000
943020.000000
944030.000000
945033.000000
946017.000000
946998.000000
948024.000000
949061.000000
950125.000000
951127.000000
952112.000000
953120.000000
954129.000000
955124.000000
956155.000000
957290.000000
958406.000000
959485.000000
960492.000000
961461.000000
962423.000000
963342.000000
964314.000000
965385.000000
966396.000000
967460.000000
968618.000000
969727.000000
970732.000000
971791.000000
972848.000000
973869.000000
974830.000000
975716.000000
976601.000000
977569.000000
978598.000000
979601.000000
980571.000000
981565.000000
982570.000000
983525.000000
984476.000000
985478.000000
986472.000000
987408.000000
988370.000000
989386.000000
990411.000000
991390.000000
992362.000000
993374.000000
994480.000000
995433.000000
996314.000000
997242.000000
998454.000000
999519.000000
1000598.000000
1001758.000000
1002912.000000
1003988.000000
1004959.000000
1005966.000000
1006990.000000
1008001.000000
1008991.000000
1010064.000000
1011197.000000
1012356.000000
1013432.000000
1014456.000000
1015467.000000
1016468.000000
1017446.000000
1018393.000000
1019349.000000
1020392.000000
1021466.000000
1022479.000000
1023498.000000
1024461.000000
1025475.000000
1026576.000000
1027627.000000
1028624.000000
1029624.000000
1030616.000000
1031542.000000
1032477.000000
1033462.000000
1034473.000000
1035439.000000
1036577.000000
1037652.000000
1038570.000000
1039447.000000
1040569.000000
1041615.000000
1042546.000000
1043599.000000
1044692.000000
1045684.000000
1046618.000000
1047620.000000
1048647.000000
1049652.000000
1050590.000000
1051481.000000
1052411.000000
1053409.000000
1054408.000000
1055365.000000
1056321.000000
1057306.000000
1058273.000000
1059225.000000
1060188.000000
1061208.000000
1062136.000000
1063128.000000
1064215.000000
1065384.000000
1066510.000000
1067604.000000
1068676.000000
1069738.000000
1070757.000000
1071765.000000
1072792.000000
1073825.000000
1074895.000000
1075929.000000
1076922.000000
1077953.000000
1079006.000000
1080034.000000
1081023.000000
1081915.000000
1082886.000000
1083971.000000
1085073.000000
1086184.000000
1087424.000000
1088500.000000
1089438.000000
1090420.000000
1091539.000000
1092659.000000
1093716.000000
1094780.000000
1095865.000000
1096887.000000
1097953.000000
1099078.000000
1100218.000000
1101305.000000
1102441.000000
1103570.000000
1104608.000000
1105604.000000
1106637.000000
1107680.000000
1108684.000000
1109640.000000
1110652.000000
1111720.000000
1112829.000000
1113898.000000
1114917.000000
1116050.000000
1117132.000000
1118170.000000
1119161.000000
1120122.000000
1121298.000000
1122361.000000
1123254.000000
1124137.000000
1125216.000000
1126238.000000
1127317.000000
1128533.000000
1129658.000000
1130681.000000
1131818.000000
1132867.000000
1133807.000000
1134728.000000
1135725.000000
1136756.000000
1137778.000000
1138802.000000
1139836.000000
1140842.000000
1141826.000000
1142817.000000
1143800.000000
1144776.000000
1145774.000000
1146787.000000
1147763.000000
1148752.000000
1149727.000000
1150715.000000
1151723.000000
1152699.000000
1153635.000000
1154581.000000
1155578.000000
1156587.000000
1157584.000000
1158592.000000
1159552.000000
1160503.000000
1161378.000000
1162269.000000
1163399.000000
1164476.000000
1165493.000000
1166692.000000
1167822.000000
1168859.000000
1169845.000000
1170886.000000
1171948.000000
1172988.000000
1174029.000000
1175090.000000
1176143.000000
1177141.000000
1178077.000000
1179039.000000
1180114.000000
1181205.000000
1182318.000000
1183457.000000
1184568.000000
1185767.000000
1186821.000000
1187871.000000
1188974.000000
1190147.000000
1191287.000000
1192405.000000
1193553.000000
1194670.000000
1195716.000000
1196674.000000
1197671.000000
1198673.000000
1199741.000000
1200727.000000
1201679.000000
1202807.000000
1203929.000000
1204961.000000
1206197.000000
1207448.000000
1208576.000000
1209626.000000
1210748.000000
1211813.000000
1212794.000000
1213682.000000
1214489.000000
1215258.000000
1215999.000000
1216754.000000
1217561.000000
1218602.000000
1219642.000000
1220600.000000
1221554.000000
1222553.000000
1223574.000000
1224581.000000
1225585.000000
1226578.000000
1227566.000000
1228543.000000
1229501.000000
1230484.000000
1231504.000000
1232550.000000
1233578.000000
1234601.000000
1235620.000000
1236655.000000
1237700.000000
1238765.000000
1239808.000000
1240839.000000
1241837.000000
1242790.000000
1243787.000000
1244871.000000
1245943.000000
1246997.000000
1248023.000000
1249018.000000
1249905.000000
1250771.000000
1251717.000000
1252689.000000
1253789.000000
1255037.000000
1256162.000000
1257256.000000
1258353.000000
1259334.000000
1260270.000000
1261253.000000
1262258.000000
1263207.000000
1264112.000000
