ECG (ms)
59.000000
1035.000000
1968.000000
2875.000000
3723.000000
4553.000000
5355.000000
6141.000000
6947.000000
7765.000000
8650.000000
9565.000000
10536.000000
11470.000000
12382.000000
13260.000000
14172.000000
15034.000000
15861.000000
16633.000000
17381.000000
18173.000000
19097.000000
20143.000000
21102.000000
22004.000000
22914.000000
23853.000000
24758.000000
25600.000000
26407.000000
27226.000000
28086.000000
28933.000000
29775.000000
30578.000000
31353.000000
32131.000000
32917.000000
33739.000000
34558.000000
35379.000000
36241.000000
37112.000000
37923.000000
38687.000000
39445.000000
40213.000000
41009.000000
41787.000000
42564.000000
43413.000000
44315.000000
45190.000000
45991.000000
46770.000000
47594.000000
48442.000000
49254.000000
50037.000000
50855.000000
51743.000000
52661.000000
53532.000000
54354.000000
55148.000000
55969.000000
56785.000000
57577.000000
58376.000000
59188.000000
60146.000000
61196.000000
62119.000000
62956.000000
63797.000000
64696.000000
65600.000000
66508.000000
67422.000000
68295.000000
69099.000000
69877.000000
70693.000000
71695.000000
72718.000000
73615.000000
74432.000000
75222.000000
76005.000000
76849.000000
77796.000000
78801.000000
79781.000000
80773.000000
81712.000000
82592.000000
83422.000000
84250.000000
85241.000000
86359.000000
87364.000000
88305.000000
89222.000000
90227.000000
91168.000000
92066.000000
92930.000000
93806.000000
94875.000000
96000.000000
97049.000000
98003.000000
98902.000000
99810.000000
100740.000000
101637.000000
102492.000000
103384.000000
104386.000000
105346.000000
106218.000000
107047.000000
107884.000000
108772.000000
109701.000000
110639.000000
111627.000000
112657.000000
113591.000000
114512.000000
115478.000000
116430.000000
117357.000000
118213.000000
119053.000000
119966.000000
120921.000000
121897.000000
122857.000000
123834.000000
124742.000000
125580.000000
126371.000000
127209.000000
128228.000000
129259.000000
130230.000000
131230.000000
132275.000000
133275.000000
134183.000000
135026.000000
135823.000000
136648.000000
137736.000000
138768.000000
139708.000000
140581.000000
141488.000000
142442.000000
143400.000000
144317.000000
145209.000000
146054.000000
146856.000000
147678.000000
148592.000000
149508.000000
150376.000000
151201.000000
152051.000000
152940.000000
153864.000000
154744.000000
155548.000000
156314.000000
157083.000000
157939.000000
158859.000000
159791.000000
160947.000000
162032.000000
162995.000000
163852.000000
164702.000000
165552.000000
166406.000000
167263.000000
168208.000000
169166.000000
170049.000000
170894.000000
171753.000000
172652.000000
173496.000000
174296.000000
175120.000000
175973.000000
176818.000000
177644.000000
178481.000000
179352.000000
180210.000000
181039.000000
181893.000000
182760.000000
183603.000000
184412.000000
185216.000000
186052.000000
186886.000000
187713.000000
188587.000000
189460.000000
190273.000000
191099.000000
191911.000000
192703.000000
193489.000000
194252.000000
195032.000000
195848.000000
196633.000000
197413.000000
198197.000000
199050.000000
199943.000000
200820.000000
201662.000000
202511.000000
203361.000000
204152.000000
204924.000000
205695.000000
206485.000000
207287.000000
208100.000000
208985.000000
209834.000000
210591.000000
211330.000000
212052.000000
212767.000000
213503.000000
214310.000000
215136.000000
215923.000000
216685.000000
217446.000000
218218.000000
218990.000000
219746.000000
220487.000000
221235.000000
222041.000000
222850.000000
223634.000000
224390.000000
225162.000000
225965.000000
226756.000000
227547.000000
228350.000000
229162.000000
229961.000000
230735.000000
231499.000000
232256.000000
233056.000000
233859.000000
234639.000000
235469.000000
236434.000000
237391.000000
238270.000000
239125.000000
240001.000000
240876.000000
241708.000000
242518.000000
243337.000000
244194.000000
245080.000000
245957.000000
246834.000000
247742.000000
248632.000000
249455.000000
250263.000000
251162.000000
252124.000000
253059.000000
253979.000000
254924.000000
255820.000000
256644.000000
257472.000000
258358.000000
259283.000000
260178.000000
261046.000000
261923.000000
262762.000000
263610.000000
264484.000000
265415.000000
266362.000000
267248.000000
268107.000000
268962.000000
269791.000000
270605.000000
271414.000000
272270.000000
273171.000000
274082.000000
275007.000000
275975.000000
276862.000000
277697.000000
278535.000000
279417.000000
280298.000000
281263.000000
282314.000000
283328.000000
284245.000000
285103.000000
285955.000000
286798.000000
287657.000000
288545.000000
289779.000000
290863.000000
291808.000000
292674.000000
293571.000000
294539.000000
295555.000000
296533.000000
297471.000000
298374.000000
299281.000000
300151.000000
300988.000000
301824.000000
302761.000000
303743.000000
304652.000000
305541.000000
306418.000000
307264.000000
308086.000000
308919.000000
309796.000000
310731.000000
311633.000000
312537.000000
313425.000000
314256.000000
315038.000000
315828.000000
316664.000000
317489.000000
318318.000000
319211.000000
320162.000000
321077.000000
321954.000000
322814.000000
323675.000000
324506.000000
325323.000000
326151.000000
327021.000000
327915.000000
328775.000000
329636.000000
330541.000000
331428.000000
332247.000000
333022.000000
333788.000000
334547.000000
335309.000000
336096.000000
336975.000000
337853.000000
338670.000000
339452.000000
340236.000000
341024.000000
341791.000000
342545.000000
343311.000000
344086.000000
344854.000000
345596.000000
346373.000000
347179.000000
348001.000000
348853.000000
349726.000000
350593.000000
351407.000000
352187.000000
352973.000000
353811.000000
354648.000000
355441.000000
356218.000000
357017.000000
357832.000000
358621.000000
359397.000000
360176.000000
360971.000000
361761.000000
362534.000000
363300.000000
364097.000000
364922.000000
365718.000000
366476.000000
367240.000000
368023.000000
368796.000000
369548.000000
370305.000000
371106.000000
371942.000000
372748.000000
373524.000000
374271.000000
375037.000000
375807.000000
376556.000000
377290.000000
378063.000000
378872.000000
379660.000000
380397.000000
381100.000000
381767.000000
382458.000000
383176.000000
383896.000000
384616.000000
385390.000000
386245.000000
387078.000000
387875.000000
388677.000000
389511.000000
390320.000000
391118.000000
391945.000000
392797.000000
393647.000000
394506.000000
395381.000000
396261.000000
397127.000000
397970.000000
398820.000000
399791.000000
400735.000000
401617.000000
402459.000000
403288.000000
404145.000000
404978.000000
405791.000000
406561.000000
407325.000000
408159.000000
409061.000000
409911.000000
410731.000000
411536.000000
412329.000000
413124.000000
413915.000000
414732.000000
415608.000000
416506.000000
417365.000000
418198.000000
419071.000000
419930.000000
420742.000000
421524.000000
422318.000000
423183.000000
424135.000000
425057.000000
425916.000000
426755.000000
427567.000000
428366.000000
429179.000000
430059.000000
431014.000000
432018.000000
432973.000000
433856.000000
434730.000000
435597.000000
436413.000000
437229.000000
438090.000000
439215.000000
440203.000000
441107.000000
441950.000000
442793.000000
443704.000000
444656.000000
445583.000000
446564.000000
447573.000000
448513.000000
449397.000000
450292.000000
451181.000000
452045.000000
452898.000000
453825.000000
454833.000000
455826.000000
456745.000000
457649.000000
458565.000000
459439.000000
460266.000000
461087.000000
461970.000000
463041.000000
464081.000000
464980.000000
465823.000000
466655.000000
467548.000000
468437.000000
469344.000000
470280.000000
471303.000000
472302.000000
473228.000000
474086.000000
475008.000000
476031.000000
476999.000000
477876.000000
478745.000000
479622.000000
480464.000000
481305.000000
482190.000000
483165.000000
484071.000000
484933.000000
485821.000000
486723.000000
487621.000000
488485.000000
489321.000000
490192.000000
491062.000000
491898.000000
492740.000000
493712.000000
494662.000000
495533.000000
496359.000000
497166.000000
497966.000000
498747.000000
499547.000000
500410.000000
501574.000000
502594.000000
503474.000000
504279.000000
505027.000000
505762.000000
506531.000000
507493.000000
508550.000000
509538.000000
510498.000000
511411.000000
512347.000000
513265.000000
514148.000000
515111.000000
516046.000000
516927.000000
517751.000000
518585.000000
519469.000000
520435.000000
521347.000000
522225.000000
523128.000000
524053.000000
524928.000000
525764.000000
526588.000000
527432.000000
528267.000000
529089.000000
529943.000000
530990.000000
531971.000000
532851.000000
533711.000000
534605.000000
535463.000000
536304.000000
537210.000000
538213.000000
539156.000000
540107.000000
541090.000000
542026.000000
542916.000000
543882.000000
544833.000000
545733.000000
546609.000000
547491.000000
548345.000000
549179.000000
550015.000000
550901.000000
551797.000000
552641.000000
553471.000000
554339.000000
555258.000000
556116.000000
556936.000000
557771.000000
558626.000000
559459.000000
560272.000000
561082.000000
561915.000000
562728.000000
563524.000000
564315.000000
565152.000000
566013.000000
566839.000000
567651.000000
568486.000000
569331.000000
570161.000000
570962.000000
571748.000000
572541.000000
573376.000000
574173.000000
574954.000000
575763.000000
576627.000000
577537.000000
578421.000000
579280.000000
580139.000000
580979.000000
581777.000000
582566.000000
583352.000000
584208.000000
585087.000000
585961.000000
586829.000000
587709.000000
588585.000000
589430.000000
590272.000000
591133.000000
591972.000000
592777.000000
593585.000000
594457.000000
595418.000000
596375.000000
597340.000000
598289.000000
599138.000000
599950.000000
600775.000000
601644.000000
602530.000000
603376.000000
604267.000000
605213.000000
606133.000000
607044.000000
608051.000000
608994.000000
609882.000000
610722.000000
611588.000000
612454.000000
613324.000000
614305.000000
615364.000000
616327.000000
617219.000000
618146.000000
619106.000000
619980.000000
620803.000000
621636.000000
622543.000000
623433.000000
624356.000000
625411.000000
626519.000000
627485.000000
628419.000000
629273.000000
630087.000000
630908.000000
631760.000000
632920.000000
633985.000000
634938.000000
635813.000000
636747.000000
637879.000000
638949.000000
639895.000000
640785.000000
641664.000000
642605.000000
643613.000000
644532.000000
645413.000000
646284.000000
647228.000000
648152.000000
649038.000000
649955.000000
650870.000000
651749.000000
652622.000000
653513.000000
654347.000000
655138.000000
655924.000000
656763.000000
657721.000000
658653.000000
659666.000000
660692.000000
661618.000000
662469.000000
663310.000000
664278.000000
665337.000000
666311.000000
667243.000000
668331.000000
669391.000000
670375.000000
671284.000000
672173.000000
673123.000000
674100.000000
675036.000000
675920.000000
676764.000000
677626.000000
678580.000000
679592.000000
680528.000000
681399.000000
682222.000000
683092.000000
683981.000000
684849.000000
685683.000000
686525.000000
687434.000000
688390.000000
689315.000000
690181.000000
691035.000000
691904.000000
692777.000000
693640.000000
694562.000000
695600.000000
696583.000000
697532.000000
698521.000000
699465.000000
700359.000000
701242.000000
702228.000000
703308.000000
704268.000000
705147.000000
706023.000000
706881.000000
707729.000000
708563.000000
709455.000000
710451.000000
711404.000000
712294.000000
713148.000000
714007.000000
714855.000000
715682.000000
716588.000000
717730.000000
718760.000000
719755.000000
720670.000000
721539.000000
722357.000000
723168.000000
724058.000000
725149.000000
726153.000000
727069.000000
728030.000000
729007.000000
729926.000000
730795.000000
731718.000000
732889.000000
733910.000000
734875.000000
735838.000000
736851.000000
737793.000000
738696.000000
739645.000000
740618.000000
741533.000000
742409.000000
743316.000000
744256.000000
745183.000000
746085.000000
747040.000000
748125.000000
749145.000000
750070.000000
750955.000000
751834.000000
752744.000000
753666.000000
754694.000000
755760.000000
756768.000000
757764.000000
758659.000000
759478.000000
760271.000000
761146.000000
762112.000000
763125.000000
764083.000000
765018.000000
765945.000000
766895.000000
767790.000000
768640.000000
769506.000000
770446.000000
771373.000000
772263.000000
773164.000000
774033.000000
774859.000000
775654.000000
776453.000000
777293.000000
778149.000000
778988.000000
779826.000000
780691.000000
781544.000000
782370.000000
783188.000000
784021.000000
784823.000000
785614.000000
786437.000000
787317.000000
788211.000000
789157.000000
790230.000000
791288.000000
792231.000000
793136.000000
794023.000000
794865.000000
795710.000000
796524.000000
797416.000000
798447.000000
799433.000000
800348.000000
801240.000000
802143.000000
803016.000000
803835.000000
804636.000000
805446.000000
806293.000000
807243.000000
808248.000000
809275.000000
810224.000000
811077.000000
811875.000000
812670.000000
813488.000000
814303.000000
815102.000000
815918.000000
816875.000000
817812.000000
818713.000000
819658.000000
820699.000000
821611.000000
822435.000000
823247.000000
824106.000000
824953.000000
825788.000000
826634.000000
827603.000000
828635.000000
829560.000000
830430.000000
831280.000000
832144.000000
832979.000000
833845.000000
835000.000000
836020.000000
836910.000000
837790.000000
838661.000000
839600.000000
840686.000000
841734.000000
842694.000000
843616.000000
844540.000000
845514.000000
846451.000000
847383.000000
848411.000000
849462.000000
850389.000000
851234.000000
852065.000000
852921.000000
853810.000000
854685.000000
855586.000000
856555.000000
857498.000000
858359.000000
859164.000000
859965.000000
860789.000000
861628.000000
862461.000000
863368.000000
864323.000000
865229.000000
866111.000000
866972.000000
867826.000000
868632.000000
869444.000000
870284.000000
871094.000000
871884.000000
872652.000000
873393.000000
874152.000000
874980.000000
875846.000000
876719.000000
877544.000000
878355.000000
879137.000000
879883.000000
880608.000000
881334.000000
882078.000000
882836.000000
883613.000000
884396.000000
885228.000000
886066.000000
886866.000000
887635.000000
888395.000000
889202.000000
890026.000000
890852.000000
891642.000000
892435.000000
893304.000000
894140.000000
894937.000000
895720.000000
896552.000000
897401.000000
898237.000000
899064.000000
900114.000000
901134.000000
902048.000000
902866.000000
903663.000000
904503.000000
905375.000000
906256.000000
907173.000000
908293.000000
909357.000000
910272.000000
911151.000000
912054.000000
912992.000000
913943.000000
915031.000000
916066.000000
917015.000000
917943.000000
918915.000000
919851.000000
920768.000000
921773.000000
922850.000000
923841.000000
924821.000000
925817.000000
926759.000000
927779.000000
928807.000000
929803.000000
930722.000000
931691.000000
932755.000000
933757.000000
934747.000000
935815.000000
936888.000000
937884.000000
938903.000000
939984.000000
941098.000000
942122.000000
943195.000000
944230.000000
945158.000000
945996.000000
946798.000000
947534.000000
948250.000000
948984.000000
949875.000000
950744.000000
951582.000000
952423.000000
953277.000000
954138.000000
955014.000000
955854.000000
956706.000000
957548.000000
958385.000000
959189.000000
959973.000000
960775.000000
961575.000000
962377.000000
963162.000000
963960.000000
964768.000000
965573.000000
966355.000000
967130.000000
967924.000000
968732.000000
969541.000000
970339.000000
971142.000000
971964.000000
972798.000000
973602.000000
974410.000000
975251.000000
976092.000000
976929.000000
977771.000000
978617.000000
979458.000000
980314.000000
981206.000000
982233.000000
983225.000000
984153.000000
985022.000000
985853.000000
986690.000000
987527.000000
988363.000000
989249.000000
990265.000000
991278.000000
992249.000000
993230.000000
994171.000000
995064.000000
995909.000000
996797.000000
997842.000000
998864.000000
999843.000000
1000818.000000
1001745.000000
1002607.000000
1003441.000000
1004312.000000
1005250.000000
1006260.000000
1007376.000000
1008439.000000
1009365.000000
1010251.000000
1011151.000000
1012075.000000
1012999.000000
1014041.000000
1015132.000000
1016157.000000
1017084.000000
1018034.000000
1019082.000000
1020062.000000
1020986.000000
1021965.000000
1023026.000000
1024007.000000
1024925.000000
1025845.000000
1026782.000000
1027677.000000
1028564.000000
1029570.000000
1030670.000000
1031683.000000
1032647.000000
1033625.000000
1034572.000000
1035454.000000
1036350.000000
1037309.000000
1038279.000000
1039252.000000
1040301.000000
1041331.000000
1042311.000000
1043247.000000
1044196.000000
1045136.000000
1046054.000000
1047106.000000
1048226.000000
1049273.000000
1050283.000000
1051283.000000
1052203.000000
1053114.000000
1054311.000000
1055322.000000
1056250.000000
1057198.000000
1058236.000000
1059242.000000
1060216.000000
1061222.000000
1062204.000000
1063122.000000
1064009.000000
1064944.000000
1066046.000000
1067047.000000
1068074.000000
1069134.000000
1070116.000000
1070984.000000
1071809.000000
1072650.000000
1073566.000000
1074541.000000
1075497.000000
1076328.000000
1077093.000000
1077837.000000
1078754.000000
1079929.000000
1081037.000000
1082085.000000
1083050.000000
1083917.000000
1084745.000000
1085586.000000
1086425.000000
1087245.000000
1088106.000000
1089271.000000
1090303.000000
1091243.000000
1092110.000000
1092967.000000
1093808.000000
1094650.000000
1095568.000000
1096564.000000
1097543.000000
1098579.000000
1099634.000000
1100558.000000
1101398.000000
1102239.000000
1103174.000000
1104084.000000
1104960.000000
1106015.000000
1107090.000000
1108068.000000
1109049.000000
1110030.000000
1110974.000000
1111904.000000
1112870.000000
1113826.000000
1114743.000000
1115842.000000
1116939.000000
1117931.000000
1118921.000000
1119886.000000
1120808.000000
1121668.000000
1122558.000000
1123805.000000
1124922.000000
1125874.000000
1126885.000000
1127919.000000
1128867.000000
1129803.000000
1130938.000000
1132016.000000
1133032.000000
1134070.000000
1135159.000000
1136136.000000
1137009.000000
1137843.000000
1138696.000000
1139595.000000
1140486.000000
1141386.000000
1142416.000000
1143460.000000
1144400.000000
1145330.000000
1146243.000000
1147090.000000
1147897.000000
1148724.000000
1149723.000000
1150771.000000
1151783.000000
1152798.000000
1153792.000000
1154702.000000
1155584.000000
1156456.000000
1157325.000000
1158220.000000
1159224.000000
1160317.000000
1161371.000000
1162313.000000
1163191.000000
1164029.000000
1164839.000000
1165636.000000
1166459.000000
1167456.000000
1168528.000000
1169529.000000
1170584.000000
1171638.000000
1172589.000000
1173443.000000
1174262.000000
1175106.000000
1175994.000000
1176915.000000
1177844.000000
1178874.000000
1179915.000000
1180881.000000
1181750.000000
1182604.000000
1183483.000000
1184343.000000
1185290.000000
1186431.000000
1187494.000000
1188453.000000
1189378.000000
1190389.000000
1191326.000000
1192233.000000
1193268.000000
1194355.000000
1195344.000000
1196351.000000
1197385.000000
1198388.000000
1199318.000000
1200269.000000
1201373.000000
1202417.000000
1203357.000000
1204300.000000
1205250.000000
1206195.000000
1207148.000000
1208269.000000
1209313.000000
1210258.000000
1211155.000000
1212076.000000
1213022.000000
1213924.000000
1214820.000000
1215860.000000
1216875.000000
1217813.000000
1218750.000000
1219680.000000
1220555.000000
1221419.000000
1222282.000000
1223128.000000
1223952.000000
1224795.000000
1225694.000000
1226606.000000
1227488.000000
1228407.000000
1229328.000000
1230202.000000
1231068.000000
1231965.000000
1232834.000000
1233707.000000
1234636.000000
1235642.000000
1236574.000000
1237513.000000
1238451.000000
1239338.000000
1240208.000000
1241086.000000
1242035.000000
1243001.000000
1244076.000000
1245157.000000
1246120.000000
1246994.000000
1247852.000000
1248802.000000
1249865.000000
1250858.000000
1251797.000000
1252751.000000
1253782.000000
1254770.000000
1255657.000000
1256504.000000
1257337.000000
1258157.000000
1258957.000000
1259750.000000
1260608.000000
1261574.000000
1262562.000000
1263494.000000
1264394.000000
1265249.000000
1266055.000000
1266817.000000
1267551.000000
1268280.000000
1269036.000000
1269752.000000
1270544.000000
1271422.000000
1272274.000000
1273156.000000
1274065.000000
1274947.000000
1275783.000000
1276595.000000
1277435.000000
1278299.000000
1279144.000000
1279967.000000
1280790.000000
1281612.000000
1282411.000000
1283203.000000
1284027.000000
1284940.000000
1285820.000000
1286684.000000
1287584.000000
1288482.000000
1289322.000000
1290161.000000
1291023.000000
1291922.000000
1292824.000000
1293786.000000
1294814.000000
1295817.000000
1296763.000000
1297645.000000
1298538.000000
1299466.000000
1300477.000000
1301476.000000
1302454.000000
1303371.000000
1304297.000000
1305273.000000
1306217.000000
1307109.000000
1307971.000000
1308878.000000
1309805.000000
1310717.000000
1311582.000000
1312438.000000
1313342.000000
1314304.000000
1315256.000000
1316198.000000
1317199.000000
1318206.000000
1319143.000000
1320072.000000
1320990.000000
1321873.000000
1322714.000000
1323606.000000
1324565.000000
1325544.000000
1326435.000000
1327303.000000
1328234.000000
1329206.000000
1330130.000000
1331003.000000
1331873.000000
1332776.000000
1333623.000000
1334455.000000
1335322.000000
1336270.000000
1337256.000000
1338226.000000
1339198.000000
1340137.000000
1340997.000000
1341828.000000
1342663.000000
1343530.000000
1344402.000000
1345284.000000
1346317.000000
1347362.000000
1348350.000000
1349315.000000
1350316.000000
1351282.000000
1352236.000000
1353143.000000
1354146.000000
1355258.000000
1356287.000000
1357347.000000
1358395.000000
1359360.000000
1360275.000000
1361338.000000
1362467.000000
1363541.000000
1364585.000000
1365640.000000
1366654.000000
1367569.000000
1368436.000000
1369371.000000
1370441.000000
1371497.000000
1372469.000000
1373464.000000
1374470.000000
1375440.000000
1376356.000000
1377333.000000
1378316.000000
1379226.000000
1380086.000000
1380970.000000
