ECG (ms)
373.000000
972.000000
1597.000000
2271.000000
2972.000000
3700.000000
4413.000000
5130.000000
5826.000000
6501.000000
7153.000000
7792.000000
8416.000000
9020.000000
9604.000000
10168.000000
10718.000000
11300.000000
11951.000000
12614.000000
13311.000000
14019.000000
14710.000000
15402.000000
16091.000000
16750.000000
17392.000000
18024.000000
18643.000000
19254.000000
19858.000000
20455.000000
21039.000000
21639.000000
22252.000000
22865.000000
23477.000000
24095.000000
24731.000000
25380.000000
26039.000000
26675.000000
27290.000000
27921.000000
28567.000000
29244.000000
29911.000000
30556.000000
31163.000000
31761.000000
32379.000000
33013.000000
33693.000000
34367.000000
35011.000000
35643.000000
36286.000000
36924.000000
37588.000000
38270.000000
38921.000000
39555.000000
40186.000000
40818.000000
41468.000000
42128.000000
42765.000000
43394.000000
44035.000000
44691.000000
45364.000000
46011.000000
46683.000000
47356.000000
48064.000000
48728.000000
49381.000000
50028.000000
50692.000000
51358.000000
52008.000000
52648.000000
53291.000000
53937.000000
54589.000000
55266.000000
55929.000000
56569.000000
57211.000000
57851.000000
58493.000000
59121.000000
59761.000000
60386.000000
60979.000000
61563.000000
62163.000000
62758.000000
63385.000000
64011.000000
64655.000000
65319.000000
65964.000000
66595.000000
67229.000000
67868.000000
68523.000000
69167.000000
69789.000000
70397.000000
71026.000000
71674.000000
72347.000000
73018.000000
73687.000000
74315.000000
74937.000000
75585.000000
76255.000000
76919.000000
77569.000000
78235.000000
78885.000000
79555.000000
80226.000000
80895.000000
81545.000000
82203.000000
82845.000000
83488.000000
84123.000000
84777.000000
85435.000000
86100.000000
86780.000000
87439.000000
88084.000000
88746.000000
89408.000000
90060.000000
90709.000000
91369.000000
92019.000000
92675.000000
93323.000000
93950.000000
94584.000000
95220.000000
95857.000000
96505.000000
97146.000000
97797.000000
98442.000000
99103.000000
99773.000000
100443.000000
101098.000000
101764.000000
102423.000000
103122.000000
103802.000000
104456.000000
105113.000000
105769.000000
106438.000000
107092.000000
107745.000000
108421.000000
109114.000000
109789.000000
110440.000000
111095.000000
111754.000000
112417.000000
113064.000000
113695.000000
114332.000000
114964.000000
115622.000000
116291.000000
116946.000000
117589.000000
118235.000000
118871.000000
119510.000000
120127.000000
120741.000000
121343.000000
121912.000000
122463.000000
123033.000000
123601.000000
124172.000000
124773.000000
125400.000000
126051.000000
126722.000000
127342.000000
127945.000000
128560.000000
129179.000000
129816.000000
130421.000000
131020.000000
131625.000000
132244.000000
132863.000000
133478.000000
134075.000000
134683.000000
135296.000000
135922.000000
136548.000000
137163.000000
137756.000000
138348.000000
138933.000000
139543.000000
140186.000000
140822.000000
141422.000000
142035.000000
142653.000000
143273.000000
143862.000000
144451.000000
145033.000000
145580.000000
146128.000000
146679.000000
147234.000000
147804.000000
148418.000000
149105.000000
149811.000000
150490.000000
151140.000000
151784.000000
152415.000000
153048.000000
153679.000000
154286.000000
154913.000000
155559.000000
156229.000000
156900.000000
157553.000000
158197.000000
158844.000000
159507.000000
160145.000000
160774.000000
161405.000000
162043.000000
162696.000000
163366.000000
164027.000000
164663.000000
165292.000000
165924.000000
166567.000000
167221.000000
167877.000000
168512.000000
169133.000000
169754.000000
170381.000000
171027.000000
171689.000000
172339.000000
172982.000000
173634.000000
174290.000000
174964.000000
175614.000000
176256.000000
176906.000000
177573.000000
178232.000000
178865.000000
179501.000000
180133.000000
180781.000000
181440.000000
182086.000000
182730.000000
183370.000000
184010.000000
184660.000000
185308.000000
185944.000000
186595.000000
187231.000000
187866.000000
188509.000000
189136.000000
189751.000000
190377.000000
191000.000000
191629.000000
192259.000000
192872.000000
193480.000000
194101.000000
194732.000000
195382.000000
196014.000000
196641.000000
197280.000000
197922.000000
198571.000000
199210.000000
199822.000000
200445.000000
201073.000000
201739.000000
202387.000000
203015.000000
203633.000000
204253.000000
204877.000000
205510.000000
206120.000000
206714.000000
207326.000000
207933.000000
208555.000000
209176.000000
209780.000000
210384.000000
210987.000000
211603.000000
212239.000000
212848.000000
213467.000000
214113.000000
214770.000000
215400.000000
216011.000000
216647.000000
217276.000000
217919.000000
218567.000000
219194.000000
219799.000000
220397.000000
221006.000000
221624.000000
222251.000000
222870.000000
223504.000000
224139.000000
224776.000000
225407.000000
226030.000000
226645.000000
227269.000000
227899.000000
228551.000000
229218.000000
229893.000000
230554.000000
231191.000000
231816.000000
232419.000000
232984.000000
233549.000000
234127.000000
234727.000000
235328.000000
235938.000000
236556.000000
237223.000000
237902.000000
238599.000000
239281.000000
239957.000000
240603.000000
241236.000000
241856.000000
242488.000000
243116.000000
243764.000000
244406.000000
245039.000000
245673.000000
246323.000000
247003.000000
247703.000000
248394.000000
249071.000000
249720.000000
250352.000000
250975.000000
251603.000000
252250.000000
252917.000000
253597.000000
254278.000000
254926.000000
255563.000000
256179.000000
256768.000000
257333.000000
257933.000000
258545.000000
259149.000000
259771.000000
260441.000000
261119.000000
261807.000000
262463.000000
263095.000000
263740.000000
264401.000000
265076.000000
265722.000000
266372.000000
267015.000000
267693.000000
268385.000000
269070.000000
269725.000000
270373.000000
271037.000000
271716.000000
272403.000000
273075.000000
273717.000000
274350.000000
274986.000000
275653.000000
276343.000000
277012.000000
277657.000000
278306.000000
278943.000000
279615.000000
280254.000000
280882.000000
281540.000000
282192.000000
282840.000000
283462.000000
284076.000000
284716.000000
285374.000000
286059.000000
286710.000000
287359.000000
288001.000000
288654.000000
289310.000000
289930.000000
290557.000000
291203.000000
291847.000000
292486.000000
293113.000000
293746.000000
294409.000000
295056.000000
295688.000000
296327.000000
296957.000000
297601.000000
298251.000000
298866.000000
299470.000000
300092.000000
300712.000000
301340.000000
301948.000000
302539.000000
303144.000000
303768.000000
304391.000000
305050.000000
305703.000000
306387.000000
307041.000000
307690.000000
308324.000000
308948.000000
309552.000000
310162.000000
310797.000000
311439.000000
312081.000000
312719.000000
313382.000000
314032.000000
314645.000000
315245.000000
315856.000000
316479.000000
317120.000000
317756.000000
318374.000000
319004.000000
319624.000000
320263.000000
320887.000000
321483.000000
322078.000000
322682.000000
323295.000000
323910.000000
324507.000000
325119.000000
325729.000000
326375.000000
327010.000000
327612.000000
328223.000000
328832.000000
329450.000000
330034.000000
330622.000000
331189.000000
331743.000000
332299.000000
332857.000000
333415.000000
333995.000000
334615.000000
335289.000000
335929.000000
336543.000000
337166.000000
337796.000000
338433.000000
339089.000000
339717.000000
340328.000000
340941.000000
341559.000000
342218.000000
342895.000000
343549.000000
344182.000000
344811.000000
345439.000000
346107.000000
346780.000000
347434.000000
348073.000000
348690.000000
349303.000000
349927.000000
350572.000000
351224.000000
351866.000000
352514.000000
353128.000000
353732.000000
354325.000000
354937.000000
355549.000000
356193.000000
356841.000000
357482.000000
358092.000000
358685.000000
359280.000000
359894.000000
360515.000000
361171.000000
361823.000000
362452.000000
363067.000000
363692.000000
364356.000000
365025.000000
365690.000000
366315.000000
366918.000000
367532.000000
368162.000000
368833.000000
369504.000000
370137.000000
370763.000000
371417.000000
372078.000000
372742.000000
373416.000000
374087.000000
374751.000000
375402.000000
376036.000000
376657.000000
377291.000000
377924.000000
378567.000000
379200.000000
379816.000000
380451.000000
381091.000000
381760.000000
382413.000000
383053.000000
383687.000000
384315.000000
384939.000000
385583.000000
386219.000000
386837.000000
387449.000000
388069.000000
388714.000000
389367.000000
389983.000000
390611.000000
391234.000000
391863.000000
392473.000000
393086.000000
393727.000000
394368.000000
395026.000000
395672.000000
396302.000000
396935.000000
397573.000000
398220.000000
398849.000000
399470.000000
400065.000000
400635.000000
401204.000000
401786.000000
402372.000000
402955.000000
403552.000000
404176.000000
404859.000000
405574.000000
406268.000000
406937.000000
407591.000000
408233.000000
408862.000000
409508.000000
410143.000000
410766.000000
411378.000000
411987.000000
412622.000000
413284.000000
413986.000000
414675.000000
415337.000000
415970.000000
416591.000000
417210.000000
417843.000000
418489.000000
419136.000000
419777.000000
420409.000000
421018.000000
421640.000000
422263.000000
422910.000000
423572.000000
424198.000000
424799.000000
425411.000000
426031.000000
426669.000000
427315.000000
427936.000000
428534.000000
429133.000000
429740.000000
430376.000000
431038.000000
431701.000000
432362.000000
432991.000000
433601.000000
434210.000000
434816.000000
435413.000000
435984.000000
436542.000000
437115.000000
437690.000000
438267.000000
438875.000000
439513.000000
440184.000000
440840.000000
441473.000000
442080.000000
442679.000000
443294.000000
443939.000000
444600.000000
445244.000000
445866.000000
446489.000000
447127.000000
447771.000000
448415.000000
449043.000000
449687.000000
450308.000000
450911.000000
451522.000000
452156.000000
452806.000000
453475.000000
454123.000000
454781.000000
455432.000000
456067.000000
456692.000000
457325.000000
457969.000000
458625.000000
459271.000000
459928.000000
460564.000000
461199.000000
461835.000000
462477.000000
463158.000000
463812.000000
464466.000000
465117.000000
465748.000000
466367.000000
466988.000000
467622.000000
468303.000000
468989.000000
469650.000000
470306.000000
470957.000000
471608.000000
472248.000000
472881.000000
473538.000000
474205.000000
474886.000000
475548.000000
476196.000000
476852.000000
477507.000000
478171.000000
478814.000000
479458.000000
480095.000000
480734.000000
481385.000000
482019.000000
482638.000000
483253.000000
483867.000000
484495.000000
485133.000000
485777.000000
486413.000000
487047.000000
487695.000000
488346.000000
488995.000000
489630.000000
490279.000000
490910.000000
491549.000000
492194.000000
492820.000000
493430.000000
494033.000000
494642.000000
495265.000000
495932.000000
496588.000000
497219.000000
497859.000000
498491.000000
499139.000000
499779.000000
500412.000000
501072.000000
501718.000000
502379.000000
503010.000000
503629.000000
504272.000000
504918.000000
505557.000000
506189.000000
506791.000000
507410.000000
508035.000000
508691.000000
509340.000000
509966.000000
510593.000000
511227.000000
511906.000000
512567.000000
513207.000000
513832.000000
514460.000000
515098.000000
515735.000000
516380.000000
516995.000000
517599.000000
518216.000000
518842.000000
519447.000000
520022.000000
520584.000000
521156.000000
521734.000000
522329.000000
522919.000000
523525.000000
524146.000000
524789.000000
525414.000000
526035.000000
526664.000000
527310.000000
527931.000000
528552.000000
529174.000000
529788.000000
530409.000000
531037.000000
531681.000000
532326.000000
532978.000000
533628.000000
534257.000000
534870.000000
535488.000000
536116.000000
536757.000000
537408.000000
538089.000000
538763.000000
539422.000000
540069.000000
540735.000000
541381.000000
542013.000000
542645.000000
543279.000000
543924.000000
544551.000000
545187.000000
545829.000000
546521.000000
547179.000000
547823.000000
548484.000000
549164.000000
549808.000000
550435.000000
551062.000000
551684.000000
552299.000000
552919.000000
553549.000000
554200.000000
554839.000000
555472.000000
556097.000000
556747.000000
557380.000000
558006.000000
558638.000000
559273.000000
559896.000000
560527.000000
561164.000000
561802.000000
562434.000000
563070.000000
563704.000000
564338.000000
564962.000000
565587.000000
566280.000000
566941.000000
567606.000000
568236.000000
568825.000000
569418.000000
570022.000000
570621.000000
571229.000000
571877.000000
572571.000000
573261.000000
573917.000000
574560.000000
575205.000000
575847.000000
576514.000000
577215.000000
577891.000000
578558.000000
579224.000000
579899.000000
580582.000000
581279.000000
581951.000000
582614.000000
583286.000000
583962.000000
584665.000000
585363.000000
586035.000000
586694.000000
587369.000000
588056.000000
588770.000000
589463.000000
590128.000000
590779.000000
591438.000000
592090.000000
592769.000000
593480.000000
594174.000000
594840.000000
595516.000000
596191.000000
596883.000000
597579.000000
598250.000000
598915.000000
599593.000000
600278.000000
600961.000000
601623.000000
602276.000000
602937.000000
603609.000000
604283.000000
604943.000000
605584.000000
606220.000000
606869.000000
607535.000000
608196.000000
608836.000000
609468.000000
610078.000000
610715.000000
611381.000000
612055.000000
612723.000000
613363.000000
613988.000000
614632.000000
615270.000000
615937.000000
616612.000000
617262.000000
617893.000000
618535.000000
619190.000000
619859.000000
620536.000000
621188.000000
621833.000000
622466.000000
623094.000000
623734.000000
624376.000000
625075.000000
625735.000000
626370.000000
626989.000000
627619.000000
628271.000000
628945.000000
629631.000000
630320.000000
630956.000000
631572.000000
632197.000000
632830.000000
633495.000000
634148.000000
634772.000000
635387.000000
636020.000000
636640.000000
637255.000000
637854.000000
638426.000000
638991.000000
639550.000000
640113.000000
640686.000000
641284.000000
641926.000000
642584.000000
643242.000000
643871.000000
644475.000000
645073.000000
645672.000000
646277.000000
646910.000000
647554.000000
648169.000000
648782.000000
649410.000000
650052.000000
650718.000000
651376.000000
652010.000000
652634.000000
653261.000000
653889.000000
654535.000000
655155.000000
655761.000000
656383.000000
657030.000000
657695.000000
658373.000000
659018.000000
659638.000000
660253.000000
660882.000000
661523.000000
662168.000000
662797.000000
663407.000000
664033.000000
664673.000000
665319.000000
665950.000000
666574.000000
667209.000000
667834.000000
668457.000000
669089.000000
669724.000000
670366.000000
670996.000000
671627.000000
672271.000000
672916.000000
673540.000000
674151.000000
674781.000000
675438.000000
676111.000000
676767.000000
677399.000000
678006.000000
678615.000000
679214.000000
679824.000000
680452.000000
681059.000000
681661.000000
682280.000000
682913.000000
683566.000000
684204.000000
684839.000000
685475.000000
686106.000000
686740.000000
687383.000000
688010.000000
688627.000000
689235.000000
689829.000000
690416.000000
690985.000000
691543.000000
692108.000000
692685.000000
693300.000000
693935.000000
694601.000000
695239.000000
695874.000000
696511.000000
697194.000000
697852.000000
698475.000000
699090.000000
699710.000000
700354.000000
701022.000000
701668.000000
702297.000000
702929.000000
703566.000000
704221.000000
704854.000000
705476.000000
706113.000000
706761.000000
707412.000000
708041.000000
708663.000000
709298.000000
709943.000000
710600.000000
711240.000000
711891.000000
712555.000000
713220.000000
713871.000000
714513.000000
715148.000000
715779.000000
716405.000000
717032.000000
717673.000000
718353.000000
719000.000000
719637.000000
720292.000000
720979.000000
721627.000000
722285.000000
722948.000000
723591.000000
724241.000000
724896.000000
725538.000000
726183.000000
726835.000000
727501.000000
728149.000000
728808.000000
729474.000000
730135.000000
730807.000000
731478.000000
732137.000000
732764.000000
733387.000000
734015.000000
734641.000000
735260.000000
735883.000000
736508.000000
737124.000000
737745.000000
738378.000000
739011.000000
739635.000000
740264.000000
740876.000000
741464.000000
742038.000000
742612.000000
743192.000000
743803.000000
744483.000000
745189.000000
745890.000000
746545.000000
747204.000000
747884.000000
748575.000000
749273.000000
749942.000000
750623.000000
751277.000000
751938.000000
752586.000000
753267.000000
753964.000000
754665.000000
755349.000000
756013.000000
756696.000000
757392.000000
758062.000000
758710.000000
759365.000000
760026.000000
760751.000000
761428.000000
762071.000000
762706.000000
763362.000000
764040.000000
764729.000000
765417.000000
766129.000000
766787.000000
767463.000000
768137.000000
768808.000000
769466.000000
770106.000000
770753.000000
771415.000000
772095.000000
772775.000000
773488.000000
774252.000000
774942.000000
775618.000000
776297.000000
776966.000000
777607.000000
778246.000000
778891.000000
779549.000000
780195.000000
780875.000000
781573.000000
782260.000000
782989.000000
783709.000000
784416.000000
785103.000000
785765.000000
786399.000000
787039.000000
787710.000000
788426.000000
789136.000000
789849.000000
790541.000000
791229.000000
791916.000000
792576.000000
793223.000000
793876.000000
794554.000000
795213.000000
795861.000000
796535.000000
797187.000000
797823.000000
798483.000000
799154.000000
799810.000000
800455.000000
801109.000000
801805.000000
802467.000000
803107.000000
803746.000000
804365.000000
804991.000000
805639.000000
806337.000000
806993.000000
807636.000000
808268.000000
808909.000000
809532.000000
810150.000000
810781.000000
811417.000000
812040.000000
812656.000000
813292.000000
813941.000000
814571.000000
815206.000000
815834.000000
816484.000000
817117.000000
817739.000000
818339.000000
818924.000000
819487.000000
820041.000000
820598.000000
821170.000000
821779.000000
822440.000000
823113.000000
823806.000000
824472.000000
825107.000000
825735.000000
826380.000000
827067.000000
827749.000000
828398.000000
829027.000000
829667.000000
830327.000000
831020.000000
831714.000000
832373.000000
833035.000000
833719.000000
834398.000000
835040.000000
835675.000000
836319.000000
836987.000000
837664.000000
838310.000000
838946.000000
839612.000000
840305.000000
841008.000000
841662.000000
842301.000000
842947.000000
843614.000000
844288.000000
844956.000000
845616.000000
846317.000000
847012.000000
847675.000000
848304.000000
848927.000000
849566.000000
850231.000000
850893.000000
851530.000000
852158.000000
852791.000000
853448.000000
854083.000000
854717.000000
855358.000000
856010.000000
856649.000000
857316.000000
857972.000000
858620.000000
859275.000000
859940.000000
860626.000000
861295.000000
861961.000000
862641.000000
863355.000000
864009.000000
864643.000000
865272.000000
865943.000000
866656.000000
867328.000000
868028.000000
868705.000000
869372.000000
870016.000000
870668.000000
871335.000000
872028.000000
872690.000000
873355.000000
874029.000000
874699.000000
875355.000000
876005.000000
876635.000000
877297.000000
878001.000000
878717.000000
879374.000000
880007.000000
880653.000000
881295.000000
881960.000000
882624.000000
883322.000000
884022.000000
884707.000000
885341.000000
885975.000000
886629.000000
887303.000000
887988.000000
888654.000000
889303.000000
889923.000000
890523.000000
891100.000000
891672.000000
892247.000000
892843.000000
893471.000000
894165.000000
894887.000000
895566.000000
896215.000000
896854.000000
897490.000000
898142.000000
898789.000000
899455.000000
900140.000000
900802.000000
901438.000000
902086.000000
902746.000000
903435.000000
904127.000000
904778.000000
905409.000000
906061.000000
906752.000000
907441.000000
908092.000000
908738.000000
909385.000000
910049.000000
910703.000000
911350.000000
911982.000000
912607.000000
913262.000000
913945.000000
914684.000000
915406.000000
916067.000000
916712.000000
917348.000000
917999.000000
