ECG (ms)
556.000000
1305.000000
2065.000000
2856.000000
3663.000000
4485.000000
5325.000000
6157.000000
6970.000000
7784.000000
8572.000000
9348.000000
10125.000000
10889.000000
11652.000000
12433.000000
13238.000000
14040.000000
14850.000000
15681.000000
16514.000000
17318.000000
18112.000000
18914.000000
19737.000000
20534.000000
21325.000000
22115.000000
22896.000000
23679.000000
24468.000000
25264.000000
26060.000000
26850.000000
27639.000000
28425.000000
29199.000000
29980.000000
30769.000000
31554.000000
32344.000000
33123.000000
33887.000000
34663.000000
35455.000000
36255.000000
37073.000000
37891.000000
38694.000000
39495.000000
40279.000000
41051.000000
41837.000000
42608.000000
43384.000000
44174.000000
44961.000000
45748.000000
46549.000000
47351.000000
48149.000000
48952.000000
49751.000000
50534.000000
51325.000000
52114.000000
52902.000000
53698.000000
54493.000000
55290.000000
56090.000000
56880.000000
57647.000000
58410.000000
59178.000000
59943.000000
60735.000000
61556.000000
62363.000000
63173.000000
63986.000000
64784.000000
65575.000000
66371.000000
67159.000000
67947.000000
68742.000000
69538.000000
70333.000000
71146.000000
71948.000000
72740.000000
73536.000000
74335.000000
75124.000000
75922.000000
76727.000000
77523.000000
78327.000000
79134.000000
79920.000000
80711.000000
81506.000000
82294.000000
83089.000000
83886.000000
84669.000000
85454.000000
86235.000000
87002.000000
87780.000000
88554.000000
89316.000000
90088.000000
90872.000000
91655.000000
92448.000000
93251.000000
94051.000000
94851.000000
95653.000000
96445.000000
97227.000000
98013.000000
98796.000000
99569.000000
100362.000000
101151.000000
101931.000000
102717.000000
103496.000000
104258.000000
105010.000000
105766.000000
106523.000000
107271.000000
108033.000000
108809.000000
109596.000000
110391.000000
111197.000000
111999.000000
112787.000000
113573.000000
114339.000000
115081.000000
115827.000000
116563.000000
117320.000000
118105.000000
118907.000000
119710.000000
120526.000000
121345.000000
122152.000000
122962.000000
123768.000000
124567.000000
125354.000000
126140.000000
126931.000000
127721.000000
128538.000000
129354.000000
130151.000000
130946.000000
131732.000000
132506.000000
133294.000000
134111.000000
134938.000000
135784.000000
136632.000000
137455.000000
138275.000000
139078.000000
139858.000000
140627.000000
141385.000000
142148.000000
142924.000000
143720.000000
144519.000000
145316.000000
146119.000000
146911.000000
147710.000000
148506.000000
149295.000000
150098.000000
150901.000000
151692.000000
152486.000000
153281.000000
154065.000000
154878.000000
155697.000000
156500.000000
157305.000000
158114.000000
158899.000000
159683.000000
160462.000000
161236.000000
162012.000000
162790.000000
163564.000000
164349.000000
165157.000000
165973.000000
166777.000000
167582.000000
168373.000000
169143.000000
169918.000000
170694.000000
171461.000000
172231.000000
173010.000000
173798.000000
174589.000000
175400.000000
176215.000000
177013.000000
177804.000000
178586.000000
179347.000000
180104.000000
180859.000000
181616.000000
182385.000000
183169.000000
183979.000000
184788.000000
185610.000000
186428.000000
187218.000000
188011.000000
188801.000000
189584.000000
190382.000000
191173.000000
191922.000000
192642.000000
193367.000000
194097.000000
194844.000000
195584.000000
196316.000000
197043.000000
197767.000000
198495.000000
199220.000000
199948.000000
200663.000000
201358.000000
202039.000000
202726.000000
203419.000000
204129.000000
204854.000000
205582.000000
206322.000000
207062.000000
207789.000000
208495.000000
209196.000000
209895.000000
210609.000000
211341.000000
212087.000000
212845.000000
213603.000000
214369.000000
215150.000000
215920.000000
216701.000000
217466.000000
218210.000000
218924.000000
219622.000000
220306.000000
220986.000000
221657.000000
222319.000000
222996.000000
223710.000000
224448.000000
225182.000000
225894.000000
226577.000000
227258.000000
227934.000000
228620.000000
229322.000000
230057.000000
230799.000000
231549.000000
232282.000000
232997.000000
233707.000000
234413.000000
235122.000000
235830.000000
236548.000000
237275.000000
238017.000000
238767.000000
239531.000000
240283.000000
241010.000000
241721.000000
242413.000000
243098.000000
243789.000000
244477.000000
245177.000000
245882.000000
246600.000000
247342.000000
248080.000000
248813.000000
249546.000000
250264.000000
250965.000000
251661.000000
252346.000000
253025.000000
253710.000000
254408.000000
255125.000000
255861.000000
256578.000000
257283.000000
257977.000000
258662.000000
259343.000000
260033.000000
260728.000000
261437.000000
262152.000000
262859.000000
263563.000000
264259.000000
264947.000000
265635.000000
266335.000000
267038.000000
267741.000000
268458.000000
269184.000000
269911.000000
270632.000000
271350.000000
272067.000000
272782.000000
273500.000000
274217.000000
274925.000000
275630.000000
276339.000000
277046.000000
277754.000000
278467.000000
279179.000000
279903.000000
280627.000000
281350.000000
282075.000000
282801.000000
283528.000000
284258.000000
284995.000000
285723.000000
286444.000000
287163.000000
287870.000000
288570.000000
289272.000000
289982.000000
290704.000000
291446.000000
292205.000000
292974.000000
293728.000000
294491.000000
295244.000000
295988.000000
296724.000000
297452.000000
298184.000000
298926.000000
299679.000000
300438.000000
301222.000000
302004.000000
302763.000000
303518.000000
304260.000000
304986.000000
305717.000000
306459.000000
307222.000000
308003.000000
308790.000000
309572.000000
310361.000000
311153.000000
311936.000000
312711.000000
313471.000000
314204.000000
314935.000000
315668.000000
316419.000000
317208.000000
318051.000000
318907.000000
319734.000000
320549.000000
321337.000000
322101.000000
322857.000000
323596.000000
324319.000000
325039.000000
325762.000000
326477.000000
327216.000000
327987.000000
328781.000000
329589.000000
330385.000000
331157.000000
331933.000000
332704.000000
333464.000000
334222.000000
334989.000000
335768.000000
336561.000000
337366.000000
338145.000000
338925.000000
339707.000000
340481.000000
341248.000000
342022.000000
342802.000000
343568.000000
344328.000000
345087.000000
345856.000000
346631.000000
347417.000000
348186.000000
348950.000000
349705.000000
350455.000000
351204.000000
351954.000000
352703.000000
353470.000000
354254.000000
355038.000000
355837.000000
356638.000000
357424.000000
358207.000000
358988.000000
359768.000000
360565.000000
361358.000000
362133.000000
362923.000000
363727.000000
364523.000000
365317.000000
366110.000000
366881.000000
367662.000000
368454.000000
369237.000000
369999.000000
370781.000000
371572.000000
372349.000000
373122.000000
373905.000000
374695.000000
375472.000000
376242.000000
377017.000000
377789.000000
378549.000000
379325.000000
380103.000000
380859.000000
381614.000000
382361.000000
383105.000000
383852.000000
384613.000000
385368.000000
386132.000000
386912.000000
387692.000000
388457.000000
389228.000000
389978.000000
390712.000000
391447.000000
392181.000000
392914.000000
393654.000000
394411.000000
395180.000000
395936.000000
396695.000000
397454.000000
398201.000000
398940.000000
399691.000000
400429.000000
401155.000000
401882.000000
402594.000000
403290.000000
403986.000000
404689.000000
405402.000000
406105.000000
406787.000000
407486.000000
408205.000000
408940.000000
409679.000000
410423.000000
411159.000000
411882.000000
412596.000000
413300.000000
414005.000000
414712.000000
415421.000000
416136.000000
416857.000000
417590.000000
418336.000000
419081.000000
419820.000000
420565.000000
421305.000000
422021.000000
422742.000000
423453.000000
424172.000000
424906.000000
425655.000000
426417.000000
427201.000000
427991.000000
428760.000000
429517.000000
430263.000000
430996.000000
431728.000000
432452.000000
433178.000000
433906.000000
434655.000000
435434.000000
436219.000000
437002.000000
437784.000000
438555.000000
439319.000000
440096.000000
440881.000000
441666.000000
442453.000000
443233.000000
444005.000000
444771.000000
445523.000000
446266.000000
447011.000000
447755.000000
448502.000000
449255.000000
450010.000000
450768.000000
451544.000000
452323.000000
453105.000000
453885.000000
454652.000000
455412.000000
456169.000000
456925.000000
457671.000000
458417.000000
459170.000000
459931.000000
460697.000000
461477.000000
462262.000000
463042.000000
463825.000000
464603.000000
465365.000000
466124.000000
466880.000000
467632.000000
468396.000000
469179.000000
469969.000000
470752.000000
471543.000000
472325.000000
473094.000000
473864.000000
474626.000000
475384.000000
476147.000000
476923.000000
477696.000000
478468.000000
479243.000000
480021.000000
480792.000000
481564.000000
482344.000000
483115.000000
483878.000000
484632.000000
485384.000000
486130.000000
486889.000000
487655.000000
488415.000000
489183.000000
489952.000000
490713.000000
491473.000000
492229.000000
492968.000000
493700.000000
494434.000000
495166.000000
495904.000000
496661.000000
497422.000000
498185.000000
498958.000000
499728.000000
500495.000000
501269.000000
502041.000000
502806.000000
503572.000000
504329.000000
505079.000000
505832.000000
506589.000000
507345.000000
508118.000000
508893.000000
509667.000000
510452.000000
511239.000000
512020.000000
512812.000000
513605.000000
514390.000000
515182.000000
515955.000000
516707.000000
517456.000000
518212.000000
518970.000000
519752.000000
520542.000000
521328.000000
522115.000000
522894.000000
523646.000000
524385.000000
525118.000000
525842.000000
526578.000000
527339.000000
528147.000000
528960.000000
529775.000000
530573.000000
531354.000000
532132.000000
532896.000000
533651.000000
534418.000000
535193.000000
535976.000000
536770.000000
537558.000000
538328.000000
539087.000000
539844.000000
540593.000000
541345.000000
542100.000000
542857.000000
543609.000000
544377.000000
545143.000000
545902.000000
546657.000000
547410.000000
548148.000000
548888.000000
549640.000000
550385.000000
551133.000000
551877.000000
552624.000000
553380.000000
554136.000000
554897.000000
555633.000000
556336.000000
557027.000000
557716.000000
558407.000000
559100.000000
559807.000000
560527.000000
561269.000000
562014.000000
562763.000000
563505.000000
564244.000000
564972.000000
565693.000000
566418.000000
567148.000000
567881.000000
568618.000000
569363.000000
570115.000000
570858.000000
571595.000000
572335.000000
573067.000000
573815.000000
574569.000000
575314.000000
576069.000000
576835.000000
577607.000000
578370.000000
579133.000000
579882.000000
580620.000000
581357.000000
582092.000000
582832.000000
583586.000000
584354.000000
585118.000000
585883.000000
586643.000000
587388.000000
588131.000000
588870.000000
589603.000000
590344.000000
591092.000000
591840.000000
592595.000000
593357.000000
594107.000000
594840.000000
595558.000000
596256.000000
596950.000000
597644.000000
598369.000000
599139.000000
599940.000000
600773.000000
601613.000000
602419.000000
603220.000000
604007.000000
604785.000000
605566.000000
606335.000000
607099.000000
607868.000000
608646.000000
609436.000000
610238.000000
611054.000000
611862.000000
612671.000000
613487.000000
614287.000000
615085.000000
615869.000000
616650.000000
617430.000000
618216.000000
619015.000000
619829.000000
620646.000000
621445.000000
622241.000000
623023.000000
623799.000000
624574.000000
625344.000000
626118.000000
626902.000000
627686.000000
628453.000000
629236.000000
630013.000000
630786.000000
631571.000000
632369.000000
633156.000000
633951.000000
634752.000000
635541.000000
636308.000000
637065.000000
637810.000000
638552.000000
639303.000000
640069.000000
640850.000000
641650.000000
642464.000000
643270.000000
644064.000000
644857.000000
645638.000000
646405.000000
647175.000000
647951.000000
648717.000000
649488.000000
650266.000000
651044.000000
651825.000000
652622.000000
653420.000000
654218.000000
655017.000000
655805.000000
656587.000000
657368.000000
658147.000000
658945.000000
659752.000000
660561.000000
661352.000000
662139.000000
662920.000000
663691.000000
664474.000000
665279.000000
666078.000000
666887.000000
667707.000000
668520.000000
669329.000000
670124.000000
670904.000000
671682.000000
672457.000000
673227.000000
674014.000000
674804.000000
675590.000000
676387.000000
677188.000000
677979.000000
678766.000000
679546.000000
680324.000000
681103.000000
681868.000000
682623.000000
683382.000000
684147.000000
684916.000000
685695.000000
686475.000000
687258.000000
688044.000000
688822.000000
689600.000000
690385.000000
691153.000000
691910.000000
692668.000000
693425.000000
694175.000000
694922.000000
695654.000000
696381.000000
697116.000000
697870.000000
698619.000000
699365.000000
700116.000000
700848.000000
701569.000000
702284.000000
702991.000000
703701.000000
704416.000000
705142.000000
705872.000000
706605.000000
707358.000000
708106.000000
708856.000000
709621.000000
710401.000000
711146.000000
711872.000000
712598.000000
713325.000000
714063.000000
714811.000000
715562.000000
716307.000000
717030.000000
717723.000000
718410.000000
719111.000000
719847.000000
720602.000000
721363.000000
722107.000000
722824.000000
723534.000000
724237.000000
724924.000000
725614.000000
726317.000000
727032.000000
727767.000000
728529.000000
729306.000000
730081.000000
730857.000000
731607.000000
732340.000000
733061.000000
733768.000000
734485.000000
735208.000000
735946.000000
736690.000000
737447.000000
738203.000000
738950.000000
739698.000000
740438.000000
741162.000000
741880.000000
742595.000000
743305.000000
744020.000000
744741.000000
745470.000000
746191.000000
746911.000000
747626.000000
748335.000000
749042.000000
749753.000000
750457.000000
751159.000000
751878.000000
752603.000000
753328.000000
754050.000000
754769.000000
755480.000000
756180.000000
756882.000000
757590.000000
758304.000000
759028.000000
759765.000000
760516.000000
761267.000000
762013.000000
762748.000000
763470.000000
764177.000000
764877.000000
765569.000000
766258.000000
766953.000000
767665.000000
768403.000000
769163.000000
769932.000000
770709.000000
771478.000000
772222.000000
772946.000000
773659.000000
774361.000000
775062.000000
775763.000000
776463.000000
777166.000000
777877.000000
778603.000000
779342.000000
780087.000000
780834.000000
781568.000000
782294.000000
783019.000000
783744.000000
784463.000000
785183.000000
785905.000000
786625.000000
787344.000000
788071.000000
788802.000000
789532.000000
790275.000000
791014.000000
791735.000000
792450.000000
793149.000000
793843.000000
794540.000000
795240.000000
795946.000000
796667.000000
797399.000000
798139.000000
798880.000000
799620.000000
800366.000000
801112.000000
801854.000000
802602.000000
803348.000000
804095.000000
804864.000000
805649.000000
806424.000000
807189.000000
807946.000000
808691.000000
809421.000000
810158.000000
810909.000000
811666.000000
812427.000000
813198.000000
813973.000000
814732.000000
815486.000000
816240.000000
816980.000000
817722.000000
818480.000000
819220.000000
819945.000000
820662.000000
821383.000000
822104.000000
822837.000000
823583.000000
824329.000000
825077.000000
825824.000000
826578.000000
827314.000000
828043.000000
828767.000000
829491.000000
830207.000000
830923.000000
831640.000000
832361.000000
833090.000000
833824.000000
834559.000000
835289.000000
836013.000000
836740.000000
837467.000000
838191.000000
838926.000000
839669.000000
840410.000000
841143.000000
841869.000000
842584.000000
843291.000000
844002.000000
844729.000000
845461.000000
846208.000000
846981.000000
847758.000000
848518.000000
849268.000000
849997.000000
850699.000000
851396.000000
852089.000000
852783.000000
853499.000000
854243.000000
855022.000000
855805.000000
856581.000000
857346.000000
858114.000000
858860.000000
859595.000000
860342.000000
861089.000000
861827.000000
862554.000000
863263.000000
863950.000000
864629.000000
865297.000000
865952.000000
866627.000000
867361.000000
868119.000000
868874.000000
869642.000000
870371.000000
871062.000000
871739.000000
872417.000000
873098.000000
873789.000000
874496.000000
875210.000000
875932.000000
876664.000000
877393.000000
878120.000000
878833.000000
879523.000000
880205.000000
880884.000000
881558.000000
882222.000000
882872.000000
883528.000000
884191.000000
884857.000000
885539.000000
886235.000000
886942.000000
887645.000000
888336.000000
889022.000000
889700.000000
890374.000000
891052.000000
891734.000000
892423.000000
893140.000000
893874.000000
894616.000000
895342.000000
896063.000000
896783.000000
897497.000000
898210.000000
898922.000000
899632.000000
900335.000000
901043.000000
901748.000000
902473.000000
903200.000000
