ECG (ms)
985.000000
1974.000000
2965.000000
3984.000000
5012.000000
6046.000000
7055.000000
8062.000000
9095.000000
10134.000000
11155.000000
12156.000000
13141.000000
14143.000000
15163.000000
16183.000000
17185.000000
18160.000000
19126.000000
20115.000000
21113.000000
22112.000000
23102.000000
24082.000000
25069.000000
26089.000000
27115.000000
28135.000000
29134.000000
30122.000000
31113.000000
32126.000000
33152.000000
34186.000000
35213.000000
36223.000000
37236.000000
38274.000000
39330.000000
40389.000000
41413.000000
42427.000000
43441.000000
44491.000000
45549.000000
46598.000000
47628.000000
48643.000000
49689.000000
50749.000000
51818.000000
52868.000000
53889.000000
54894.000000
55921.000000
56976.000000
58033.000000
59065.000000
60090.000000
61110.000000
62150.000000
63190.000000
64215.000000
65221.000000
66224.000000
67243.000000
68268.000000
69295.000000
70302.000000
71301.000000
72323.000000
73348.000000
74373.000000
75376.000000
76366.000000
77369.000000
78378.000000
79387.000000
80390.000000
81377.000000
82370.000000
83377.000000
84385.000000
85389.000000
86381.000000
87366.000000
88369.000000
89380.000000
90393.000000
91395.000000
92387.000000
93377.000000
94400.000000
95425.000000
96446.000000
97452.000000
98448.000000
99461.000000
100481.000000
101501.000000
102504.000000
103497.000000
104513.000000
105536.000000
106554.000000
107555.000000
108551.000000
109565.000000
110593.000000
111630.000000
112651.000000
113664.000000
114689.000000
115721.000000
116753.000000
117777.000000
118787.000000
119782.000000
120805.000000
121844.000000
122881.000000
123897.000000
124895.000000
125897.000000
126915.000000
127942.000000
128961.000000
129965.000000
130957.000000
131972.000000
133001.000000
134029.000000
135041.000000
136045.000000
137051.000000
138079.000000
139115.000000
140150.000000
141168.000000
142170.000000
143180.000000
144202.000000
145234.000000
146255.000000
147269.000000
148298.000000
149341.000000
150385.000000
151406.000000
152412.000000
153421.000000
154437.000000
155454.000000
156458.000000
157452.000000
158444.000000
159453.000000
160465.000000
161478.000000
162480.000000
163471.000000
164479.000000
165494.000000
166514.000000
167527.000000
168535.000000
169548.000000
170571.000000
171605.000000
172630.000000
173646.000000
174657.000000
175683.000000
176724.000000
177763.000000
178785.000000
179797.000000
180814.000000
181852.000000
182895.000000
183932.000000
184959.000000
185984.000000
187019.000000
188073.000000
189125.000000
190177.000000
191226.000000
192257.000000
193276.000000
194315.000000
195365.000000
196393.000000
197405.000000
198435.000000
199485.000000
200547.000000
201600.000000
202633.000000
203649.000000
204691.000000
205745.000000
206804.000000
207843.000000
208863.000000
209881.000000
210925.000000
211976.000000
213024.000000
214048.000000
215055.000000
216071.000000
217103.000000
218124.000000
219121.000000
220104.000000
221085.000000
222084.000000
223084.000000
224085.000000
225093.000000
226081.000000
227067.000000
228053.000000
229043.000000
230043.000000
231054.000000
232066.000000
233064.000000
234068.000000
235081.000000
236101.000000
237128.000000
238147.000000
239170.000000
240204.000000
241220.000000
242226.000000
243263.000000
244313.000000
245360.000000
246385.000000
247399.000000
248437.000000
249490.000000
250543.000000
251572.000000
252593.000000
253635.000000
254682.000000
255715.000000
256726.000000
257732.000000
258758.000000
259794.000000
260828.000000
261841.000000
262845.000000
263867.000000
264896.000000
265916.000000
266916.000000
267922.000000
268940.000000
269962.000000
270981.000000
271995.000000
273023.000000
274058.000000
275093.000000
276120.000000
277127.000000
278143.000000
279179.000000
280224.000000
281254.000000
282270.000000
283290.000000
284317.000000
285347.000000
286377.000000
287402.000000
288422.000000
289427.000000
290431.000000
291451.000000
292473.000000
293500.000000
294532.000000
295540.000000
296549.000000
297526.000000
298485.000000
299463.000000
300437.000000
301427.000000
302432.000000
303446.000000
304470.000000
305482.000000
306506.000000
307544.000000
308587.000000
309614.000000
310623.000000
311626.000000
312645.000000
313661.000000
314684.000000
315708.000000
316732.000000
317745.000000
318777.000000
319808.000000
320839.000000
321850.000000
322857.000000
323880.000000
324914.000000
325952.000000
326991.000000
328030.000000
329068.000000
330088.000000
331099.000000
332120.000000
333148.000000
334184.000000
335227.000000
336265.000000
337304.000000
338337.000000
339360.000000
340383.000000
341414.000000
342444.000000
343481.000000
344515.000000
345548.000000
346585.000000
347632.000000
348655.000000
349683.000000
350731.000000
351793.000000
352852.000000
353881.000000
354905.000000
355947.000000
356992.000000
358023.000000
359032.000000
360043.000000
361076.000000
362119.000000
363149.000000
364159.000000
365178.000000
366208.000000
367249.000000
368281.000000
369299.000000
370325.000000
371358.000000
372381.000000
373387.000000
374403.000000
375422.000000
376447.000000
377453.000000
378452.000000
379461.000000
380471.000000
381490.000000
382499.000000
383520.000000
384544.000000
385574.000000
386601.000000
387635.000000
388653.000000
389660.000000
390681.000000
391711.000000
392744.000000
393775.000000
394815.000000
395857.000000
396900.000000
397935.000000
398958.000000
399987.000000
401006.000000
402019.000000
403049.000000
404094.000000
405138.000000
406160.000000
407195.000000
408237.000000
409272.000000
410289.000000
411281.000000
412287.000000
413291.000000
414306.000000
415323.000000
416321.000000
417326.000000
418348.000000
419385.000000
420423.000000
421448.000000
422462.000000
423492.000000
424529.000000
425564.000000
426601.000000
427631.000000
428660.000000
429690.000000
430717.000000
431737.000000
432751.000000
433765.000000
434785.000000
435785.000000
436804.000000
437828.000000
438861.000000
439910.000000
440956.000000
442000.000000
443037.000000
444071.000000
445110.000000
446137.000000
447150.000000
448158.000000
449159.000000
450160.000000
451166.000000
452173.000000
453177.000000
454179.000000
455185.000000
456195.000000
457178.000000
458141.000000
459134.000000
460143.000000
461140.000000
462113.000000
463088.000000
464077.000000
465062.000000
466030.000000
466998.000000
467989.000000
468989.000000
469993.000000
470983.000000
471957.000000
472959.000000
473977.000000
474990.000000
475987.000000
476962.000000
477954.000000
478958.000000
479962.000000
480958.000000
481943.000000
482943.000000
483950.000000
484955.000000
485945.000000
486937.000000
487944.000000
488945.000000
489942.000000
490926.000000
491921.000000
492922.000000
493925.000000
494930.000000
495927.000000
496936.000000
497956.000000
498981.000000
500031.000000
501079.000000
502093.000000
503088.000000
504099.000000
505114.000000
506137.000000
507160.000000
508183.000000
509203.000000
510206.000000
511218.000000
512228.000000
513248.000000
514273.000000
515302.000000
516338.000000
517365.000000
518396.000000
519431.000000
520463.000000
521497.000000
522538.000000
523572.000000
524600.000000
525629.000000
526657.000000
527676.000000
528688.000000
529691.000000
530684.000000
531711.000000
532738.000000
533747.000000
534725.000000
535684.000000
536685.000000
537697.000000
538722.000000
539741.000000
540740.000000
541741.000000
542757.000000
543776.000000
544784.000000
545783.000000
546793.000000
547822.000000
548853.000000
549877.000000
550889.000000
551908.000000
552934.000000
553969.000000
555000.000000
556024.000000
557034.000000
558054.000000
559088.000000
560126.000000
561166.000000
562188.000000
563215.000000
564249.000000
565288.000000
566326.000000
567364.000000
568398.000000
569435.000000
570467.000000
571482.000000
572479.000000
573485.000000
574497.000000
575509.000000
576522.000000
577540.000000
578553.000000
579551.000000
580532.000000
581529.000000
582545.000000
583560.000000
584588.000000
585603.000000
586595.000000
587597.000000
588603.000000
589609.000000
590617.000000
591629.000000
592642.000000
593635.000000
594631.000000
595627.000000
596617.000000
597613.000000
598590.000000
599577.000000
600567.000000
601555.000000
602549.000000
603550.000000
604558.000000
605573.000000
606561.000000
607535.000000
608529.000000
609528.000000
610531.000000
611521.000000
612493.000000
613480.000000
614475.000000
615478.000000
616474.000000
617459.000000
618453.000000
619460.000000
620469.000000
621484.000000
622495.000000
623498.000000
624516.000000
625547.000000
626587.000000
627627.000000
628669.000000
629705.000000
630743.000000
631773.000000
632804.000000
633842.000000
634885.000000
635897.000000
636894.000000
637918.000000
638952.000000
639975.000000
640970.000000
641977.000000
642991.000000
644007.000000
645025.000000
646026.000000
647012.000000
648024.000000
649049.000000
650084.000000
651116.000000
652130.000000
653122.000000
654147.000000
655185.000000
656228.000000
657254.000000
658261.000000
659281.000000
660324.000000
661369.000000
662400.000000
663405.000000
664396.000000
665409.000000
666427.000000
667444.000000
668446.000000
669466.000000
670500.000000
671534.000000
672560.000000
673585.000000
674624.000000
675661.000000
676697.000000
677733.000000
678767.000000
679798.000000
680828.000000
681867.000000
682906.000000
683916.000000
684919.000000
685939.000000
686964.000000
687996.000000
689041.000000
690088.000000
691148.000000
692192.000000
693226.000000
694252.000000
695275.000000
696297.000000
697311.000000
698326.000000
699336.000000
700363.000000
701364.000000
702349.000000
703342.000000
704361.000000
705396.000000
706413.000000
707400.000000
708424.000000
709457.000000
710484.000000
711482.000000
712485.000000
713512.000000
714540.000000
715554.000000
716554.000000
717572.000000
718598.000000
719629.000000
720661.000000
721677.000000
722702.000000
723742.000000
724782.000000
725805.000000
726809.000000
727824.000000
728851.000000
729879.000000
730909.000000
731937.000000
732963.000000
733991.000000
735025.000000
736058.000000
737090.000000
738115.000000
739139.000000
740162.000000
741185.000000
742210.000000
743237.000000
744266.000000
745296.000000
746329.000000
747361.000000
748359.000000
749356.000000
750380.000000
751417.000000
752434.000000
753416.000000
754430.000000
755441.000000
756445.000000
757428.000000
758404.000000
759403.000000
760401.000000
761413.000000
762412.000000
763396.000000
764398.000000
765407.000000
766418.000000
767440.000000
768458.000000
769458.000000
770466.000000
771476.000000
772494.000000
773507.000000
774509.000000
775529.000000
776553.000000
777580.000000
778616.000000
779638.000000
780644.000000
781640.000000
782654.000000
783679.000000
784711.000000
785738.000000
786773.000000
787803.000000
788834.000000
789864.000000
790891.000000
791917.000000
792943.000000
793965.000000
794993.000000
796024.000000
797052.000000
798084.000000
799104.000000
800102.000000
801101.000000
802116.000000
803145.000000
804163.000000
805160.000000
806162.000000
807180.000000
808198.000000
809205.000000
810177.000000
811132.000000
812150.000000
813200.000000
814249.000000
815278.000000
816286.000000
817312.000000
818366.000000
819434.000000
820486.000000
821524.000000
822554.000000
823614.000000
824672.000000
825714.000000
826739.000000
827774.000000
828824.000000
829878.000000
830912.000000
831942.000000
832991.000000
834047.000000
835100.000000
836161.000000
837208.000000
838253.000000
839299.000000
840341.000000
841387.000000
842432.000000
843453.000000
844489.000000
845532.000000
846584.000000
847636.000000
848695.000000
849731.000000
850770.000000
851817.000000
852875.000000
853942.000000
855016.000000
856087.000000
857153.000000
858222.000000
859299.000000
860374.000000
861442.000000
862507.000000
863570.000000
864627.000000
865681.000000
866731.000000
867800.000000
868869.000000
869906.000000
870924.000000
871933.000000
872966.000000
874006.000000
875029.000000
876027.000000
877040.000000
878061.000000
879084.000000
880091.000000
881087.000000
882109.000000
883139.000000
884175.000000
885216.000000
886251.000000
887272.000000
888304.000000
889339.000000
890380.000000
891420.000000
892464.000000
893516.000000
894576.000000
895640.000000
896703.000000
