ECG (ms)
240.000000
1040.000000
1844.000000
2657.000000
3474.000000
4274.000000
5080.000000
5881.000000
6679.000000
7467.000000
8239.000000
8993.000000
9750.000000
10524.000000
11320.000000
12112.000000
12897.000000
13682.000000
14469.000000
15268.000000
16063.000000
16854.000000
17644.000000
18435.000000
19227.000000
20022.000000
20808.000000
21578.000000
22350.000000
23131.000000
23921.000000
24718.000000
25515.000000
26315.000000
27135.000000
27951.000000
28758.000000
29558.000000
30345.000000
31124.000000
31902.000000
32679.000000
33457.000000
34232.000000
35010.000000
35797.000000
36587.000000
37368.000000
38151.000000
38943.000000
39743.000000
40540.000000
41340.000000
42147.000000
42958.000000
43760.000000
44553.000000
45347.000000
46158.000000
46963.000000
47763.000000
48567.000000
49376.000000
50193.000000
51000.000000
51803.000000
52595.000000
53397.000000
54209.000000
55017.000000
55824.000000
56620.000000
57424.000000
58230.000000
59037.000000
59838.000000
60635.000000
61439.000000
62247.000000
63059.000000
63858.000000
64657.000000
65461.000000
66264.000000
67068.000000
67855.000000
68632.000000
69414.000000
70214.000000
71021.000000
71834.000000
72643.000000
73450.000000
74257.000000
75058.000000
75859.000000
76674.000000
77491.000000
78312.000000
79137.000000
79964.000000
80808.000000
81656.000000
82510.000000
83368.000000
84203.000000
85027.000000
85868.000000
86710.000000
87570.000000
88428.000000
89275.000000
90121.000000
90970.000000
91831.000000
92689.000000
93536.000000
94387.000000
95237.000000
96083.000000
96920.000000
97763.000000
98620.000000
99484.000000
100334.000000
101165.000000
102009.000000
102870.000000
103725.000000
104548.000000
105355.000000
106175.000000
107005.000000
107829.000000
108657.000000
109479.000000
110308.000000
111142.000000
111963.000000
112782.000000
113612.000000
114443.000000
115275.000000
116096.000000
116927.000000
117766.000000
118606.000000
119439.000000
120263.000000
121089.000000
121910.000000
122725.000000
123538.000000
124353.000000
125166.000000
125975.000000
126774.000000
127586.000000
128393.000000
129200.000000
130001.000000
130815.000000
131638.000000
132476.000000
133304.000000
134111.000000
134929.000000
135742.000000
136553.000000
137365.000000
138182.000000
139015.000000
139852.000000
140684.000000
141503.000000
142332.000000
143204.000000
144083.000000
144948.000000
145784.000000
146614.000000
147446.000000
148283.000000
149135.000000
149980.000000
150836.000000
151690.000000
152533.000000
153364.000000
154206.000000
155074.000000
155941.000000
156751.000000
157555.000000
158361.000000
159168.000000
159986.000000
160831.000000
161695.000000
162571.000000
163432.000000
164298.000000
165162.000000
166024.000000
166859.000000
167684.000000
168504.000000
169328.000000
170153.000000
170947.000000
171751.000000
172556.000000
173363.000000
174168.000000
174968.000000
175772.000000
176579.000000
177393.000000
178204.000000
179020.000000
179847.000000
180679.000000
181502.000000
182329.000000
183175.000000
184025.000000
184855.000000
185684.000000
186523.000000
187358.000000
188183.000000
189000.000000
189829.000000
190694.000000
191547.000000
192385.000000
193231.000000
194084.000000
194944.000000
195787.000000
196627.000000
197464.000000
198301.000000
199125.000000
199955.000000
200806.000000
201649.000000
202496.000000
203340.000000
204195.000000
205042.000000
205875.000000
206709.000000
207546.000000
208380.000000
209205.000000
210030.000000
210861.000000
211692.000000
212516.000000
213316.000000
214107.000000
214908.000000
215716.000000
216519.000000
217318.000000
218121.000000
218940.000000
219767.000000
220584.000000
221421.000000
222263.000000
223111.000000
223939.000000
224758.000000
225587.000000
226415.000000
227240.000000
228057.000000
228884.000000
229711.000000
230537.000000
231363.000000
232197.000000
233049.000000
233904.000000
234757.000000
235609.000000
236462.000000
237317.000000
238168.000000
239013.000000
239837.000000
240665.000000
241491.000000
242319.000000
243136.000000
243965.000000
244800.000000
245640.000000
246477.000000
247322.000000
248172.000000
249022.000000
249871.000000
250712.000000
251550.000000
252370.000000
253184.000000
253993.000000
254805.000000
255620.000000
256431.000000
257238.000000
258046.000000
258864.000000
259683.000000
260491.000000
261278.000000
262071.000000
262875.000000
263698.000000
264511.000000
265316.000000
266124.000000
266928.000000
267730.000000
268528.000000
269313.000000
270105.000000
270913.000000
271714.000000
272508.000000
273296.000000
274084.000000
274873.000000
275658.000000
276444.000000
277247.000000
278065.000000
278882.000000
279701.000000
280506.000000
281315.000000
282129.000000
282937.000000
283779.000000
284647.000000
285495.000000
286335.000000
287170.000000
288012.000000
288857.000000
289708.000000
290559.000000
291401.000000
292235.000000
293075.000000
293912.000000
294741.000000
295557.000000
296363.000000
297175.000000
298000.000000
298830.000000
299650.000000
300470.000000
301293.000000
302124.000000
302950.000000
303773.000000
304605.000000
305456.000000
306305.000000
307134.000000
307940.000000
308743.000000
309555.000000
310380.000000
311206.000000
312037.000000
312861.000000
313711.000000
314554.000000
315386.000000
316203.000000
317015.000000
317830.000000
318668.000000
319505.000000
320345.000000
321177.000000
322022.000000
322873.000000
323723.000000
324563.000000
325436.000000
326313.000000
327184.000000
328039.000000
328901.000000
329763.000000
330611.000000
331451.000000
332301.000000
333159.000000
334022.000000
334880.000000
335726.000000
336579.000000
337435.000000
338288.000000
339124.000000
339957.000000
340801.000000
341643.000000
342475.000000
343293.000000
344109.000000
344933.000000
345762.000000
346579.000000
347385.000000
348199.000000
349020.000000
349843.000000
350663.000000
351475.000000
352296.000000
353124.000000
353952.000000
354770.000000
355591.000000
356414.000000
357226.000000
358030.000000
358847.000000
359673.000000
360492.000000
361301.000000
362116.000000
362937.000000
363760.000000
364572.000000
365376.000000
366184.000000
366980.000000
367777.000000
368577.000000
369365.000000
370152.000000
370958.000000
371763.000000
372559.000000
373367.000000
374190.000000
375005.000000
375807.000000
376614.000000
377417.000000
378225.000000
379026.000000
379818.000000
380607.000000
381406.000000
382211.000000
383020.000000
383828.000000
384629.000000
385419.000000
386216.000000
387012.000000
387820.000000
388623.000000
389422.000000
390229.000000
391051.000000
391893.000000
392722.000000
393565.000000
394410.000000
395244.000000
396060.000000
396870.000000
397673.000000
398473.000000
399279.000000
400101.000000
400939.000000
401781.000000
402634.000000
403490.000000
404354.000000
405206.000000
406057.000000
406916.000000
407775.000000
408607.000000
409413.000000
410199.000000
410990.000000
411792.000000
412603.000000
413413.000000
414221.000000
415044.000000
415885.000000
416734.000000
417595.000000
418470.000000
419342.000000
420201.000000
421063.000000
421926.000000
422786.000000
423633.000000
424482.000000
425340.000000
426208.000000
427079.000000
427928.000000
428791.000000
429662.000000
430544.000000
431403.000000
432238.000000
433064.000000
433888.000000
434694.000000
435484.000000
436266.000000
437043.000000
437805.000000
438566.000000
439304.000000
440056.000000
440825.000000
441639.000000
442470.000000
443306.000000
444127.000000
444935.000000
445739.000000
446534.000000
447318.000000
448096.000000
448866.000000
449638.000000
450426.000000
451215.000000
451994.000000
452773.000000
453553.000000
454341.000000
455130.000000
455916.000000
456707.000000
457494.000000
458282.000000
459068.000000
459858.000000
460647.000000
461444.000000
462239.000000
463024.000000
463820.000000
464617.000000
465421.000000
466218.000000
467006.000000
467806.000000
468609.000000
469414.000000
470206.000000
470993.000000
471790.000000
472586.000000
473389.000000
474192.000000
475012.000000
475855.000000
476688.000000
477516.000000
478328.000000
479142.000000
479954.000000
480772.000000
481590.000000
482397.000000
483204.000000
484024.000000
484858.000000
485688.000000
486505.000000
487337.000000
488166.000000
488999.000000
489835.000000
490666.000000
491505.000000
492348.000000
493177.000000
493987.000000
494781.000000
495587.000000
496412.000000
497258.000000
498104.000000
498957.000000
499822.000000
500694.000000
501556.000000
502416.000000
503274.000000
504135.000000
504981.000000
505834.000000
506692.000000
507544.000000
508388.000000
509237.000000
510099.000000
510971.000000
511833.000000
512684.000000
513547.000000
514419.000000
515273.000000
516121.000000
516971.000000
517824.000000
518672.000000
519519.000000
520370.000000
521230.000000
522085.000000
522922.000000
523761.000000
524604.000000
525460.000000
526302.000000
527142.000000
527991.000000
528833.000000
529671.000000
530518.000000
531373.000000
532224.000000
533079.000000
533948.000000
534824.000000
535699.000000
536551.000000
537417.000000
538303.000000
539186.000000
540049.000000
540891.000000
541737.000000
542581.000000
543414.000000
544234.000000
545060.000000
545887.000000
546738.000000
547593.000000
548450.000000
549325.000000
550204.000000
550756.000000
551954.000000
552814.000000
553648.000000
554472.000000
555286.000000
556104.000000
556940.000000
557788.000000
558647.000000
559497.000000
560346.000000
561213.000000
562079.000000
562931.000000
563760.000000
564585.000000
565410.000000
566229.000000
567054.000000
567900.000000
568758.000000
569605.000000
570443.000000
571288.000000
572139.000000
572996.000000
573853.000000
574690.000000
575516.000000
576355.000000
577207.000000
578071.000000
578938.000000
579842.000000
580745.000000
581633.000000
582511.000000
583389.000000
584256.000000
585126.000000
586008.000000
586874.000000
587716.000000
588547.000000
589378.000000
590224.000000
591073.000000
591910.000000
592758.000000
593613.000000
594462.000000
595304.000000
596161.000000
597021.000000
597885.000000
598738.000000
599604.000000
600480.000000
601341.000000
602181.000000
602991.000000
603792.000000
604607.000000
605445.000000
606294.000000
607164.000000
608035.000000
608902.000000
609745.000000
610597.000000
611440.000000
612285.000000
613126.000000
613964.000000
614809.000000
615652.000000
616484.000000
617314.000000
618144.000000
618969.000000
619799.000000
620630.000000
621460.000000
622290.000000
623107.000000
623931.000000
624754.000000
625574.000000
626399.000000
627224.000000
628057.000000
628887.000000
629708.000000
630517.000000
631341.000000
632228.000000
633129.000000
634010.000000
634868.000000
635727.000000
636583.000000
637440.000000
638283.000000
639103.000000
639930.000000
640765.000000
641614.000000
642451.000000
643301.000000
644155.000000
645018.000000
645875.000000
646730.000000
647590.000000
648434.000000
649278.000000
650134.000000
651016.000000
651887.000000
652740.000000
653609.000000
654480.000000
655358.000000
656204.000000
657037.000000
657875.000000
658721.000000
659581.000000
660448.000000
661332.000000
662228.000000
663143.000000
664024.000000
664895.000000
665753.000000
666619.000000
667474.000000
668305.000000
669142.000000
669986.000000
670815.000000
671648.000000
672497.000000
673356.000000
674222.000000
675070.000000
675923.000000
676778.000000
677610.000000
678446.000000
679289.000000
680155.000000
681012.000000
681864.000000
682739.000000
683603.000000
684461.000000
685312.000000
686165.000000
687022.000000
687866.000000
688681.000000
689480.000000
690290.000000
691104.000000
691923.000000
692740.000000
693556.000000
694398.000000
695257.000000
696113.000000
696965.000000
697825.000000
698695.000000
699555.000000
700398.000000
701234.000000
702100.000000
702968.000000
703837.000000
704698.000000
705577.000000
706471.000000
707353.000000
708215.000000
709081.000000
709952.000000
710819.000000
711681.000000
712534.000000
713395.000000
714254.000000
715109.000000
715952.000000
716808.000000
717659.000000
718496.000000
719329.000000
720173.000000
721026.000000
721873.000000
722720.000000
723569.000000
724418.000000
725265.000000
726100.000000
726948.000000
727808.000000
728668.000000
729514.000000
730345.000000
731179.000000
732012.000000
732848.000000
733688.000000
734544.000000
735400.000000
736248.000000
737077.000000
737912.000000
738756.000000
739605.000000
740452.000000
741302.000000
742150.000000
742994.000000
743822.000000
744655.000000
745489.000000
746323.000000
747153.000000
747962.000000
748779.000000
749602.000000
750425.000000
751244.000000
752072.000000
752911.000000
753745.000000
754576.000000
755435.000000
756296.000000
757145.000000
757991.000000
758837.000000
759688.000000
760529.000000
761354.000000
762180.000000
763009.000000
763844.000000
764670.000000
765497.000000
766330.000000
767173.000000
768009.000000
768841.000000
769685.000000
770525.000000
771364.000000
772189.000000
773018.000000
773846.000000
774675.000000
775500.000000
776357.000000
777219.000000
778073.000000
778915.000000
779758.000000
780597.000000
781436.000000
782265.000000
783094.000000
783934.000000
784773.000000
785634.000000
786486.000000
787334.000000
788192.000000
789050.000000
789895.000000
790739.000000
791601.000000
792461.000000
793315.000000
794144.000000
794979.000000
795809.000000
796625.000000
797428.000000
798230.000000
799033.000000
799837.000000
800641.000000
801437.000000
802240.000000
803060.000000
803873.000000
804692.000000
805517.000000
806356.000000
807195.000000
808024.000000
808854.000000
809686.000000
810515.000000
811348.000000
812192.000000
813041.000000
813887.000000
814715.000000
815524.000000
816357.000000
817205.000000
818063.000000
818908.000000
819754.000000
820598.000000
821432.000000
822264.000000
823098.000000
823935.000000
824765.000000
825619.000000
826475.000000
827324.000000
828149.000000
828953.000000
829756.000000
830565.000000
831381.000000
832204.000000
833031.000000
833862.000000
834706.000000
835546.000000
836385.000000
837234.000000
838100.000000
838976.000000
839845.000000
840699.000000
841552.000000
842400.000000
843233.000000
844070.000000
844903.000000
845742.000000
846589.000000
847427.000000
848259.000000
849096.000000
849935.000000
850768.000000
851601.000000
852450.000000
853297.000000
854136.000000
854969.000000
855797.000000
856629.000000
857456.000000
858282.000000
859124.000000
859973.000000
860833.000000
861678.000000
862558.000000
863438.000000
864323.000000
865225.000000
866114.000000
866971.000000
867818.000000
868666.000000
869509.000000
870352.000000
871195.000000
872040.000000
872882.000000
873717.000000
874551.000000
875397.000000
876247.000000
877099.000000
877943.000000
878797.000000
879648.000000
880478.000000
881297.000000
882122.000000
882956.000000
883807.000000
884667.000000
885520.000000
886380.000000
887248.000000
888100.000000
888959.000000
889817.000000
890672.000000
891510.000000
892337.000000
893163.000000
893992.000000
894819.000000
895637.000000
896463.000000
897304.000000
898140.000000
898982.000000
899834.000000
900743.000000
