ECG (ms)
391.000000
1126.000000
1839.000000
2519.000000
3266.000000
3938.000000
4683.000000
5359.000000
6114.000000
6850.000000
7542.000000
8334.000000
9114.000000
9946.000000
10716.000000
11424.000000
12177.000000
12962.000000
13671.000000
14394.000000
15183.000000
15942.000000
16635.000000
17343.000000
18039.000000
18777.000000
19477.000000
20267.000000
21040.000000
21842.000000
22610.000000
23373.000000
24132.000000
24908.000000
25628.000000
26349.000000
27049.000000
27735.000000
28418.000000
29111.000000
29803.000000
30553.000000
31299.000000
32039.000000
32821.000000
33623.000000
34437.000000
35244.000000
36040.000000
36762.000000
37523.000000
38216.000000
38981.000000
39731.000000
40484.000000
41295.000000
42232.000000
43101.000000
43925.000000
44763.000000
45594.000000
46369.000000
47077.000000
47857.000000
48624.000000
49374.000000
50134.000000
50907.000000
51661.000000
52344.000000
53045.000000
53797.000000
54556.000000
55329.000000
56135.000000
56946.000000
57738.000000
58528.000000
59252.000000
60033.000000
60718.000000
61479.000000
62234.000000
62943.000000
63761.000000
64603.000000
65483.000000
66324.000000
67133.000000
67959.000000
68695.000000
69478.000000
70190.000000
71013.000000
71791.000000
72575.000000
73361.000000
74196.000000
74999.000000
75775.000000
76490.000000
77258.000000
77932.000000
78630.000000
79334.000000
80113.000000
80904.000000
81728.000000
82610.000000
83456.000000
84242.000000
84972.000000
85747.000000
86435.000000
87193.000000
87877.000000
88631.000000
89370.000000
90125.000000
90830.000000
91598.000000
92298.000000
93132.000000
93954.000000
94732.000000
95461.000000
96254.000000
97025.000000
97798.000000
98511.000000
99220.000000
99967.000000
100652.000000
101349.000000
102099.000000
102852.000000
103619.000000
104332.000000
105126.000000
105878.000000
106572.000000
107279.000000
107969.000000
108654.000000
109339.000000
110011.000000
110687.000000
111404.000000
112063.000000
112742.000000
113424.000000
114158.000000
114828.000000
115598.000000
116352.000000
117194.000000
118047.000000
118821.000000
119533.000000
120248.000000
120931.000000
121594.000000
122258.000000
122924.000000
123662.000000
124397.000000
125190.000000
126069.000000
127010.000000
127873.000000
128664.000000
129396.000000
130191.000000
130906.000000
131674.000000
132377.000000
133167.000000
133930.000000
134682.000000
135455.000000
136259.000000
137053.000000
137855.000000
138585.000000
139372.000000
140150.000000
140868.000000
141592.000000
142363.000000
143061.000000
143850.000000
144538.000000
145324.000000
146022.000000
146778.000000
147458.000000
148208.000000
148893.000000
149588.000000
150275.000000
150953.000000
151633.000000
152310.000000
152995.000000
153677.000000
154402.000000
155048.000000
155718.000000
156379.000000
157094.000000
157735.000000
158452.000000
159095.000000
159843.000000
160652.000000
161550.000000
162403.000000
163264.000000
164159.000000
164978.000000
165758.000000
166544.000000
167313.000000
168029.000000
168813.000000
169579.000000
170360.000000
171071.000000
171868.000000
172637.000000
173394.000000
174083.000000
174791.000000
175552.000000
176323.000000
177100.000000
177814.000000
178541.000000
179253.000000
180014.000000
180676.000000
181354.000000
182112.000000
182849.000000
183543.000000
184313.000000
184996.000000
185779.000000
186455.000000
187159.000000
187927.000000
188682.000000
189502.000000
190265.000000
190964.000000
191738.000000
192438.000000
193195.000000
193881.000000
194630.000000
195313.000000
196082.000000
196761.000000
197470.000000
198226.000000
198903.000000
199594.000000
200285.000000
201037.000000
201765.000000
202445.000000
203151.000000
203908.000000
204585.000000
205359.000000
206068.000000
206863.000000
207663.000000
208438.000000
209157.000000
209930.000000
210613.000000
211319.000000
212029.000000
212733.000000
213518.000000
214322.000000
215147.000000
215944.000000
216739.000000
217573.000000
218357.000000
219093.000000
219876.000000
220574.000000
221266.000000
221951.000000
222658.000000
223441.000000
224191.000000
224957.000000
225653.000000
226408.000000
227092.000000
227789.000000
228478.000000
229173.000000
229938.000000
230620.000000
231404.000000
232104.000000
232910.000000
233685.000000
234387.000000
235154.000000
235836.000000
236581.000000
237247.000000
237926.000000
238606.000000
239367.000000
240055.000000
240750.000000
241443.000000
242110.000000
242756.000000
243398.000000
244056.000000
244782.000000
245536.000000
246353.000000
247107.000000
247805.000000
248504.000000
249186.000000
249858.000000
250517.000000
251174.000000
251835.000000
252502.000000
253173.000000
253856.000000
254592.000000
255319.000000
256005.000000
256771.000000
257459.000000
258209.000000
258892.000000
259655.000000
260390.000000
261127.000000
261810.000000
262497.000000
263183.000000
263922.000000
264596.000000
265358.000000
266102.000000
266898.000000
267712.000000
268516.000000
269243.000000
270018.000000
270713.000000
271475.000000
272171.000000
272944.000000
273763.000000
274728.000000
275609.000000
276450.000000
277282.000000
278079.000000
278863.000000
279635.000000
280395.000000
281135.000000
281878.000000
282656.000000
283463.000000
284245.000000
285045.000000
285857.000000
286658.000000
287430.000000
288169.000000
288891.000000
289608.000000
290315.000000
291019.000000
291713.000000
292465.000000
293155.000000
293912.000000
294606.000000
295381.000000
296132.000000
296820.000000
297533.000000
298233.000000
298932.000000
299607.000000
300273.000000
300932.000000
301642.000000
302283.000000
302957.000000
303678.000000
304340.000000
305090.000000
305779.000000
306530.000000
307208.000000
307903.000000
308589.000000
309272.000000
309962.000000
310644.000000
311319.000000
311994.000000
312668.000000
313348.000000
314038.000000
314799.000000
315567.000000
316346.000000
317124.000000
317886.000000
318655.000000
319426.000000
320146.000000
320915.000000
321608.000000
322309.000000
322997.000000
323677.000000
324348.000000
325030.000000
325765.000000
326443.000000
327197.000000
327933.000000
328627.000000
329379.000000
330056.000000
330801.000000
331464.000000
332145.000000
332825.000000
333551.000000
334204.000000
334878.000000
335546.000000
336220.000000
336886.000000
337552.000000
338215.000000
338935.000000
339671.000000
340427.000000
341194.000000
341973.000000
342780.000000
343555.000000
344278.000000
345069.000000
345823.000000
346593.000000
347362.000000
348141.000000
348923.000000
349706.000000
350494.000000
351266.000000
351973.000000
352680.000000
353372.000000
354065.000000
354811.000000
355482.000000
356237.000000
357004.000000
357833.000000
358628.000000
359354.000000
360147.000000
360946.000000
361744.000000
362456.000000
363177.000000
363879.000000
364582.000000
365257.000000
365919.000000
366584.000000
367301.000000
368078.000000
368897.000000
369731.000000
370569.000000
371457.000000
372263.000000
372996.000000
373789.000000
374516.000000
375235.000000
375936.000000
376646.000000
377431.000000
378207.000000
378986.000000
379714.000000
380537.000000
381328.000000
382063.000000
382790.000000
383499.000000
384193.000000
384869.000000
385529.000000
386173.000000
386822.000000
387482.000000
388151.000000
388871.000000
389592.000000
390263.000000
390957.000000
391650.000000
392335.000000
393012.000000
393676.000000
394327.000000
395030.000000
395724.000000
396385.000000
397133.000000
397853.000000
398575.000000
399254.000000
399948.000000
400691.000000
401418.000000
402101.000000
402788.000000
403468.000000
404146.000000
404823.000000
405498.000000
406169.000000
406835.000000
407537.000000
408195.000000
408935.000000
409707.000000
410549.000000
411334.000000
412122.000000
412936.000000
413744.000000
414530.000000
415260.000000
415971.000000
416659.000000
417332.000000
417992.000000
418659.000000
419388.000000
420148.000000
420908.000000
421689.000000
422482.000000
423258.000000
423980.000000
424698.000000
425409.000000
426105.000000
426785.000000
427454.000000
428116.000000
428782.000000
429439.000000
430086.000000
430743.000000
431405.000000
432071.000000
432742.000000
433459.000000
434197.000000
434937.000000
435627.000000
436353.000000
437021.000000
437698.000000
438363.000000
439032.000000
439752.000000
440459.000000
441190.000000
441920.000000
442600.000000
443361.000000
444039.000000
444737.000000
445416.000000
446095.000000
446776.000000
447459.000000
448134.000000
448804.000000
449555.000000
450291.000000
451060.000000
451806.000000
452474.000000
453161.000000
453907.000000
454569.000000
455262.000000
456015.000000
456775.000000
457534.000000
458252.000000
459039.000000
459747.000000
460506.000000
461203.000000
461952.000000
462638.000000
463337.000000
464030.000000
464726.000000
465492.000000
466251.000000
466964.000000
467726.000000
468485.000000
469240.000000
469989.000000
470728.000000
471483.000000
472261.000000
473017.000000
473760.000000
474491.000000
475212.000000
475929.000000
476635.000000
477323.000000
478003.000000
478687.000000
479429.000000
480164.000000
480867.000000
481635.000000
482337.000000
483113.000000
483798.000000
484489.000000
485160.000000
485822.000000
486482.000000
487146.000000
487864.000000
488534.000000
489277.000000
489949.000000
490697.000000
491372.000000
492127.000000
492795.000000
493473.000000
494150.000000
494873.000000
495530.000000
496182.000000
496821.000000
497459.000000
498111.000000
498808.000000
499453.000000
500121.000000
500844.000000
501560.000000
502335.000000
503084.000000
503784.000000
504532.000000
505259.000000
505938.000000
506630.000000
507393.000000
508143.000000
508902.000000
509671.000000
510427.000000
511196.000000
511973.000000
512740.000000
513466.000000
514233.000000
514945.000000
515719.000000
516416.000000
517133.000000
517838.000000
518584.000000
519248.000000
519931.000000
520615.000000
521357.000000
522128.000000
522889.000000
523592.000000
524373.000000
525066.000000
525752.000000
526422.000000
527085.000000
527749.000000
528405.000000
529066.000000
529734.000000
530440.000000
531101.000000
531790.000000
532472.000000
533189.000000
533853.000000
534530.000000
535200.000000
535864.000000
536539.000000
537209.000000
537883.000000
538615.000000
539331.000000
540078.000000
540820.000000
541499.000000
542171.000000
542830.000000
543489.000000
544136.000000
544795.000000
545504.000000
546208.000000
546946.000000
547717.000000
548470.000000
549216.000000
549962.000000
550649.000000
551340.000000
552016.000000
552686.000000
553349.000000
554005.000000
554668.000000
555326.000000
555982.000000
556635.000000
557282.000000
557935.000000
558630.000000
559280.000000
559990.000000
560708.000000
561446.000000
562175.000000
562908.000000
563618.000000
564380.000000
565118.000000
565872.000000
566591.000000
567292.000000
567979.000000
568663.000000
569324.000000
569970.000000
570603.000000
571253.000000
571921.000000
572647.000000
573373.000000
574108.000000
574829.000000
575556.000000
576273.000000
576962.000000
577634.000000
578297.000000
578959.000000
579626.000000
580308.000000
580989.000000
581712.000000
582373.000000
583041.000000
583706.000000
584362.000000
585018.000000
585677.000000
586402.000000
587064.000000
587805.000000
588521.000000
589185.000000
589860.000000
590528.000000
591224.000000
591905.000000
592545.000000
593203.000000
593860.000000
594570.000000
595228.000000
595903.000000
596576.000000
597239.000000
597890.000000
598535.000000
599175.000000
599817.000000
600460.000000
601133.000000
601757.000000
602397.000000
603071.000000
603695.000000
604373.000000
605001.000000
605677.000000
606346.000000
607020.000000
607676.000000
608364.000000
609018.000000
609709.000000
610358.000000
611017.000000
611675.000000
612359.000000
613006.000000
613666.000000
614353.000000
615000.000000
615652.000000
616304.000000
616983.000000
617653.000000
618296.000000
618957.000000
619612.000000
620288.000000
620920.000000
621564.000000
622240.000000
622874.000000
623552.000000
624180.000000
624862.000000
625500.000000
626202.000000
626914.000000
627652.000000
628386.000000
629104.000000
629822.000000
630544.000000
631252.000000
631959.000000
632673.000000
633370.000000
634069.000000
634762.000000
635458.000000
636149.000000
636824.000000
637487.000000
638150.000000
638809.000000
639470.000000
640193.000000
640854.000000
641601.000000
642276.000000
642966.000000
643653.000000
644377.000000
645046.000000
645718.000000
646385.000000
647043.000000
647705.000000
648360.000000
649009.000000
649661.000000
650361.000000
650998.000000
651667.000000
652327.000000
652985.000000
653635.000000
654269.000000
654901.000000
655539.000000
656194.000000
656874.000000
657513.000000
658202.000000
658833.000000
659482.000000
660165.000000
660803.000000
661494.000000
662139.000000
662839.000000
663496.000000
664201.000000
664855.000000
665560.000000
666220.000000
666893.000000
667553.000000
668206.000000
668859.000000
669512.000000
670168.000000
670862.000000
671544.000000
672200.000000
672874.000000
673589.000000
674261.000000
675006.000000
675683.000000
676412.000000
677102.000000
677869.000000
678608.000000
679341.000000
680090.000000
680847.000000
681594.000000
682326.000000
683053.000000
683763.000000
684455.000000
685145.000000
685833.000000
686565.000000
687285.000000
687972.000000
688720.000000
689451.000000
690195.000000
690886.000000
691575.000000
692254.000000
692985.000000
693714.000000
694464.000000
695213.000000
695973.000000
696763.000000
697515.000000
698239.000000
698998.000000
699740.000000
700448.000000
701165.000000
701856.000000
702535.000000
703209.000000
703886.000000
704568.000000
705297.000000
705957.000000
706640.000000
707327.000000
708013.000000
708688.000000
709367.000000
710048.000000
710774.000000
711435.000000
712171.000000
712846.000000
713581.000000
714248.000000
714929.000000
715604.000000
716273.000000
716939.000000
717601.000000
718272.000000
719011.000000
719758.000000
720508.000000
721204.000000
721960.000000
722645.000000
723389.000000
724048.000000
724715.000000
725370.000000
726022.000000
726675.000000
727321.000000
727965.000000
728603.000000
729246.000000
729893.000000
730523.000000
731147.000000
731821.000000
732449.000000
733144.000000
733789.000000
734497.000000
735153.000000
735819.000000
736480.000000
737138.000000
737787.000000
738432.000000
739072.000000
739758.000000
740388.000000
741040.000000
741728.000000
742372.000000
743077.000000
743719.000000
744371.000000
745005.000000
745623.000000
746241.000000
746901.000000
747530.000000
748218.000000
748891.000000
749603.000000
750310.000000
750996.000000
751680.000000
752360.000000
753023.000000
753673.000000
754318.000000
754967.000000
755613.000000
756259.000000
756896.000000
757565.000000
758189.000000
758833.000000
759507.000000
760143.000000
760829.000000
761471.000000
762131.000000
762813.000000
763451.000000
764111.000000
764771.000000
765461.000000
766091.000000
766738.000000
767385.000000
768068.000000
768699.000000
769350.000000
769996.000000
770690.000000
771330.000000
772038.000000
772737.000000
773434.000000
774108.000000
774842.000000
775580.000000
776319.000000
777051.000000
777759.000000
778462.000000
779164.000000
779887.000000
780607.000000
781323.000000
782023.000000
782717.000000
783422.000000
784112.000000
784789.000000
785464.000000
786141.000000
786810.000000
787488.000000
788217.000000
788955.000000
789748.000000
790506.000000
791218.000000
791921.000000
792616.000000
793300.000000
794000.000000
794739.000000
795481.000000
796248.000000
796947.000000
797650.000000
798357.000000
799059.000000
799754.000000
800437.000000
801118.000000
801805.000000
802539.000000
803219.000000
803917.000000
804652.000000
805337.000000
806084.000000
806750.000000
807430.000000
808105.000000
808788.000000
809474.000000
810166.000000
810896.000000
811627.000000
812390.000000
813100.000000
813884.000000
814647.000000
815350.000000
816058.000000
816760.000000
817512.000000
818181.000000
818857.000000
819520.000000
820194.000000
820868.000000
821547.000000
822232.000000
822952.000000
823606.000000
824294.000000
824981.000000
825705.000000
826375.000000
827057.000000
827726.000000
828390.000000
829057.000000
829714.000000
830368.000000
831034.000000
831701.000000
832374.000000
833048.000000
833712.000000
834382.000000
835091.000000
835741.000000
836414.000000
837090.000000
837810.000000
838480.000000
839165.000000
839836.000000
840505.000000
841170.000000
841834.000000
842496.000000
843162.000000
843874.000000
844530.000000
845206.000000
845929.000000
846654.000000
847385.000000
848079.000000
848825.000000
849501.000000
850183.000000
850850.000000
851525.000000
852246.000000
852928.000000
853683.000000
854362.000000
855115.000000
855816.000000
856576.000000
857257.000000
857948.000000
858630.000000
859300.000000
859954.000000
860606.000000
861266.000000
861940.000000
862670.000000
863329.000000
864051.000000
864708.000000
865370.000000
866013.000000
866658.000000
867303.000000
867951.000000
868603.000000
869291.000000
869922.000000
870570.000000
871210.000000
871844.000000
872481.000000
873129.000000
873816.000000
874468.000000
875207.000000
875932.000000
876665.000000
877397.000000
878137.000000
878833.000000
879545.000000
880253.000000
880995.000000
881670.000000
882351.000000
883028.000000
883721.000000
884395.000000
885064.000000
885725.000000
886389.000000
887048.000000
887707.000000
888372.000000
889095.000000
889757.000000
890444.000000
891125.000000
891842.000000
892504.000000
893168.000000
893823.000000
894474.000000
895121.000000
895772.000000
896424.000000
897142.000000
897883.000000
898622.000000
899350.000000
900047.000000
900795.000000
901532.000000
902227.000000
902930.000000
903628.000000
904366.000000
905073.000000
905783.000000
906516.000000
907247.000000
907980.000000
908701.000000
909406.000000
910098.000000
910783.000000
911456.000000
912132.000000
912819.000000
913539.000000
914275.000000
915028.000000
915795.000000
916555.000000
917307.000000
918055.000000
918774.000000
919473.000000
920180.000000
920882.000000
921582.000000
922276.000000
922996.000000
923721.000000
924430.000000
925129.000000
925824.000000
926547.000000
927226.000000
927900.000000
928568.000000
929228.000000
929943.000000
930615.000000
931309.000000
931992.000000
932717.000000
933391.000000
934081.000000
934771.000000
935456.000000
936144.000000
936828.000000
937520.000000
938220.000000
938970.000000
939666.000000
940364.000000
941047.000000
941726.000000
942417.000000
943144.000000
943813.000000
944491.000000
945164.000000
945832.000000
946504.000000
947176.000000
947847.000000
948527.000000
949283.000000
950006.000000
950694.000000
951390.000000
952080.000000
952771.000000
953458.000000
954146.000000
954844.000000
955590.000000
956333.000000
957038.000000
957794.000000
958481.000000
959188.000000
959883.000000
960584.000000
961280.000000
962028.000000
962706.000000
963414.000000
964123.000000
964825.000000
965527.000000
966235.000000
967011.000000
967759.000000
968515.000000
969281.000000
970012.000000
970730.000000
971431.000000
972126.000000
972816.000000
973498.000000
974185.000000
974877.000000
975618.000000
976318.000000
977104.000000
977870.000000
978650.000000
979399.000000
980123.000000
980829.000000
981530.000000
982210.000000
982889.000000
983584.000000
984354.000000
985117.000000
985833.000000
986600.000000
987358.000000
988129.000000
988889.000000
989609.000000
990365.000000
991069.000000
991760.000000
992433.000000
993087.000000
993736.000000
994390.000000
995046.000000
995702.000000
996373.000000
997101.000000
997818.000000
998502.000000
999240.000000
999941.000000
1000696.000000
1001378.000000
1002065.000000
1002750.000000
1003438.000000
1004116.000000
1004788.000000
1005460.000000
1006138.000000
1006887.000000
1007637.000000
1008415.000000
1009189.000000
1009945.000000
1010639.000000
1011336.000000
1012024.000000
1012710.000000
1013384.000000
1014065.000000
1014754.000000
1015486.000000
1016171.000000
1016867.000000
1017561.000000
1018256.000000
1019020.000000
1019767.000000
1020451.000000
1021132.000000
1021815.000000
1022564.000000
1023235.000000
1023919.000000
1024584.000000
1025246.000000
1025908.000000
1026564.000000
1027213.000000
1027867.000000
1028571.000000
1029217.000000
1029937.000000
1030610.000000
1031373.000000
1032098.000000
1032790.000000
1033567.000000
1034259.000000
1035010.000000
1035684.000000
1036363.000000
1037037.000000
1037714.000000
1038442.000000
1039176.000000
1039881.000000
1040670.000000
1041429.000000
1042198.000000
1042909.000000
1043609.000000
1044280.000000
1044934.000000
1045591.000000
1046246.000000
1046905.000000
1047567.000000
1048225.000000
1048877.000000
1049527.000000
1050247.000000
1050913.000000
1051650.000000
1052335.000000
1053073.000000
1053740.000000
1054413.000000
1055081.000000
1055748.000000
1056409.000000
1057062.000000
1057716.000000
1058370.000000
1059021.000000
1059667.000000
1060311.000000
1060963.000000
1061618.000000
1062272.000000
1062926.000000
1063584.000000
1064278.000000
1064943.000000
1065623.000000
1066292.000000
1066957.000000
1067650.000000
1068303.000000
1068966.000000
1069622.000000
1070309.000000
1070959.000000
1071633.000000
1072342.000000
1073061.000000
1073784.000000
1074500.000000
1075209.000000
1075914.000000
1076616.000000
1077307.000000
1077996.000000
1078671.000000
1079348.000000
1080023.000000
1080692.000000
1081374.000000
1082054.000000
1082729.000000
1083416.000000
1084156.000000
1084901.000000
1085633.000000
1086349.000000
1087088.000000
1087819.000000
1088507.000000
1089207.000000
1089896.000000
1090629.000000
1091322.000000
1092073.000000
1092777.000000
1093550.000000
1094248.000000
1094945.000000
1095628.000000
1096315.000000
1096998.000000
1097694.000000
1098396.000000
1099142.000000
1099908.000000
1100693.000000
1101420.000000
1102168.000000
1102886.000000
1103595.000000
1104286.000000
1104971.000000
1105653.000000
1106333.000000
1107071.000000
1107754.000000
1108456.000000
1109163.000000
1109904.000000
1110587.000000
1111286.000000
1111974.000000
1112664.000000
1113351.000000
1114020.000000
1114699.000000
1115447.000000
1116186.000000
1116927.000000
1117631.000000
1118399.000000
1119146.000000
1119845.000000
1120563.000000
1121320.000000
1122020.000000
1122746.000000
1123473.000000
1124233.000000
1124978.000000
1125682.000000
1126382.000000
1127072.000000
1127772.000000
1128470.000000
1129160.000000
1129851.000000
1130539.000000
1131287.000000
1131986.000000
1132690.000000
1133382.000000
1134059.000000
1134731.000000
1135394.000000
1136058.000000
1136728.000000
1137443.000000
1138115.000000
1138857.000000
1139546.000000
1140322.000000
1141076.000000
1141839.000000
1142545.000000
1143256.000000
1143958.000000
1144655.000000
1145333.000000
1146012.000000
1146687.000000
1147425.000000
1148113.000000
1148891.000000
1149591.000000
1150348.000000
1151046.000000
1151760.000000
1152452.000000
1153143.000000
1153843.000000
1154536.000000
1155222.000000
1155901.000000
1156630.000000
1157321.000000
1158009.000000
1158688.000000
1159417.000000
1160157.000000
1160945.000000
1161714.000000
1162431.000000
1163216.000000
1163931.000000
1164650.000000
1165353.000000
1166046.000000
1166745.000000
1167449.000000
1168145.000000
1168828.000000
1169525.000000
1170211.000000
1170891.000000
1171580.000000
1172262.000000
1172981.000000
1173649.000000
1174328.000000
1175011.000000
1175726.000000
1176382.000000
1177050.000000
1177728.000000
1178462.000000
1179142.000000
1179884.000000
1180561.000000
1181329.000000
1182067.000000
1182828.000000
1183591.000000
1184298.000000
1185068.000000
1185767.000000
1186492.000000
1187221.000000
1187993.000000
1188748.000000
1189501.000000
1190215.000000
1190978.000000
1191691.000000
1192473.000000
1193257.000000
1194020.000000
1194781.000000
1195545.000000
1196278.000000
1197001.000000
1197707.000000
1198411.000000
1199164.000000
1199872.000000
1200593.000000
1201315.000000
1202071.000000
1202764.000000
1203462.000000
1204146.000000
1204837.000000
1205529.000000
1206229.000000
1206932.000000
1207640.000000
1208386.000000
1209071.000000
1209781.000000
1210474.000000
1211165.000000
1211853.000000
1212594.000000
1213261.000000
1213958.000000
1214653.000000
1215395.000000
1216062.000000
1216747.000000
1217422.000000
1218101.000000
1218770.000000
1219444.000000
1220119.000000
1220838.000000
1221497.000000
1222173.000000
1222850.000000
1223535.000000
1224275.000000
1224951.000000
1225649.000000
1226336.000000
1227074.000000
1227728.000000
1228395.000000
1229057.000000
1229721.000000
1230393.000000
1231064.000000
1231778.000000
1232481.000000
1233148.000000
1233831.000000
1234511.000000
1235241.000000
1235908.000000
1236586.000000
1237262.000000
1237938.000000
1238659.000000
1239319.000000
1239995.000000
1240669.000000
1241336.000000
1242005.000000
1242679.000000
1243405.000000
1244094.000000
1244836.000000
1245524.000000
1246259.000000
1246998.000000
1247701.000000
1248449.000000
1249141.000000
1249899.000000
1250590.000000
1251303.000000
1252009.000000
1252756.000000
1253445.000000
1254148.000000
1254844.000000
1255544.000000
1256240.000000
1256936.000000
1257626.000000
1258307.000000
1258990.000000
1259679.000000
1260365.000000
1261103.000000
1261830.000000
1262578.000000
1263314.000000
1264035.000000
1264747.000000
1265457.000000
1266167.000000
1266878.000000
1267583.000000
1268288.000000
1268988.000000
1269682.000000
1270362.000000
1271053.000000
1271762.000000
1272439.000000
1273129.000000
1273855.000000
1274539.000000
1275250.000000
1276014.000000
1276766.000000
1277510.000000
1278218.000000
1278922.000000
1279665.000000
1280406.000000
1281104.000000
1281820.000000
1282568.000000
1283268.000000
1284029.000000
1284723.000000
1285426.000000
1286131.000000
1286839.000000
1287541.000000
1288240.000000
1289006.000000
1289751.000000
1290442.000000
1291141.000000
1291837.000000
1292531.000000
1293228.000000
1293913.000000
1294606.000000
1295362.000000
1296047.000000
1296799.000000
1297476.000000
1298167.000000
1298859.000000
1299615.000000
1300308.000000
1301017.000000
1301720.000000
1302423.000000
1303175.000000
1303844.000000
1304532.000000
1305226.000000
1305964.000000
1306666.000000
1307414.000000
1308108.000000
1308863.000000
1309553.000000
1310305.000000
1310975.000000
1311654.000000
1312332.000000
1313015.000000
1313697.000000
1314382.000000
1315058.000000
1315727.000000
1316442.000000
1317088.000000
1317755.000000
1318419.000000
1319092.000000
1319809.000000
1320484.000000
1321232.000000
1321921.000000
1322693.000000
1323390.000000
1324107.000000
1324804.000000
1325503.000000
1326253.000000
1326923.000000
1327596.000000
1328273.000000
1329001.000000
1329725.000000
1330467.000000
1331164.000000
1331919.000000
1332663.000000
1333368.000000
1334078.000000
1334780.000000
1335471.000000
1336157.000000
1336851.000000
1337556.000000
1338253.000000
1338940.000000
1339617.000000
1340292.000000
1340980.000000
1341750.000000
1342461.000000
1343223.000000
1343931.000000
1344675.000000
1345375.000000
1346069.000000
1346748.000000
1347426.000000
1348098.000000
1348775.000000
1349445.000000
1350114.000000
1350781.000000
1351437.000000
1352087.000000
1352738.000000
1353398.000000
1354130.000000
1354846.000000
1355522.000000
1356203.000000
1356872.000000
1357542.000000
1358204.000000
1358861.000000
1359524.000000
1360217.000000
1360905.000000
1361601.000000
1362299.000000
1363015.000000
1363767.000000
1364517.000000
1365260.000000
1365990.000000
1366716.000000
1367427.000000
1368124.000000
1368807.000000
1369489.000000
1370169.000000
1370846.000000
1371533.000000
1372245.000000
1373005.000000
1373771.000000
1374524.000000
1375286.000000
1376063.000000
1376812.000000
1377552.000000
1378282.000000
1379013.000000
1379732.000000
1380446.000000
1381150.000000
1381850.000000
1382539.000000
1383223.000000
1383912.000000
1384598.000000
1385437.000000
1386185.000000
1386934.000000
1387676.000000
1388387.000000
1389096.000000
1389799.000000
1390549.000000
1391305.000000
1392015.000000
1392739.000000
1393504.000000
1394276.000000
1395035.000000
1395806.000000
1396573.000000
1397336.000000
1398030.000000
1398722.000000
1399400.000000
1400078.000000
1400755.000000
1401517.000000
1402287.000000
1403066.000000
1403847.000000
1404633.000000
1405421.000000
1406146.000000
1406875.000000
1407581.000000
1408278.000000
1408976.000000
1409662.000000
1410335.000000
1411004.000000
1411685.000000
1412437.000000
1413187.000000
1413953.000000
1414726.000000
1415522.000000
1416312.000000
1417030.000000
1417817.000000
1418534.000000
1419270.000000
1419977.000000
1420683.000000
1421388.000000
1422155.000000
1422847.000000
1423564.000000
1424321.000000
1425067.000000
1425784.000000
1426513.000000
1427272.000000
1428026.000000
1428803.000000
1429564.000000
1430319.000000
1431069.000000
1431778.000000
1432612.000000
1433438.000000
1434239.000000
1434960.000000
1435688.000000
1436414.000000
1437122.000000
1437809.000000
1438484.000000
1439162.000000
1439888.000000
1440552.000000
1441252.000000
1441952.000000
1442708.000000
1443448.000000
1444208.000000
1444964.000000
1445672.000000
1446387.000000
1447090.000000
1447789.000000
1448486.000000
1449232.000000
1449905.000000
1450608.000000
1451354.000000
1452098.000000
1452789.000000
1453502.000000
1454264.000000
1455022.000000
1455781.000000
1456486.000000
1457253.000000
1457968.000000
1458750.000000
1459456.000000
1460230.000000
1460931.000000
1461729.000000
1462495.000000
1463221.000000
1464046.000000
1464847.000000
1465628.000000
1466423.000000
1467202.000000
1467934.000000
1468658.000000
1469365.000000
1470060.000000
1470754.000000
1471432.000000
1472105.000000
1472782.000000
1473517.000000
1474310.000000
1475125.000000
1475911.000000
1476732.000000
1477526.000000
1478274.000000
1479011.000000
1479750.000000
1480482.000000
1481193.000000
1481883.000000
1482562.000000
1483228.000000
1483897.000000
1484583.000000
1485355.000000
1486133.000000
1486959.000000
1487765.000000
1488562.000000
1489358.000000
1490134.000000
1490906.000000
1491633.000000
1492365.000000
1493106.000000
1493850.000000
1494592.000000
1495327.000000
1496081.000000
1496828.000000
1497561.000000
1498278.000000
1498976.000000
1499666.000000
1500343.000000
1501015.000000
1501689.000000
1502424.000000
1503161.000000
1503935.000000
1504708.000000
1505493.000000
1506277.000000
1507038.000000
1507777.000000
1508521.000000
1509259.000000
1509986.000000
1510713.000000
1511430.000000
1512131.000000
1512881.000000
1513622.000000
1514372.000000
1515103.000000
1515876.000000
1516670.000000
1517473.000000
1518244.000000
1518996.000000
1519747.000000
1520487.000000
1521219.000000
1521937.000000
1522644.000000
1523355.000000
1524071.000000
1524789.000000
1525522.000000
1526290.000000
1527080.000000
1527890.000000
1528667.000000
1529421.000000
1530201.000000
1530973.000000
1531738.000000
1532498.000000
1533306.000000
1534100.000000
1534872.000000
1535631.000000
1536375.000000
1537104.000000
1537828.000000
1538548.000000
1539262.000000
1539971.000000
1540671.000000
1541376.000000
1542127.000000
1542935.000000
1543720.000000
1544490.000000
1545256.000000
1546029.000000
1546782.000000
1547531.000000
1548263.000000
1548990.000000
1549706.000000
1550405.000000
1551098.000000
1551785.000000
1552475.000000
1553177.000000
1553887.000000
1554627.000000
1555395.000000
1556159.000000
1556933.000000
1557733.000000
1558529.000000
1559292.000000
1560034.000000
1560772.000000
1561490.000000
1562194.000000
1562898.000000
1563599.000000
1564322.000000
1565080.000000
1565869.000000
1566656.000000
1567443.000000
1568214.000000
1568970.000000
1569702.000000
1570444.000000
1571191.000000
1571937.000000
1572687.000000
1573447.000000
1574224.000000
1574983.000000
1575728.000000
1576465.000000
1577216.000000
1577949.000000
1578700.000000
1579452.000000
1580217.000000
1580999.000000
1581764.000000
1582510.000000
1583272.000000
1584049.000000
1584799.000000
1585533.000000
1586267.000000
1586998.000000
1587731.000000
1588456.000000
1589178.000000
1589917.000000
1590688.000000
1591440.000000
1592178.000000
1592945.000000
1593738.000000
1594565.000000
1595383.000000
1596182.000000
1596986.000000
1597768.000000
1598529.000000
1599270.000000
1600013.000000
1600768.000000
1601513.000000
1602269.000000
1603051.000000
1603845.000000
1604623.000000
1605402.000000
1606184.000000
1606962.000000
1607711.000000
1608442.000000
1609144.000000
1609839.000000
1610525.000000
1611209.000000
1611894.000000
1612586.000000
1613282.000000
1613972.000000
1614672.000000
1615378.000000
1616085.000000
1616790.000000
1617490.000000
1618184.000000
1618866.000000
1619543.000000
1620216.000000
1620889.000000
1621567.000000
1622325.000000
1623083.000000
1623873.000000
1624640.000000
1625360.000000
1626081.000000
1626786.000000
1627473.000000
1628150.000000
1628821.000000
1629494.000000
1630214.000000
1630895.000000
1631643.000000
1632348.000000
1633095.000000
1633810.000000
1634518.000000
1635227.000000
1635932.000000
1636719.000000
1637443.000000
1638214.000000
1638992.000000
1639804.000000
1640552.000000
1641293.000000
1642006.000000
1642708.000000
1643396.000000
1644093.000000
1644787.000000
1645495.000000
1646203.000000
1646907.000000
1647604.000000
1648302.000000
1649004.000000
1649760.000000
1650469.000000
1651252.000000
1652032.000000
1652808.000000
1653581.000000
1654327.000000
1655108.000000
1655878.000000
1656601.000000
1657325.000000
1658094.000000
1658865.000000
1659612.000000
1660349.000000
1661070.000000
1661785.000000
1662485.000000
1663180.000000
1663867.000000
1664558.000000
1665242.000000
1665931.000000
1666619.000000
1667304.000000
1668042.000000
1668721.000000
1669421.000000
1670172.000000
1670905.000000
1671593.000000
1672296.000000
1673002.000000
1673737.000000
1674414.000000
1675102.000000
1675799.000000
1676546.000000
1677237.000000
1677947.000000
1678658.000000
1679408.000000
1680104.000000
1680809.000000
1681518.000000
1682262.000000
1682962.000000
1683665.000000
1684354.000000
1685058.000000
1685801.000000
1686492.000000
1687195.000000
1687954.000000
1688746.000000
1689537.000000
1690308.000000
1691058.000000
1691796.000000
1692528.000000
1693248.000000
1693951.000000
1694653.000000
1695344.000000
1696027.000000
1696704.000000
1697384.000000
1698066.000000
1698752.000000
1699500.000000
1700248.000000
1701013.000000
1701785.000000
1702523.000000
1703245.000000
1703951.000000
1704642.000000
1705312.000000
1705968.000000
1706614.000000
1707260.000000
1707913.000000
1708641.000000
1709352.000000
1710100.000000
1710847.000000
1711587.000000
1712336.000000
1713087.000000
1713813.000000
1714537.000000
1715258.000000
1715969.000000
1716662.000000
1717338.000000
1718003.000000
1718658.000000
1719299.000000
1719937.000000
1720570.000000
1721253.000000
1721956.000000
1722658.000000
1723370.000000
1724098.000000
1724836.000000
1725547.000000
1726298.000000
1727038.000000
1727755.000000
1728473.000000
1729181.000000
1729883.000000
1730574.000000
1731257.000000
1731937.000000
1732659.000000
1733330.000000
1734082.000000
1734812.000000
1735578.000000
1736288.000000
1737006.000000
1737778.000000
1738579.000000
1739361.000000
1740175.000000
1740994.000000
1741808.000000
1742611.000000
1743362.000000
1744147.000000
1744887.000000
1745599.000000
1746310.000000
1747012.000000
1747777.000000
1748489.000000
1749264.000000
1749963.000000
1750684.000000
1751400.000000
1752121.000000
1752825.000000
1753529.000000
1754249.000000
1755015.000000
1755703.000000
1756412.000000
1757112.000000
1757876.000000
1758396.000000
1759366.000000
1760028.000000
1760693.000000
1761356.000000
1762029.000000
1762780.000000
1763537.000000
1764410.000000
1765287.000000
1766132.000000
1766966.000000
1767810.000000
1768649.000000
1769446.000000
1770227.000000
1770991.000000
1771739.000000
1772461.000000
1773160.000000
1773854.000000
1774546.000000
1775239.000000
1775922.000000
1776604.000000
1777302.000000
1778049.000000
1778727.000000
1779422.000000
1780119.000000
1780869.000000
1781615.000000
1782294.000000
1782973.000000
1783640.000000
1784304.000000
1784975.000000
1785663.000000
1786406.000000
1787152.000000
1787927.000000
1788638.000000
1789395.000000
1790139.000000
1790891.000000
1791599.000000
1792364.000000
1793067.000000
1793857.000000
1794618.000000
1795335.000000
1796060.000000
1796774.000000
1797548.000000
