ECG (ms)
756.000000
1858.000000
2978.000000
4093.000000
5225.000000
6351.000000
7468.000000
8558.000000
9610.000000
10618.000000
11606.000000
12585.000000
13571.000000
14654.000000
15780.000000
16903.000000
18009.000000
19052.000000
20074.000000
21076.000000
22115.000000
23170.000000
24257.000000
25364.000000
26470.000000
27575.000000
28634.000000
29661.000000
30669.000000
31690.000000
32798.000000
33909.000000
35042.000000
36164.000000
37227.000000
38257.000000
39282.000000
40301.000000
41332.000000
42384.000000
43484.000000
44601.000000
45748.000000
46890.000000
47983.000000
49077.000000
50126.000000
51147.000000
52134.000000
53114.000000
54072.000000
55059.000000
56138.000000
57252.000000
58341.000000
59384.000000
60439.000000
61488.000000
62509.000000
63508.000000
64474.000000
65421.000000
66357.000000
67333.000000
68402.000000
69510.000000
70610.000000
71728.000000
72829.000000
73867.000000
74888.000000
75886.000000
76871.000000
77864.000000
78950.000000
80082.000000
81190.000000
82316.000000
83389.000000
84433.000000
85471.000000
86481.000000
87469.000000
88436.000000
89396.000000
90365.000000
91373.000000
92417.000000
93455.000000
94481.000000
95514.000000
96510.000000
97483.000000
98426.000000
99339.000000
100243.000000
101155.000000
102114.000000
103127.000000
104142.000000
105182.000000
106210.000000
107235.000000
108251.000000
109208.000000
110141.000000
111053.000000
111959.000000
112850.000000
113761.000000
114744.000000
115768.000000
116816.000000
117840.000000
118874.000000
119901.000000
120899.000000
121854.000000
122779.000000
123700.000000
124630.000000
125605.000000
126626.000000
127650.000000
128686.000000
129703.000000
130742.000000
131746.000000
132729.000000
133682.000000
134612.000000
135546.000000
136495.000000
137516.000000
138568.000000
139609.000000
140664.000000
141774.000000
142917.000000
144074.000000
145191.000000
146201.000000
147176.000000
148113.000000
149080.000000
149983.000000
150941.000000
151934.000000
152943.000000
153927.000000
154889.000000
155836.000000
156783.000000
157777.000000
158826.000000
159853.000000
160893.000000
161930.000000
162969.000000
164002.000000
165017.000000
166013.000000
167027.000000
168001.000000
169025.000000
170081.000000
171202.000000
172309.000000
173417.000000
174495.000000
175535.000000
176549.000000
177527.000000
178493.000000
179455.000000
180442.000000
181523.000000
182627.000000
183718.000000
184813.000000
185933.000000
187013.000000
188077.000000
189112.000000
190139.000000
191164.000000
192180.000000
193225.000000
194275.000000
195354.000000
196431.000000
197501.000000
198525.000000
199513.000000
200491.000000
201455.000000
202399.000000
203337.000000
204319.000000
205317.000000
206340.000000
207415.000000
208459.000000
209510.000000
210549.000000
211556.000000
212534.000000
213497.000000
214444.000000
215424.000000
216432.000000
217440.000000
218470.000000
219497.000000
220501.000000
221467.000000
222411.000000
223346.000000
224316.000000
225344.000000
226360.000000
227381.000000
228387.000000
229386.000000
230353.000000
231293.000000
232270.000000
233234.000000
234237.000000
235260.000000
236308.000000
237338.000000
238342.000000
239323.000000
240286.000000
241229.000000
242170.000000
243136.000000
244148.000000
245200.000000
246267.000000
247321.000000
248382.000000
249410.000000
250388.000000
251349.000000
252291.000000
253246.000000
254275.000000
255326.000000
256382.000000
257435.000000
258460.000000
259466.000000
260477.000000
261434.000000
262371.000000
263294.000000
264224.000000
265224.000000
266279.000000
267341.000000
268400.000000
269470.000000
270541.000000
271603.000000
272636.000000
273637.000000
274620.000000
275646.000000
276694.000000
277771.000000
278877.000000
279951.000000
281010.000000
282000.000000
282957.000000
283948.000000
284992.000000
286071.000000
287160.000000
288225.000000
289247.000000
290241.000000
291215.000000
292195.000000
293218.000000
294231.000000
295294.000000
296330.000000
297344.000000
298336.000000
299341.000000
300317.000000
301284.000000
302218.000000
303165.000000
304205.000000
305331.000000
306423.000000
307479.000000
308510.000000
309517.000000
310510.000000
311514.000000
312531.000000
313563.000000
314647.000000
315737.000000
316836.000000
317873.000000
318872.000000
319838.000000
320831.000000
321865.000000
322924.000000
323984.000000
325014.000000
325956.000000
326892.000000
327800.000000
328755.000000
329737.000000
330710.000000
331674.000000
332671.000000
333772.000000
334880.000000
335951.000000
336970.000000
337974.000000
339023.000000
340106.000000
341172.000000
342199.000000
343221.000000
344250.000000
345302.000000
346361.000000
347408.000000
348456.000000
349450.000000
350443.000000
351428.000000
352462.000000
353546.000000
354669.000000
355807.000000
356920.000000
357989.000000
359008.000000
359983.000000
360963.000000
361995.000000
363081.000000
364144.000000
365225.000000
366292.000000
367325.000000
368328.000000
369325.000000
370341.000000
371350.000000
372367.000000
373375.000000
374380.000000
375385.000000
376373.000000
377344.000000
378330.000000
379379.000000
380486.000000
381565.000000
382626.000000
383652.000000
384650.000000
385652.000000
386702.000000
387791.000000
388861.000000
389945.000000
391016.000000
392071.000000
393100.000000
394170.000000
395258.000000
396350.000000
397448.000000
398495.000000
399513.000000
400487.000000
401456.000000
402440.000000
403482.000000
404540.000000
405587.000000
406584.000000
407546.000000
408464.000000
409397.000000
410378.000000
411417.000000
412448.000000
413479.000000
414513.000000
415519.000000
416512.000000
417461.000000
418381.000000
419280.000000
420235.000000
421349.000000
422526.000000
423673.000000
424771.000000
425818.000000
426817.000000
427814.000000
428850.000000
429938.000000
431035.000000
432147.000000
433243.000000
434317.000000
435366.000000
436414.000000
437485.000000
438647.000000
439801.000000
440952.000000
442079.000000
443189.000000
444233.000000
445241.000000
446243.000000
447267.000000
448415.000000
449556.000000
450705.000000
451839.000000
452947.000000
454008.000000
455011.000000
455997.000000
456998.000000
458038.000000
459154.000000
460214.000000
461246.000000
462300.000000
463398.000000
464528.000000
465647.000000
466770.000000
467860.000000
468887.000000
469876.000000
470878.000000
471921.000000
473006.000000
474174.000000
475324.000000
476438.000000
477502.000000
478509.000000
479537.000000
480632.000000
481754.000000
482929.000000
484112.000000
485230.000000
486272.000000
487267.000000
488280.000000
489304.000000
490358.000000
491445.000000
492538.000000
493639.000000
494713.000000
495754.000000
496828.000000
497900.000000
499018.000000
500089.000000
501118.000000
502117.000000
503124.000000
504205.000000
505316.000000
506417.000000
507393.000000
508331.000000
509251.000000
510267.000000
511285.000000
512326.000000
513357.000000
514376.000000
515377.000000
516391.000000
517452.000000
518546.000000
519640.000000
520744.000000
521838.000000
522868.000000
523852.000000
524883.000000
525914.000000
526997.000000
528090.000000
529222.000000
530335.000000
531403.000000
532438.000000
533429.000000
534415.000000
535416.000000
536476.000000
537562.000000
538632.000000
539668.000000
540675.000000
541678.000000
542689.000000
543721.000000
544810.000000
545896.000000
546948.000000
547984.000000
549060.000000
550156.000000
551260.000000
552331.000000
553364.000000
554401.000000
555434.000000
556533.000000
557651.000000
558767.000000
559826.000000
560881.000000
561994.000000
563130.000000
564239.000000
565315.000000
566355.000000
567435.000000
568562.000000
569680.000000
570773.000000
571828.000000
572931.000000
574051.000000
575166.000000
576267.000000
577342.000000
578364.000000
579405.000000
580517.000000
581623.000000
582749.000000
583857.000000
584929.000000
585986.000000
587030.000000
588075.000000
589127.000000
590200.000000
591272.000000
592302.000000
593312.000000
594354.000000
595430.000000
596492.000000
597534.000000
598547.000000
599523.000000
600504.000000
601526.000000
602526.000000
603516.000000
604525.000000
605521.000000
606494.000000
607443.000000
608412.000000
609408.000000
610431.000000
611445.000000
612425.000000
613428.000000
614490.000000
615584.000000
616615.000000
617631.000000
618664.000000
619725.000000
620843.000000
621931.000000
622972.000000
623990.000000
624990.000000
626035.000000
627133.000000
628246.000000
629319.000000
630323.000000
631267.000000
632214.000000
633250.000000
634317.000000
635420.000000
636521.000000
637563.000000
638585.000000
639622.000000
640673.000000
641754.000000
642835.000000
643883.000000
644964.000000
646023.000000
647075.000000
648088.000000
649094.000000
650121.000000
651197.000000
652277.000000
653364.000000
654394.000000
655421.000000
656475.000000
657551.000000
658616.000000
659643.000000
660722.000000
661839.000000
662930.000000
663976.000000
664990.000000
666000.000000
667038.000000
668168.000000
669280.000000
670373.000000
671433.000000
672447.000000
673432.000000
674434.000000
675461.000000
676524.000000
677584.000000
678629.000000
679682.000000
680690.000000
681672.000000
682660.000000
683698.000000
684772.000000
685836.000000
686883.000000
687934.000000
688974.000000
689959.000000
690962.000000
692001.000000
693049.000000
694107.000000
695110.000000
696133.000000
697186.000000
698288.000000
699430.000000
700557.000000
701615.000000
702653.000000
703692.000000
704820.000000
705964.000000
707085.000000
708169.000000
709230.000000
710306.000000
711429.000000
712568.000000
713698.000000
714774.000000
715846.000000
716956.000000
718098.000000
719235.000000
720370.000000
721474.000000
722588.000000
723707.000000
724826.000000
725913.000000
726944.000000
727999.000000
729078.000000
730173.000000
731219.000000
732238.000000
733299.000000
734388.000000
735475.000000
736538.000000
737558.000000
738611.000000
739686.000000
740749.000000
741747.000000
742716.000000
743679.000000
744692.000000
745757.000000
746865.000000
747894.000000
748927.000000
749980.000000
751039.000000
752070.000000
753070.000000
754072.000000
755119.000000
756187.000000
757252.000000
758275.000000
759317.000000
760368.000000
761431.000000
762455.000000
763446.000000
764482.000000
765524.000000
766579.000000
767621.000000
768642.000000
769689.000000
770753.000000
771819.000000
772896.000000
773931.000000
774978.000000
776060.000000
777130.000000
778169.000000
779193.000000
780247.000000
781321.000000
782428.000000
783540.000000
784618.000000
785724.000000
786880.000000
788006.000000
789080.000000
790140.000000
791218.000000
792318.000000
793427.000000
794505.000000
795552.000000
796608.000000
797665.000000
798723.000000
799771.000000
800807.000000
801882.000000
802960.000000
804040.000000
805126.000000
806239.000000
807371.000000
808439.000000
809498.000000
810607.000000
811701.000000
812764.000000
813810.000000
814924.000000
816065.000000
817206.000000
818303.000000
819384.000000
820497.000000
821634.000000
822760.000000
823855.000000
824921.000000
826019.000000
827139.000000
828250.000000
829311.000000
830358.000000
831438.000000
832503.000000
833539.000000
834562.000000
835614.000000
836703.000000
837768.000000
838821.000000
839853.000000
840912.000000
842005.000000
843084.000000
844130.000000
845185.000000
846274.000000
847379.000000
848455.000000
849521.000000
850621.000000
851709.000000
852761.000000
853788.000000
854876.000000
855946.000000
856995.000000
858050.000000
859122.000000
860185.000000
861237.000000
862327.000000
863436.000000
864516.000000
865589.000000
866663.000000
867741.000000
868804.000000
869905.000000
871002.000000
872071.000000
873149.000000
874268.000000
875361.000000
876405.000000
877442.000000
878494.000000
879517.000000
880573.000000
881645.000000
882695.000000
883763.000000
884834.000000
885912.000000
886956.000000
888043.000000
889137.000000
890176.000000
891251.000000
892317.000000
893373.000000
894437.000000
895534.000000
896603.000000
897669.000000
898759.000000
899839.000000
900932.000000
