ECG (ms)
535.000000
1639.000000
2734.000000
3786.000000
4823.000000
5844.000000
6869.000000
7883.000000
8859.000000
9840.000000
10804.000000
11804.000000
12895.000000
13956.000000
14996.000000
16019.000000
17027.000000
18037.000000
19039.000000
20037.000000
21016.000000
21988.000000
22994.000000
24033.000000
25046.000000
26042.000000
27012.000000
27972.000000
28942.000000
29928.000000
30915.000000
31870.000000
32777.000000
33687.000000
34579.000000
35508.000000
36488.000000
37479.000000
38457.000000
39398.000000
40339.000000
41288.000000
42280.000000
43287.000000
44263.000000
45212.000000
46153.000000
47104.000000
48095.000000
49065.000000
50031.000000
50985.000000
51925.000000
52876.000000
53859.000000
54842.000000
55811.000000
56772.000000
57717.000000
58664.000000
59624.000000
60629.000000
61622.000000
62605.000000
63568.000000
64520.000000
65458.000000
66410.000000
67377.000000
68346.000000
69316.000000
70280.000000
71223.000000
72169.000000
73152.000000
74155.000000
75150.000000
76116.000000
77068.000000
78007.000000
78936.000000
79924.000000
80920.000000
81912.000000
82887.000000
83829.000000
84772.000000
85714.000000
86695.000000
87673.000000
88649.000000
89631.000000
90570.000000
91501.000000
92413.000000
93348.000000
94353.000000
95350.000000
96334.000000
97299.000000
98245.000000
99169.000000
100083.000000
101008.000000
101959.000000
102916.000000
103867.000000
104795.000000
105717.000000
106633.000000
107565.000000
108537.000000
109504.000000
110468.000000
111397.000000
112317.000000
113213.000000
114091.000000
115033.000000
115963.000000
116876.000000
117755.000000
118623.000000
119507.000000
120368.000000
121237.000000
122198.000000
123152.000000
124093.000000
125011.000000
125917.000000
126805.000000
127692.000000
128617.000000
129543.000000
130453.000000
131356.000000
132237.000000
133100.000000
133955.000000
134837.000000
135723.000000
136621.000000
137512.000000
138383.000000
139233.000000
140075.000000
140959.000000
141864.000000
142759.000000
143653.000000
144526.000000
145390.000000
146231.000000
147083.000000
148005.000000
148929.000000
149848.000000
150738.000000
151618.000000
152501.000000
153414.000000
154325.000000
155225.000000
156114.000000
156981.000000
157829.000000
158731.000000
159676.000000
160616.000000
161545.000000
162470.000000
163381.000000
164294.000000
165252.000000
166203.000000
167135.000000
168045.000000
168930.000000
169787.000000
170638.000000
171525.000000
172430.000000
173359.000000
174291.000000
175209.000000
176126.000000
177098.000000
178116.000000
179101.000000
180051.000000
180989.000000
181927.000000
182887.000000
183848.000000
184810.000000
185761.000000
186693.000000
187632.000000
188580.000000
189563.000000
190532.000000
191487.000000
192419.000000
193346.000000
194288.000000
195269.000000
196239.000000
197173.000000
198074.000000
198977.000000
199885.000000
200790.000000
201703.000000
202644.000000
203578.000000
204498.000000
205408.000000
206310.000000
207202.000000
208152.000000
209117.000000
210079.000000
211022.000000
211947.000000
212863.000000
213763.000000
214699.000000
215644.000000
216594.000000
217517.000000
218435.000000
219356.000000
220319.000000
221273.000000
222215.000000
223141.000000
224062.000000
225007.000000
225953.000000
226897.000000
227829.000000
228741.000000
229642.000000
230590.000000
231572.000000
232541.000000
233496.000000
234440.000000
235367.000000
236302.000000
237281.000000
238251.000000
239209.000000
240141.000000
241057.000000
241953.000000
242876.000000
243821.000000
244751.000000
245672.000000
246591.000000
247519.000000
248475.000000
249406.000000
250321.000000
251234.000000
252140.000000
253087.000000
254044.000000
254985.000000
255909.000000
256829.000000
257732.000000
258655.000000
259593.000000
260525.000000
261434.000000
262336.000000
263227.000000
264135.000000
265071.000000
266005.000000
266930.000000
267843.000000
268755.000000
269649.000000
270538.000000
271466.000000
272421.000000
273365.000000
274285.000000
275207.000000
276122.000000
277054.000000
278005.000000
278970.000000
279914.000000
280845.000000
281772.000000
282707.000000
283691.000000
284683.000000
285653.000000
286600.000000
287532.000000
288454.000000
289380.000000
290393.000000
291385.000000
292334.000000
293271.000000
294206.000000
295138.000000
296067.000000
297021.000000
297984.000000
298938.000000
299887.000000
300820.000000
301735.000000
302633.000000
303534.000000
304450.000000
305362.000000
306279.000000
307204.000000
308119.000000
309029.000000
309931.000000
310817.000000
311691.000000
312555.000000
313396.000000
314218.000000
315038.000000
315863.000000
316689.000000
317513.000000
318325.000000
319150.000000
320001.000000
320874.000000
321750.000000
322630.000000
323503.000000
324417.000000
325354.000000
326315.000000
327272.000000
328229.000000
329163.000000
330079.000000
330988.000000
331916.000000
332859.000000
333807.000000
334752.000000
335682.000000
336616.000000
337576.000000
338532.000000
339473.000000
340391.000000
341317.000000
342259.000000
343201.000000
344140.000000
345057.000000
345985.000000
346912.000000
347822.000000
348734.000000
349610.000000
350494.000000
351471.000000
352465.000000
353426.000000
354384.000000
355340.000000
356278.000000
357206.000000
358116.000000
359070.000000
360067.000000
361076.000000
362056.000000
363026.000000
363988.000000
364938.000000
365881.000000
366818.000000
367785.000000
368757.000000
369735.000000
370696.000000
371649.000000
372611.000000
373577.000000
374553.000000
375539.000000
376508.000000
377473.000000
378436.000000
379378.000000
380331.000000
381281.000000
382260.000000
383240.000000
384192.000000
385109.000000
386005.000000
386914.000000
387856.000000
388809.000000
389760.000000
390705.000000
391633.000000
392563.000000
393530.000000
394501.000000
395459.000000
396406.000000
397351.000000
398305.000000
399279.000000
400242.000000
401205.000000
402166.000000
403115.000000
404084.000000
405045.000000
405994.000000
406919.000000
407850.000000
408811.000000
409772.000000
410718.000000
411646.000000
412548.000000
413462.000000
414375.000000
415327.000000
416271.000000
417196.000000
418105.000000
419025.000000
419961.000000
420933.000000
421898.000000
422856.000000
423798.000000
424747.000000
425705.000000
426680.000000
427638.000000
428571.000000
429499.000000
430438.000000
431403.000000
432350.000000
433285.000000
434209.000000
435125.000000
436051.000000
436981.000000
437940.000000
438898.000000
439857.000000
440814.000000
441779.000000
442731.000000
443680.000000
444617.000000
445579.000000
446545.000000
447498.000000
448425.000000
449349.000000
450267.000000
451234.000000
452188.000000
453133.000000
454049.000000
454938.000000
455849.000000
456787.000000
457748.000000
458713.000000
459655.000000
460589.000000
461514.000000
462441.000000
463385.000000
464345.000000
465284.000000
466220.000000
467133.000000
468048.000000
468992.000000
469961.000000
470916.000000
471863.000000
472802.000000
473753.000000
474737.000000
475717.000000
476674.000000
477601.000000
478540.000000
479486.000000
480461.000000
481434.000000
482390.000000
483327.000000
484246.000000
485150.000000
486058.000000
486962.000000
487883.000000
488800.000000
489710.000000
490629.000000
491583.000000
492555.000000
493516.000000
494456.000000
495397.000000
496339.000000
497288.000000
498266.000000
499227.000000
500180.000000
501124.000000
502057.000000
502995.000000
503961.000000
504921.000000
505874.000000
506821.000000
507771.000000
508730.000000
509685.000000
510641.000000
511595.000000
512546.000000
513501.000000
514430.000000
515358.000000
516293.000000
517213.000000
518139.000000
519062.000000
519985.000000
520907.000000
521885.000000
522908.000000
523912.000000
524848.000000
525799.000000
526767.000000
527760.000000
528789.000000
529803.000000
530812.000000
531795.000000
532761.000000
533729.000000
534726.000000
535736.000000
536726.000000
537711.000000
538668.000000
539621.000000
540592.000000
541563.000000
542518.000000
543464.000000
544392.000000
545326.000000
546283.000000
547246.000000
548200.000000
549145.000000
550068.000000
550991.000000
551920.000000
552854.000000
553812.000000
554759.000000
555702.000000
556640.000000
557542.000000
558448.000000
559359.000000
560285.000000
561237.000000
562182.000000
563110.000000
564020.000000
564925.000000
565826.000000
566722.000000
567615.000000
568475.000000
569303.000000
570129.000000
570983.000000
571867.000000
572742.000000
573629.000000
574519.000000
575391.000000
576287.000000
577185.000000
578093.000000
578996.000000
579907.000000
580836.000000
581799.000000
582773.000000
583744.000000
584708.000000
585664.000000
586598.000000
587536.000000
588477.000000
589441.000000
590414.000000
591378.000000
592326.000000
593266.000000
594190.000000
595116.000000
596044.000000
596993.000000
597959.000000
598911.000000
599856.000000
600788.000000
601708.000000
602632.000000
603548.000000
604485.000000
605402.000000
606303.000000
607207.000000
608088.000000
608955.000000
609830.000000
610706.000000
611589.000000
612502.000000
613424.000000
614343.000000
615268.000000
616179.000000
617102.000000
618035.000000
618999.000000
619966.000000
620933.000000
621888.000000
622815.000000
623748.000000
624692.000000
625655.000000
626618.000000
627575.000000
628510.000000
629439.000000
630373.000000
631327.000000
632291.000000
633245.000000
634192.000000
635131.000000
636066.000000
637012.000000
637962.000000
638932.000000
639906.000000
640871.000000
641825.000000
642759.000000
643695.000000
644634.000000
645585.000000
646533.000000
647470.000000
648392.000000
649316.000000
650249.000000
651207.000000
652180.000000
653152.000000
654112.000000
655054.000000
655989.000000
656941.000000
657900.000000
658850.000000
659783.000000
660695.000000
661606.000000
662529.000000
663472.000000
664405.000000
665323.000000
666215.000000
667098.000000
668001.000000
668914.000000
669844.000000
670764.000000
671677.000000
672566.000000
673462.000000
674362.000000
675291.000000
676208.000000
677114.000000
678009.000000
678892.000000
679787.000000
680680.000000
681604.000000
682544.000000
683482.000000
684412.000000
685335.000000
686276.000000
687233.000000
688176.000000
689094.000000
690024.000000
690957.000000
691909.000000
692837.000000
693758.000000
694667.000000
695569.000000
696478.000000
697405.000000
698348.000000
699292.000000
700225.000000
701144.000000
702087.000000
703051.000000
704011.000000
704961.000000
705903.000000
706834.000000
707771.000000
708718.000000
709688.000000
710647.000000
711595.000000
712521.000000
713451.000000
714380.000000
715330.000000
716290.000000
717240.000000
718187.000000
719124.000000
720070.000000
721018.000000
721951.000000
722917.000000
723868.000000
724814.000000
725755.000000
726678.000000
727608.000000
728550.000000
729500.000000
730451.000000
731395.000000
732320.000000
733256.000000
734189.000000
735154.000000
736117.000000
737075.000000
738037.000000
739012.000000
739983.000000
740949.000000
741910.000000
742877.000000
743831.000000
744779.000000
745727.000000
746670.000000
747613.000000
748563.000000
749512.000000
750474.000000
751435.000000
752404.000000
753380.000000
754355.000000
755330.000000
756306.000000
757276.000000
758242.000000
759208.000000
760179.000000
761152.000000
762137.000000
763126.000000
764103.000000
765084.000000
766065.000000
767043.000000
768013.000000
768983.000000
769946.000000
770918.000000
771900.000000
772883.000000
773866.000000
774861.000000
775851.000000
776836.000000
777825.000000
778805.000000
779779.000000
780753.000000
781726.000000
782698.000000
783663.000000
784640.000000
785621.000000
786596.000000
787577.000000
788563.000000
789534.000000
790507.000000
791465.000000
792430.000000
793403.000000
794375.000000
795345.000000
796310.000000
797276.000000
798238.000000
799210.000000
800174.000000
801139.000000
802090.000000
803042.000000
803994.000000
804949.000000
805908.000000
806873.000000
807849.000000
808814.000000
809773.000000
810715.000000
811650.000000
812617.000000
813579.000000
814524.000000
815438.000000
816359.000000
817287.000000
818245.000000
819228.000000
820193.000000
821122.000000
822064.000000
823028.000000
824012.000000
824984.000000
825938.000000
826892.000000
827857.000000
828865.000000
829858.000000
830827.000000
831786.000000
832749.000000
833738.000000
834724.000000
835707.000000
836658.000000
837615.000000
838578.000000
839568.000000
840547.000000
841515.000000
842460.000000
843408.000000
844367.000000
845354.000000
846330.000000
847299.000000
848230.000000
849176.000000
850125.000000
851098.000000
852051.000000
852990.000000
853908.000000
854834.000000
855768.000000
856702.000000
857654.000000
858604.000000
859548.000000
860485.000000
861416.000000
862352.000000
863323.000000
864311.000000
865297.000000
866275.000000
867268.000000
868237.000000
869200.000000
870197.000000
871170.000000
872127.000000
873089.000000
874065.000000
875022.000000
875998.000000
876956.000000
877910.000000
878897.000000
879877.000000
880850.000000
881812.000000
882808.000000
883805.000000
884805.000000
885796.000000
886792.000000
887789.000000
888783.000000
889777.000000
890774.000000
891769.000000
892762.000000
893746.000000
894734.000000
895682.000000
896602.000000
897526.000000
898470.000000
899451.000000
900459.000000
901466.000000
902433.000000
903405.000000
904433.000000
905493.000000
906551.000000
907548.000000
908539.000000
909526.000000
910531.000000
911577.000000
912611.000000
913628.000000
914604.000000
915578.000000
916575.000000
917584.000000
918597.000000
919590.000000
920540.000000
921497.000000
922503.000000
923516.000000
924502.000000
925434.000000
926370.000000
927314.000000
928264.000000
929232.000000
930222.000000
931201.000000
932161.000000
933104.000000
934048.000000
935007.000000
935977.000000
936974.000000
937962.000000
938945.000000
939899.000000
940849.000000
941811.000000
942814.000000
943783.000000
944740.000000
945686.000000
946627.000000
947572.000000
948525.000000
949469.000000
950424.000000
951389.000000
952406.000000
953415.000000
954405.000000
955388.000000
956368.000000
957339.000000
958297.000000
959253.000000
960200.000000
961188.000000
962179.000000
963172.000000
964153.000000
965126.000000
966072.000000
966986.000000
967899.000000
968823.000000
969736.000000
970665.000000
971639.000000
972651.000000
973636.000000
974623.000000
975601.000000
976572.000000
977538.000000
978502.000000
979446.000000
980411.000000
981389.000000
982360.000000
983332.000000
984299.000000
985265.000000
986226.000000
987193.000000
988141.000000
989094.000000
990043.000000
991003.000000
991986.000000
992992.000000
993978.000000
994955.000000
995927.000000
996897.000000
997857.000000
998812.000000
999755.000000
1000708.000000
1001695.000000
1002681.000000
1003663.000000
1004649.000000
1005637.000000
1006614.000000
1007577.000000
1008547.000000
1009514.000000
1010500.000000
1011514.000000
1012502.000000
1013496.000000
1014473.000000
1015442.000000
1016402.000000
1017353.000000
1018307.000000
1019253.000000
1020207.000000
1021179.000000
1022172.000000
1023168.000000
1024152.000000
1025123.000000
1026090.000000
1027048.000000
1028001.000000
1028953.000000
1029899.000000
1030875.000000
1031844.000000
1032802.000000
1033757.000000
1034677.000000
1035590.000000
1036515.000000
1037432.000000
1038353.000000
1039270.000000
1040203.000000
1041157.000000
1042130.000000
1043105.000000
1044065.000000
1045022.000000
1045971.000000
1046916.000000
1047859.000000
1048808.000000
1049756.000000
1050722.000000
1051671.000000
1052616.000000
1053551.000000
1054477.000000
1055399.000000
1056326.000000
1057242.000000
1058167.000000
1059088.000000
1060019.000000
1060956.000000
1061922.000000
1062894.000000
1063857.000000
1064829.000000
1065793.000000
1066753.000000
1067702.000000
1068651.000000
1069599.000000
1070561.000000
1071536.000000
1072520.000000
1073504.000000
1074479.000000
1075441.000000
1076404.000000
1077347.000000
1078292.000000
1079251.000000
1080221.000000
1081213.000000
1082190.000000
1083181.000000
1084171.000000
1085162.000000
1086153.000000
1087122.000000
1088077.000000
1089030.000000
1089988.000000
1090974.000000
1091961.000000
1092943.000000
1093923.000000
1094904.000000
1095852.000000
1096793.000000
1097737.000000
1098688.000000
1099639.000000
1100598.000000
1101581.000000
1102573.000000
1103559.000000
1104549.000000
1105536.000000
1106515.000000
1107484.000000
1108470.000000
1109433.000000
1110392.000000
1111355.000000
1112337.000000
1113323.000000
1114306.000000
1115301.000000
1116285.000000
1117242.000000
1118203.000000
1119153.000000
1120113.000000
1121063.000000
1122079.000000
1123105.000000
1124116.000000
1125130.000000
1126125.000000
