ECG (ms)
435.000000
1195.000000
1974.000000
2732.000000
3507.000000
4312.000000
5089.000000
5826.000000
6572.000000
7301.000000
8066.000000
8828.000000
9599.000000
10494.000000
11427.000000
12199.000000
12927.000000
13637.000000
14310.000000
15019.000000
15739.000000
16782.000000
17706.000000
18439.000000
19127.000000
19813.000000
20545.000000
21334.000000
22122.000000
22886.000000
23658.000000
24571.000000
25320.000000
26040.000000
26790.000000
27567.000000
28292.000000
29000.000000
29724.000000
30527.000000
31256.000000
31969.000000
32694.000000
33468.000000
34199.000000
34901.000000
35627.000000
36392.000000
37199.000000
37932.000000
38659.000000
39387.000000
40132.000000
40838.000000
41535.000000
42253.000000
42969.000000
43633.000000
44283.000000
44978.000000
45776.000000
46478.000000
47170.000000
47860.000000
48620.000000
49351.000000
50039.000000
50705.000000
51424.000000
52227.000000
53022.000000
53729.000000
54385.000000
55074.000000
55824.000000
56515.000000
57186.000000
57908.000000
58725.000000
59483.000000
60228.000000
61018.000000
61785.000000
62486.000000
63144.000000
63802.000000
64474.000000
65180.000000
65886.000000
66577.000000
67337.000000
68190.000000
68933.000000
69639.000000
70355.000000
71092.000000
71811.000000
72498.000000
73185.000000
73912.000000
74654.000000
75343.000000
76022.000000
76761.000000
77512.000000
78237.000000
78922.000000
79592.000000
80289.000000
81013.000000
81686.000000
82368.000000
83071.000000
83886.000000
84602.000000
85296.000000
86019.000000
86795.000000
87534.000000
88229.000000
88905.000000
89640.000000
90366.000000
91088.000000
91769.000000
92490.000000
93263.000000
93987.000000
94659.000000
95356.000000
96096.000000
96809.000000
97505.000000
98163.000000
98826.000000
99541.000000
100323.000000
100994.000000
101685.000000
102381.000000
103064.000000
103687.000000
104287.000000
104894.000000
105492.000000
106096.000000
106738.000000
107721.000000
108476.000000
109163.000000
109877.000000
110628.000000
111368.000000
112061.000000
112724.000000
113418.000000
114162.000000
114882.000000
115599.000000
116302.000000
117024.000000
117788.000000
118495.000000
119199.000000
119926.000000
120694.000000
121456.000000
122158.000000
122830.000000
123522.000000
124244.000000
124940.000000
125626.000000
126328.000000
127058.000000
127831.000000
128542.000000
129251.000000
130023.000000
130775.000000
131483.000000
132177.000000
132881.000000
133601.000000
134335.000000
135034.000000
135722.000000
136426.000000
137182.000000
137851.000000
138526.000000
139260.000000
140174.000000
140929.000000
141635.000000
142334.000000
143073.000000
143775.000000
144465.000000
145199.000000
145994.000000
146726.000000
147429.000000
148191.000000
148991.000000
149774.000000
150517.000000
151300.000000
152060.000000
152780.000000
153508.000000
154298.000000
155114.000000
155896.000000
156689.000000
157538.000000
158352.000000
159101.000000
159899.000000
160771.000000
161504.000000
162221.000000
163010.000000
164040.000000
164881.000000
165641.000000
166427.000000
167160.000000
167905.000000
168659.000000
169422.000000
170158.000000
170891.000000
171668.000000
172466.000000
173264.000000
173993.000000
174738.000000
175496.000000
176249.000000
176979.000000
177695.000000
178451.000000
179198.000000
179947.000000
180672.000000
181431.000000
182194.000000
182914.000000
183624.000000
184388.000000
185136.000000
185888.000000
186609.000000
187346.000000
188116.000000
188846.000000
189583.000000
190337.000000
191077.000000
191843.000000
192569.000000
193296.000000
194060.000000
194807.000000
195533.000000
196272.000000
197044.000000
197800.000000
198531.000000
199270.000000
200037.000000
200833.000000
201602.000000
202345.000000
203126.000000
203887.000000
204618.000000
205372.000000
206147.000000
206925.000000
207689.000000
208442.000000
209194.000000
209952.000000
210682.000000
211409.000000
212209.000000
212959.000000
213697.000000
214454.000000
215191.000000
215889.000000
216549.000000
217227.000000
217942.000000
218687.000000
219380.000000
220084.000000
220823.000000
221572.000000
222255.000000
222929.000000
223629.000000
224349.000000
225048.000000
225734.000000
226415.000000
227088.000000
227770.000000
228420.000000
229060.000000
229714.000000
230410.000000
231291.000000
231968.000000
232625.000000
233329.000000
234072.000000
234747.000000
235416.000000
236087.000000
236808.000000
237564.000000
238229.000000
238900.000000
239626.000000
240435.000000
241096.000000
241767.000000
242428.000000
243108.000000
243878.000000
244577.000000
245289.000000
246045.000000
246868.000000
247605.000000
248290.000000
248973.000000
249666.000000
250360.000000
251029.000000
251690.000000
252401.000000
253211.000000
253932.000000
254623.000000
255331.000000
256085.000000
256791.000000
257462.000000
258131.000000
258823.000000
259536.000000
260201.000000
260870.000000
261562.000000
262346.000000
263034.000000
263714.000000
264411.000000
265160.000000
265920.000000
266600.000000
267302.000000
268155.000000
268895.000000
269605.000000
270277.000000
270972.000000
271715.000000
272424.000000
273106.000000
273806.000000
274543.000000
275269.000000
275946.000000
276610.000000
277289.000000
277965.000000
278672.000000
279354.000000
280036.000000
280784.000000
281494.000000
282149.000000
282796.000000
283439.000000
284119.000000
284843.000000
285531.000000
286269.000000
287269.000000
288021.000000
288699.000000
289359.000000
290040.000000
290777.000000
291480.000000
292178.000000
293049.000000
293880.000000
294633.000000
295348.000000
296063.000000
296798.000000
297522.000000
298221.000000
298919.000000
299667.000000
300458.000000
301174.000000
301865.000000
302597.000000
303357.000000
304088.000000
304778.000000
305479.000000
306199.000000
306915.000000
307596.000000
308308.000000
309064.000000
309822.000000
310523.000000
311220.000000
311969.000000
312692.000000
313398.000000
314130.000000
314869.000000
315579.000000
316264.000000
316935.000000
317630.000000
318436.000000
319135.000000
319804.000000
320482.000000
321174.000000
321882.000000
322538.000000
323189.000000
323849.000000
324565.000000
325575.000000
326342.000000
327040.000000
327733.000000
328437.000000
329127.000000
329814.000000
330534.000000
331306.000000
331987.000000
332685.000000
333566.000000
334330.000000
335036.000000
335721.000000
336438.000000
337210.000000
337929.000000
338628.000000
339396.000000
340189.000000
340908.000000
341584.000000
342282.000000
343012.000000
343730.000000
344413.000000
345093.000000
345819.000000
346606.000000
347321.000000
348022.000000
348752.000000
349469.000000
350149.000000
350816.000000
351541.000000
352274.000000
352973.000000
353644.000000
354354.000000
355068.000000
355808.000000
356481.000000
357175.000000
357920.000000
358664.000000
359348.000000
360028.000000
360734.000000
361469.000000
362161.000000
362834.000000
363492.000000
364185.000000
364886.000000
365577.000000
366341.000000
367115.000000
368042.000000
368738.000000
369388.000000
370049.000000
370716.000000
371410.000000
372114.000000
373007.000000
373810.000000
374536.000000
375238.000000
376000.000000
376794.000000
377532.000000
378254.000000
379011.000000
379794.000000
380525.000000
381234.000000
382004.000000
382800.000000
383515.000000
384219.000000
384949.000000
385771.000000
386496.000000
387188.000000
387912.000000
388666.000000
389365.000000
390041.000000
390752.000000
391512.000000
392192.000000
392892.000000
393661.000000
394407.000000
395110.000000
395793.000000
396496.000000
397209.000000
397903.000000
398577.000000
399251.000000
399969.000000
400703.000000
401373.000000
402026.000000
402694.000000
403387.000000
404052.000000
404712.000000
405386.000000
406133.000000
406870.000000
407552.000000
408224.000000
408941.000000
409653.000000
410316.000000
410970.000000
411642.000000
412361.000000
413055.000000
413739.000000
414421.000000
415239.000000
415993.000000
416685.000000
417363.000000
418053.000000
418794.000000
419532.000000
420201.000000
420885.000000
421571.000000
422333.000000
423000.000000
423660.000000
424367.000000
425110.000000
425836.000000
426513.000000
427191.000000
427922.000000
428648.000000
429323.000000
429992.000000
430702.000000
431463.000000
432140.000000
432806.000000
433487.000000
434187.000000
434991.000000
435654.000000
436344.000000
437066.000000
437861.000000
438532.000000
439203.000000
439872.000000
440613.000000
441305.000000
441987.000000
442726.000000
443673.000000
444452.000000
445142.000000
445802.000000
446484.000000
447201.000000
447873.000000
448537.000000
449228.000000
449993.000000
450713.000000
451408.000000
452123.000000
452839.000000
453527.000000
454209.000000
454919.000000
455646.000000
456358.000000
457043.000000
457758.000000
458487.000000
459178.000000
459856.000000
460580.000000
461283.000000
461947.000000
462594.000000
463267.000000
463984.000000
464661.000000
465334.000000
466049.000000
466787.000000
467462.000000
468145.000000
468841.000000
469594.000000
470264.000000
470927.000000
471610.000000
472301.000000
472978.000000
473639.000000
474314.000000
475042.000000
475764.000000
476422.000000
477099.000000
477829.000000
478638.000000
479294.000000
479959.000000
480658.000000
481426.000000
482098.000000
482765.000000
483445.000000
484182.000000
484858.000000
485524.000000
486239.000000
486967.000000
487636.000000
488287.000000
488944.000000
489615.000000
490309.000000
490979.000000
491650.000000
492358.000000
493062.000000
493732.000000
494400.000000
495106.000000
495835.000000
496504.000000
497182.000000
497896.000000
498610.000000
499283.000000
499958.000000
500658.000000
501348.000000
502004.000000
502647.000000
503293.000000
504018.000000
504709.000000
505407.000000
506126.000000
506838.000000
507506.000000
508158.000000
508822.000000
509496.000000
510158.000000
510810.000000
511491.000000
512197.000000
512891.000000
513562.000000
514274.000000
515289.000000
516029.000000
516710.000000
517385.000000
518084.000000
518762.000000
519430.000000
520117.000000
520818.000000
521468.000000
522117.000000
522801.000000
523531.000000
524216.000000
524879.000000
525543.000000
526263.000000
526997.000000
527683.000000
528405.000000
529115.000000
529791.000000
530457.000000
531143.000000
531817.000000
532469.000000
533108.000000
533763.000000
534442.000000
535120.000000
535808.000000
536573.000000
537316.000000
538012.000000
538681.000000
539362.000000
540079.000000
540758.000000
541435.000000
542147.000000
542858.000000
543526.000000
544181.000000
544856.000000
545557.000000
546217.000000
546880.000000
547566.000000
548296.000000
548958.000000
549604.000000
550246.000000
550851.000000
551433.000000
552017.000000
552619.000000
553227.000000
553839.000000
554471.000000
555069.000000
555733.000000
556400.000000
557064.000000
557779.000000
558740.000000
559436.000000
560086.000000
560743.000000
561409.000000
562059.000000
562696.000000
563375.000000
564290.000000
565003.000000
565652.000000
566264.000000
566872.000000
567499.000000
568216.000000
568977.000000
569703.000000
570424.000000
571230.000000
572037.000000
572743.000000
573464.000000
574225.000000
574941.000000
575638.000000
576354.000000
577092.000000
577782.000000
578471.000000
579184.000000
579898.000000
580592.000000
581272.000000
581981.000000
582660.000000
583322.000000
584013.000000
584734.000000
585392.000000
586075.000000
586757.000000
587411.000000
588055.000000
588703.000000
589382.000000
590136.000000
590817.000000
591545.000000
592271.000000
593018.000000
593705.000000
594390.000000
595089.000000
595760.000000
596414.000000
597095.000000
597770.000000
598434.000000
599090.000000
599766.000000
600458.000000
601129.000000
601804.000000
602519.000000
603230.000000
603899.000000
604567.000000
605246.000000
605931.000000
606581.000000
607247.000000
607926.000000
608654.000000
609336.000000
610023.000000
610726.000000
611439.000000
612113.000000
612804.000000
613495.000000
614167.000000
614819.000000
615465.000000
616121.000000
616775.000000
617424.000000
618085.000000
618808.000000
619493.000000
620167.000000
620855.000000
621556.000000
622243.000000
622886.000000
623537.000000
624200.000000
624902.000000
625583.000000
626254.000000
626956.000000
627788.000000
628463.000000
629132.000000
629804.000000
630512.000000
631184.000000
631853.000000
632546.000000
633265.000000
633950.000000
634624.000000
635322.000000
636046.000000
636726.000000
637402.000000
638076.000000
638797.000000
639445.000000
640095.000000
640755.000000
641417.000000
642073.000000
642729.000000
643390.000000
644028.000000
644681.000000
645295.000000
645888.000000
646499.000000
647168.000000
647887.000000
648569.000000
649291.000000
650030.000000
650763.000000
651450.000000
652123.000000
652818.000000
653569.000000
654232.000000
654925.000000
655639.000000
656344.000000
656998.000000
657638.000000
658311.000000
659045.000000
659766.000000
660452.000000
661198.000000
661984.000000
662677.000000
663382.000000
664087.000000
664773.000000
665435.000000
666112.000000
666828.000000
667519.000000
668212.000000
668920.000000
669644.000000
670323.000000
670990.000000
671707.000000
672401.000000
673067.000000
673733.000000
674408.000000
675090.000000
675749.000000
676429.000000
677149.000000
677870.000000
678544.000000
679219.000000
679895.000000
680572.000000
681233.000000
681881.000000
682543.000000
683238.000000
683914.000000
684589.000000
685284.000000
685986.000000
686704.000000
687370.000000
688042.000000
688779.000000
689506.000000
690202.000000
690874.000000
691570.000000
692278.000000
692964.000000
693625.000000
694315.000000
695014.000000
695697.000000
696355.000000
697034.000000
697725.000000
698403.000000
699071.000000
699751.000000
700459.000000
701196.000000
701857.000000
702523.000000
703195.000000
703866.000000
704519.000000
705159.000000
705809.000000
706516.000000
707194.000000
707842.000000
708451.000000
709044.000000
709648.000000
710300.000000
711015.000000
711821.000000
712478.000000
713222.000000
713932.000000
714646.000000
715319.000000
715999.000000
716719.000000
717584.000000
718235.000000
718892.000000
719582.000000
720319.000000
721001.000000
721728.000000
722478.000000
723148.000000
723828.000000
724545.000000
725272.000000
725960.000000
726668.000000
727413.000000
728138.000000
728793.000000
729450.000000
730121.000000
730803.000000
731459.000000
732112.000000
732797.000000
733497.000000
734168.000000
734873.000000
735605.000000
736322.000000
736993.000000
737642.000000
738308.000000
739042.000000
739755.000000
740418.000000
741107.000000
741809.000000
742465.000000
743122.000000
743822.000000
744498.000000
745160.000000
745800.000000
746461.000000
747135.000000
747750.000000
748335.000000
748925.000000
749533.000000
750137.000000
750747.000000
751394.000000
752076.000000
752727.000000
753394.000000
754085.000000
754833.000000
755483.000000
756120.000000
756765.000000
757432.000000
758147.000000
758789.000000
759425.000000
760071.000000
760740.000000
761403.000000
762050.000000
762710.000000
763404.000000
764072.000000
764735.000000
765450.000000
766212.000000
766869.000000
767518.000000
768200.000000
768877.000000
769554.000000
770199.000000
770852.000000
771527.000000
772219.000000
772884.000000
773584.000000
774292.000000
775025.000000
775689.000000
776360.000000
777059.000000
777730.000000
778387.000000
779022.000000
779664.000000
780339.000000
781016.000000
781688.000000
782476.000000
783226.000000
783894.000000
784558.000000
785245.000000
785933.000000
786599.000000
787235.000000
787872.000000
788516.000000
789166.000000
789796.000000
790420.000000
791092.000000
791821.000000
792490.000000
793165.000000
793879.000000
794654.000000
795326.000000
796006.000000
796706.000000
797442.000000
798099.000000
798749.000000
799397.000000
800061.000000
800749.000000
801434.000000
802151.000000
802998.000000
803695.000000
804386.000000
805119.000000
805861.000000
806549.000000
807229.000000
807923.000000
808631.000000
809320.000000
809993.000000
810691.000000
811391.000000
812092.000000
812780.000000
813459.000000
814153.000000
814823.000000
815481.000000
816190.000000
816908.000000
817596.000000
818261.000000
818953.000000
819662.000000
820351.000000
821013.000000
821691.000000
822388.000000
823059.000000
823711.000000
824376.000000
825089.000000
825783.000000
826469.000000
827142.000000
827838.000000
828496.000000
829116.000000
829722.000000
830341.000000
831014.000000
831993.000000
832708.000000
833447.000000
834165.000000
834849.000000
835569.000000
836319.000000
837022.000000
837704.000000
838379.000000
839097.000000
839794.000000
840483.000000
841215.000000
842003.000000
842715.000000
843399.000000
844080.000000
844796.000000
845473.000000
846127.000000
846803.000000
847514.000000
848220.000000
848899.000000
849615.000000
850392.000000
851085.000000
851732.000000
852407.000000
853052.000000
853700.000000
854316.000000
854908.000000
855518.000000
856140.000000
856778.000000
857520.000000
858300.000000
858961.000000
859609.000000
860243.000000
860872.000000
861493.000000
862103.000000
862727.000000
863375.000000
863994.000000
864591.000000
865248.000000
865898.000000
866540.000000
867209.000000
867958.000000
868665.000000
869350.000000
870020.000000
870848.000000
871581.000000
872271.000000
872941.000000
873683.000000
874419.000000
875110.000000
875792.000000
876541.000000
877312.000000
877983.000000
878667.000000
879388.000000
880071.000000
