ECG (ms)
667.000000
1720.000000
2794.000000
3896.000000
5006.000000
6101.000000
7182.000000
8263.000000
9329.000000
10347.000000
11308.000000
12277.000000
13348.000000
14493.000000
15649.000000
16800.000000
17922.000000
19025.000000
20102.000000
21143.000000
22171.000000
23223.000000
24280.000000
25327.000000
26374.000000
27454.000000
28537.000000
29603.000000
30613.000000
31576.000000
32561.000000
33628.000000
34719.000000
35819.000000
36896.000000
37954.000000
38999.000000
40033.000000
41081.000000
42150.000000
43253.000000
44354.000000
45444.000000
46517.000000
47560.000000
48583.000000
49601.000000
50632.000000
51656.000000
52638.000000
53613.000000
54617.000000
55642.000000
56682.000000
57723.000000
58749.000000
59760.000000
60761.000000
61742.000000
62692.000000
63615.000000
64538.000000
65547.000000
66572.000000
67488.000000
68409.000000
69373.000000
70376.000000
71395.000000
72378.000000
73374.000000
74390.000000
75418.000000
76448.000000
77460.000000
78447.000000
79428.000000
80447.000000
81483.000000
82542.000000
83613.000000
84663.000000
85687.000000
86664.000000
87613.000000
88584.000000
89607.000000
90657.000000
91742.000000
92814.000000
93856.000000
94853.000000
95867.000000
96897.000000
97954.000000
99023.000000
100101.000000
101161.000000
102189.000000
103205.000000
104221.000000
105232.000000
106216.000000
107210.000000
108267.000000
109337.000000
110395.000000
111429.000000
112453.000000
113471.000000
114497.000000
115521.000000
116527.000000
117526.000000
118564.000000
119684.000000
120784.000000
121857.000000
122879.000000
123895.000000
124892.000000
125926.000000
126989.000000
128054.000000
129135.000000
130229.000000
131330.000000
132369.000000
133365.000000
134361.000000
135405.000000
136486.000000
137576.000000
138667.000000
139756.000000
140833.000000
141905.000000
142969.000000
144002.000000
144991.000000
145989.000000
147052.000000
148146.000000
149276.000000
150404.000000
151513.000000
152596.000000
153653.000000
154680.000000
155709.000000
156742.000000
157792.000000
158871.000000
159955.000000
161038.000000
162119.000000
163197.000000
164231.000000
165206.000000
166138.000000
167085.000000
168119.000000
169233.000000
170383.000000
171535.000000
172642.000000
173725.000000
174785.000000
175819.000000
176815.000000
177803.000000
178850.000000
180005.000000
181150.000000
182276.000000
183370.000000
184445.000000
185496.000000
186543.000000
187601.000000
188625.000000
189622.000000
190588.000000
191611.000000
192736.000000
193868.000000
194996.000000
196106.000000
197188.000000
198256.000000
199274.000000
200268.000000
201288.000000
202348.000000
203461.000000
204602.000000
205690.000000
206728.000000
207780.000000
208847.000000
209900.000000
210941.000000
211996.000000
213022.000000
214033.000000
215036.000000
216058.000000
217117.000000
218185.000000
219223.000000
220263.000000
221302.000000
222352.000000
223388.000000
224397.000000
225374.000000
226332.000000
227229.000000
228076.000000
228979.000000
229947.000000
230965.000000
232017.000000
233067.000000
234114.000000
235157.000000
236164.000000
237140.000000
238098.000000
239098.000000
240190.000000
241317.000000
242429.000000
243528.000000
244612.000000
245677.000000
246712.000000
247702.000000
248712.000000
249747.000000
250801.000000
251868.000000
252939.000000
253997.000000
255070.000000
256136.000000
257185.000000
258199.000000
259222.000000
260273.000000
261371.000000
262523.000000
263675.000000
264800.000000
265902.000000
266921.000000
267890.000000
268875.000000
269924.000000
271008.000000
272083.000000
273171.000000
274269.000000
275332.000000
276365.000000
277414.000000
278483.000000
279570.000000
280671.000000
281761.000000
282818.000000
283862.000000
284899.000000
285939.000000
286985.000000
288031.000000
289130.000000
290277.000000
291393.000000
292475.000000
293534.000000
294586.000000
295648.000000
296675.000000
297695.000000
298775.000000
299859.000000
300958.000000
302039.000000
303106.000000
304137.000000
305135.000000
306137.000000
307172.000000
308235.000000
309326.000000
310436.000000
311546.000000
312639.000000
313683.000000
314674.000000
315661.000000
316697.000000
317800.000000
318918.000000
320024.000000
321121.000000
322197.000000
323272.000000
324294.000000
325310.000000
326378.000000
327467.000000
328554.000000
329648.000000
330687.000000
331692.000000
332703.000000
333726.000000
334758.000000
335814.000000
336869.000000
337922.000000
338927.000000
339901.000000
340889.000000
341932.000000
342990.000000
344034.000000
345096.000000
346151.000000
347195.000000
348246.000000
349322.000000
350439.000000
351519.000000
352595.000000
353680.000000
354756.000000
355825.000000
356864.000000
357886.000000
358917.000000
359996.000000
361084.000000
362154.000000
363235.000000
364320.000000
365390.000000
366461.000000
367488.000000
368482.000000
369460.000000
370396.000000
371455.000000
372640.000000
373728.000000
374694.000000
375704.000000
376740.000000
377769.000000
378780.000000
379772.000000
380750.000000
381731.000000
382734.000000
383748.000000
384777.000000
385826.000000
386883.000000
387931.000000
388964.000000
389980.000000
390972.000000
391914.000000
392838.000000
393760.000000
394724.000000
395742.000000
396793.000000
397848.000000
398914.000000
399953.000000
400944.000000
401899.000000
402877.000000
403893.000000
404933.000000
405984.000000
407045.000000
408095.000000
409141.000000
410186.000000
411223.000000
412273.000000
413336.000000
414392.000000
415450.000000
416513.000000
417516.000000
418486.000000
419466.000000
420501.000000
421554.000000
422610.000000
423657.000000
424692.000000
425692.000000
426681.000000
427690.000000
428728.000000
429800.000000
430878.000000
431968.000000
433033.000000
434046.000000
435054.000000
436074.000000
437111.000000
438152.000000
439201.000000
440218.000000
441214.000000
442211.000000
443195.000000
444195.000000
445215.000000
446252.000000
447282.000000
448310.000000
449307.000000
450307.000000
451298.000000
452271.000000
453200.000000
454133.000000
455062.000000
456020.000000
457016.000000
458022.000000
459019.000000
460021.000000
461020.000000
462010.000000
462992.000000
463974.000000
464945.000000
465917.000000
466888.000000
467828.000000
468734.000000
469657.000000
470605.000000
471555.000000
472437.000000
473280.000000
474149.000000
475027.000000
475918.000000
476799.000000
477664.000000
478516.000000
479366.000000
480229.000000
481118.000000
482006.000000
482916.000000
483830.000000
484741.000000
485631.000000
486482.000000
487316.000000
488153.000000
489043.000000
490005.000000
491011.000000
492006.000000
492962.000000
493907.000000
494840.000000
495763.000000
496662.000000
497568.000000
498483.000000
499425.000000
500349.000000
501253.000000
502144.000000
503039.000000
503941.000000
504846.000000
505765.000000
506653.000000
507535.000000
508415.000000
509289.000000
510174.000000
511055.000000
511900.000000
512737.000000
513575.000000
514424.000000
515297.000000
516183.000000
517080.000000
517975.000000
518845.000000
519687.000000
520509.000000
521328.000000
522195.000000
523153.000000
524159.000000
525176.000000
526186.000000
527189.000000
528175.000000
529153.000000
530094.000000
530987.000000
531847.000000
532703.000000
533616.000000
534608.000000
535624.000000
536635.000000
537641.000000
538621.000000
539589.000000
540517.000000
541420.000000
542330.000000
543298.000000
544307.000000
545328.000000
546305.000000
547290.000000
548292.000000
549304.000000
550309.000000
551301.000000
552281.000000
553226.000000
554150.000000
555101.000000
556071.000000
556964.000000
557865.000000
558468.000000
559644.000000
560676.000000
561678.000000
562623.000000
563573.000000
564585.000000
565658.000000
566736.000000
567819.000000
568877.000000
569884.000000
570867.000000
571872.000000
572913.000000
573972.000000
575040.000000
576092.000000
577131.000000
578127.000000
579118.000000
580145.000000
581202.000000
582265.000000
583328.000000
584374.000000
585396.000000
586407.000000
587430.000000
588474.000000
589515.000000
590558.000000
591587.000000
592593.000000
593599.000000
594667.000000
595770.000000
596886.000000
598002.000000
599098.000000
600161.000000
601191.000000
602212.000000
603227.000000
604235.000000
605242.000000
606277.000000
607398.000000
608514.000000
609613.000000
610701.000000
611776.000000
612829.000000
613877.000000
614937.000000
616001.000000
617103.000000
618230.000000
619363.000000
620481.000000
621556.000000
622581.000000
623632.000000
624699.000000
625750.000000
626779.000000
627793.000000
628798.000000
629798.000000
630806.000000
631833.000000
632857.000000
633855.000000
634824.000000
635789.000000
636746.000000
637695.000000
638666.000000
639673.000000
640674.000000
641657.000000
642667.000000
643672.000000
644682.000000
645692.000000
646674.000000
647635.000000
648571.000000
649507.000000
650466.000000
651426.000000
652365.000000
653327.000000
654337.000000
655361.000000
656390.000000
657410.000000
658412.000000
659363.000000
660265.000000
661103.000000
661913.000000
662737.000000
663613.000000
664507.000000
665451.000000
666447.000000
667463.000000
668476.000000
669450.000000
670372.000000
671259.000000
672143.000000
673054.000000
674027.000000
675051.000000
676075.000000
677090.000000
678094.000000
679109.000000
680105.000000
681098.000000
682060.000000
683019.000000
683993.000000
684994.000000
685975.000000
686975.000000
687988.000000
688984.000000
689969.000000
690944.000000
691924.000000
692930.000000
693968.000000
695034.000000
696101.000000
697144.000000
698169.000000
699132.000000
700098.000000
701059.000000
702033.000000
703021.000000
704009.000000
705021.000000
706037.000000
707014.000000
707947.000000
708868.000000
709785.000000
710738.000000
711742.000000
712759.000000
713760.000000
714732.000000
715715.000000
716722.000000
717733.000000
718758.000000
719779.000000
720789.000000
721764.000000
722713.000000
723647.000000
724657.000000
725747.000000
726845.000000
727929.000000
728994.000000
730045.000000
731085.000000
732130.000000
733167.000000
734220.000000
735280.000000
736335.000000
737374.000000
738402.000000
739402.000000
740406.000000
741394.000000
742386.000000
743372.000000
744403.000000
745444.000000
746462.000000
747453.000000
748435.000000
749410.000000
750384.000000
751365.000000
752359.000000
753361.000000
754377.000000
755388.000000
756396.000000
757393.000000
758334.000000
759237.000000
760087.000000
760909.000000
761740.000000
762648.000000
763653.000000
764654.000000
765611.000000
766551.000000
767498.000000
768511.000000
769542.000000
770569.000000
771579.000000
772583.000000
773570.000000
774556.000000
775584.000000
776644.000000
777722.000000
778812.000000
779867.000000
780899.000000
781940.000000
782995.000000
784052.000000
785112.000000
786179.000000
787227.000000
788274.000000
789338.000000
790424.000000
791507.000000
792540.000000
793562.000000
794591.000000
795638.000000
796690.000000
797731.000000
798734.000000
799712.000000
800732.000000
801752.000000
802770.000000
803790.000000
804809.000000
805826.000000
806820.000000
807790.000000
808779.000000
809792.000000
810832.000000
811896.000000
812941.000000
813969.000000
815025.000000
816090.000000
817149.000000
818212.000000
819270.000000
820314.000000
821345.000000
822349.000000
823400.000000
824603.000000
825823.000000
827045.000000
828214.000000
829312.000000
830408.000000
831497.000000
832567.000000
833634.000000
834676.000000
835679.000000
836656.000000
837657.000000
838682.000000
839727.000000
840774.000000
841821.000000
842845.000000
843873.000000
844903.000000
845935.000000
846961.000000
847962.000000
848973.000000
849992.000000
851008.000000
851987.000000
852943.000000
853910.000000
854906.000000
855948.000000
857014.000000
858096.000000
859169.000000
860209.000000
861217.000000
862247.000000
863315.000000
864402.000000
865503.000000
866613.000000
867699.000000
868749.000000
869765.000000
870800.000000
871847.000000
872924.000000
874022.000000
875102.000000
876190.000000
877265.000000
878331.000000
879340.000000
880337.000000
881378.000000
882473.000000
883604.000000
884716.000000
885792.000000
886844.000000
887879.000000
888904.000000
889927.000000
890966.000000
892028.000000
893091.000000
894149.000000
895187.000000
896203.000000
897209.000000
898230.000000
899241.000000
900257.000000
901251.000000
902262.000000
903268.000000
904252.000000
905155.000000
906094.000000
907062.000000
908036.000000
909020.000000
910007.000000
910979.000000
911955.000000
912929.000000
913880.000000
914830.000000
915805.000000
916821.000000
917876.000000
918937.000000
919955.000000
920968.000000
921981.000000
923011.000000
924043.000000
925073.000000
926080.000000
927046.000000
928007.000000
929008.000000
930044.000000
931099.000000
932160.000000
933221.000000
934259.000000
935255.000000
936227.000000
937230.000000
938277.000000
939355.000000
940445.000000
941521.000000
942591.000000
943608.000000
944578.000000
945544.000000
946518.000000
947516.000000
948536.000000
949555.000000
950571.000000
951584.000000
952583.000000
953563.000000
954501.000000
955434.000000
956392.000000
957390.000000
958391.000000
959369.000000
960335.000000
961361.000000
962423.000000
963496.000000
964543.000000
965567.000000
966558.000000
967550.000000
968587.000000
969654.000000
970690.000000
971694.000000
972682.000000
973718.000000
974808.000000
975911.000000
977000.000000
978073.000000
979123.000000
980122.000000
981114.000000
982112.000000
983163.000000
984239.000000
985296.000000
986330.000000
987386.000000
988463.000000
989544.000000
990618.000000
991661.000000
992697.000000
993713.000000
994695.000000
995703.000000
996754.000000
997835.000000
998919.000000
1000001.000000
1001069.000000
1002093.000000
1003103.000000
1004132.000000
1005200.000000
1006272.000000
1007357.000000
1008405.000000
1009430.000000
1010469.000000
1011524.000000
1012613.000000
1013706.000000
1014783.000000
1015844.000000
1016892.000000
1017942.000000
1018986.000000
1020013.000000
1021024.000000
1022074.000000
1023158.000000
1024265.000000
1025341.000000
1026395.000000
1027419.000000
1028463.000000
1029515.000000
1030580.000000
1031649.000000
1032702.000000
1033728.000000
1034771.000000
1035854.000000
1036956.000000
1038055.000000
1039123.000000
1040207.000000
1041291.000000
1042393.000000
1043463.000000
1044545.000000
1045605.000000
1046648.000000
1047613.000000
1048524.000000
1049492.000000
1050544.000000
1051619.000000
1052687.000000
1053717.000000
1054720.000000
1055674.000000
1056632.000000
1057720.000000
1058821.000000
1059908.000000
1060992.000000
1062074.000000
1063159.000000
1064231.000000
1065277.000000
1066325.000000
1067401.000000
1068504.000000
1069604.000000
1070689.000000
1071747.000000
1072795.000000
1073827.000000
1074850.000000
1075854.000000
1076897.000000
1077963.000000
1079042.000000
1080123.000000
1081198.000000
1082261.000000
1083315.000000
1084383.000000
1085445.000000
1086514.000000
1087592.000000
1088660.000000
1089700.000000
1090700.000000
1091711.000000
1092790.000000
1093905.000000
1095015.000000
1096114.000000
1097208.000000
1098265.000000
1099317.000000
1100362.000000
1101415.000000
1102544.000000
1103698.000000
1104831.000000
1105911.000000
1106957.000000
1107997.000000
1109057.000000
1110122.000000
1111193.000000
1112257.000000
1113321.000000
1114358.000000
1115367.000000
1116369.000000
1117420.000000
1118509.000000
1119575.000000
1120631.000000
1121680.000000
1122707.000000
1123688.000000
1124672.000000
1125695.000000
1126760.000000
1127877.000000
1128964.000000
1130014.000000
1131047.000000
1132095.000000
1133141.000000
1134195.000000
1135257.000000
1136298.000000
1137321.000000
1138337.000000
1139352.000000
1140383.000000
1141442.000000
1142522.000000
1143609.000000
1144708.000000
1145805.000000
1146852.000000
1147861.000000
1148881.000000
1149936.000000
1151016.000000
1152097.000000
1153154.000000
1154185.000000
1155215.000000
1156257.000000
1157322.000000
1158374.000000
1159401.000000
1160408.000000
1161545.000000
1162719.000000
1163844.000000
1164943.000000
1166034.000000
1167093.000000
1168132.000000
1169157.000000
1170182.000000
1171197.000000
1172216.000000
1173223.000000
1174215.000000
1175223.000000
1176249.000000
1177278.000000
1178300.000000
1179305.000000
1180317.000000
1181329.000000
1182359.000000
1183389.000000
1184413.000000
1185398.000000
1186313.000000
1187212.000000
1188127.000000
1189083.000000
1190073.000000
1191103.000000
1192141.000000
1193152.000000
1194146.000000
1195197.000000
1196301.000000
1197432.000000
1198547.000000
1199660.000000
1200753.000000
1201797.000000
1202846.000000
1203907.000000
1205011.000000
1206163.000000
1207330.000000
1208496.000000
1209658.000000
1210772.000000
1211823.000000
1212882.000000
1213955.000000
1215054.000000
1216143.000000
1217231.000000
1218311.000000
1219385.000000
1220476.000000
1221558.000000
1222632.000000
1223703.000000
1224748.000000
1225777.000000
1226861.000000
1227982.000000
1229093.000000
1230199.000000
1231306.000000
1232403.000000
1233474.000000
1234512.000000
1235560.000000
1236654.000000
1237813.000000
1238975.000000
1240111.000000
1241231.000000
1242298.000000
1243361.000000
1244453.000000
1245563.000000
1246688.000000
1247804.000000
1248912.000000
1250002.000000
1251056.000000
1252085.000000
1253099.000000
1254246.000000
1255441.000000
1256601.000000
1257721.000000
1258816.000000
1259894.000000
1260959.000000
1262007.000000
1263045.000000
1264058.000000
1265097.000000
1266155.000000
1267239.000000
1268333.000000
1269419.000000
1270493.000000
1271541.000000
1272567.000000
1273593.000000
1274652.000000
1275740.000000
1276840.000000
1277947.000000
1279053.000000
1280125.000000
1281140.000000
