ECG (ms)
818.000000
1798.000000
2799.000000
3737.000000
4594.000000
5406.000000
6210.000000
7650.000000
8866.000000
9953.000000
11031.000000
12220.000000
13377.000000
14422.000000
15453.000000
16497.000000
17548.000000
18547.000000
19572.000000
20629.000000
21660.000000
22637.000000
23579.000000
24548.000000
25703.000000
26860.000000
27984.000000
29043.000000
30029.000000
30967.000000
31967.000000
33141.000000
34330.000000
35387.000000
36391.000000
37387.000000
38411.000000
39483.000000
40530.000000
41539.000000
42594.000000
43791.000000
45003.000000
46139.000000
47202.000000
48186.000000
49114.000000
50037.000000
51100.000000
52242.000000
53352.000000
54370.000000
55333.000000
56257.000000
57231.000000
58363.000000
59509.000000
60576.000000
61560.000000
62528.000000
63525.000000
64560.000000
65583.000000
66625.000000
67693.000000
68777.000000
69780.000000
70717.000000
71606.000000
72542.000000
73587.000000
74656.000000
75723.000000
76782.000000
77813.000000
78820.000000
79762.000000
80646.000000
81531.000000
82580.000000
83766.000000
84900.000000
85916.000000
86902.000000
87883.000000
88912.000000
90022.000000
91144.000000
92192.000000
93223.000000
94224.000000
95182.000000
96090.000000
96976.000000
97896.000000
98920.000000
99976.000000
100993.000000
101999.000000
102985.000000
103959.000000
104870.000000
105740.000000
106604.000000
107624.000000
108759.000000
109883.000000
110972.000000
112018.000000
113019.000000
113955.000000
114820.000000
115660.000000
116527.000000
117680.000000
118882.000000
120048.000000
121149.000000
122193.000000
123159.000000
124096.000000
125068.000000
126087.000000
127138.000000
128124.000000
129066.000000
129990.000000
130994.000000
132088.000000
133147.000000
134162.000000
135111.000000
136041.000000
136954.000000
137875.000000
138857.000000
139979.000000
141168.000000
142311.000000
143412.000000
144465.000000
145416.000000
146294.000000
147149.000000
148093.000000
149281.000000
150461.000000
151606.000000
152683.000000
153727.000000
154716.000000
155627.000000
156481.000000
157323.000000
158267.000000
159496.000000
160695.000000
161786.000000
162840.000000
163898.000000
164965.000000
166001.000000
166934.000000
167814.000000
168678.000000
169569.000000
170519.000000
171502.000000
172479.000000
173403.000000
174288.000000
175140.000000
176004.000000
177013.000000
178113.000000
179217.000000
180237.000000
181202.000000
182163.000000
183114.000000
184054.000000
184975.000000
185874.000000
186745.000000
187604.000000
188488.000000
189432.000000
190475.000000
191521.000000
192514.000000
193443.000000
194352.000000
195291.000000
196259.000000
197236.000000
198183.000000
199061.000000
199894.000000
200717.000000
201565.000000
202471.000000
203438.000000
204436.000000
205409.000000
206360.000000
207241.000000
208084.000000
208947.000000
209906.000000
210901.000000
211914.000000
212845.000000
213724.000000
214575.000000
215467.000000
216490.000000
217570.000000
218617.000000
219564.000000
220465.000000
221337.000000
222231.000000
223229.000000
224320.000000
225393.000000
226425.000000
227384.000000
228273.000000
229110.000000
229962.000000
231232.000000
232473.000000
233643.000000
234739.000000
235782.000000
236793.000000
237740.000000
238650.000000
239531.000000
240371.000000
241191.000000
242081.000000
243041.000000
243997.000000
244970.000000
245972.000000
246970.000000
247909.000000
248848.000000
249799.000000
250780.000000
251731.000000
252643.000000
253514.000000
254397.000000
255434.000000
256553.000000
257659.000000
258722.000000
259748.000000
260754.000000
261735.000000
262658.000000
263513.000000
264353.000000
265282.000000
266530.000000
267703.000000
268820.000000
269883.000000
270913.000000
271891.000000
272817.000000
273699.000000
274565.000000
275474.000000
276473.000000
277531.000000
278574.000000
279561.000000
280497.000000
281429.000000
282398.000000
283430.000000
284492.000000
285507.000000
286476.000000
287417.000000
288362.000000
289317.000000
290258.000000
291194.000000
292182.000000
293213.000000
294257.000000
295254.000000
296205.000000
297150.000000
298092.000000
299013.000000
299988.000000
301050.000000
302062.000000
303030.000000
304024.000000
305026.000000
305983.000000
306894.000000
307820.000000
308748.000000
309663.000000
310588.000000
311569.000000
312597.000000
313566.000000
314512.000000
315420.000000
316278.000000
317127.000000
318002.000000
318914.000000
319814.000000
320700.000000
321594.000000
322531.000000
323496.000000
324428.000000
325317.000000
326194.000000
327103.000000
328077.000000
329071.000000
330066.000000
331055.000000
332022.000000
332948.000000
333803.000000
334611.000000
335428.000000
336392.000000
337686.000000
338880.000000
340031.000000
341121.000000
342182.000000
343172.000000
344113.000000
345023.000000
345957.000000
346948.000000
347987.000000
349011.000000
349984.000000
350919.000000
351827.000000
352757.000000
353759.000000
354846.000000
355940.000000
357020.000000
358040.000000
359006.000000
359947.000000
360924.000000
362002.000000
363100.000000
364143.000000
365150.000000
366146.000000
367124.000000
368105.000000
369042.000000
369934.000000
370800.000000
371685.000000
372727.000000
373881.000000
375003.000000
376085.000000
377111.000000
378081.000000
379029.000000
380035.000000
381097.000000
382162.000000
383205.000000
384248.000000
385326.000000
386390.000000
387407.000000
388428.000000
389410.000000
390347.000000
391243.000000
392138.000000
393103.000000
394144.000000
395171.000000
396201.000000
397258.000000
398334.000000
399357.000000
400318.000000
401286.000000
402248.000000
403176.000000
404093.000000
405046.000000
406068.000000
407125.000000
408170.000000
409186.000000
410126.000000
411020.000000
411933.000000
412915.000000
413942.000000
414934.000000
415868.000000
416768.000000
417655.000000
418569.000000
419529.000000
420543.000000
421574.000000
422530.000000
423413.000000
424254.000000
425127.000000
426334.000000
427530.000000
428633.000000
429714.000000
430765.000000
431751.000000
432714.000000
433659.000000
434581.000000
435464.000000
436328.000000
437264.000000
438355.000000
439454.000000
440512.000000
441469.000000
442376.000000
443243.000000
444118.000000
445147.000000
446281.000000
447422.000000
448522.000000
449579.000000
450584.000000
451547.000000
452458.000000
453349.000000
454277.000000
455374.000000
456545.000000
457688.000000
458779.000000
459829.000000
460834.000000
461755.000000
462614.000000
463458.000000
464385.000000
465580.000000
466771.000000
467892.000000
468968.000000
470004.000000
470968.000000
471874.000000
472743.000000
473651.000000
474621.000000
475654.000000
476700.000000
477717.000000
478673.000000
479571.000000
480460.000000
481381.000000
482394.000000
483429.000000
484426.000000
485343.000000
486219.000000
487099.000000
488039.000000
489071.000000
490118.000000
491144.000000
492117.000000
493092.000000
494138.000000
495196.000000
496256.000000
497271.000000
498221.000000
499109.000000
499969.000000
500873.000000
501902.000000
503003.000000
504120.000000
505200.000000
506247.000000
507248.000000
508178.000000
509061.000000
509936.000000
510907.000000
512014.000000
513172.000000
514321.000000
515428.000000
516502.000000
517515.000000
518482.000000
519430.000000
520388.000000
521348.000000
522254.000000
523115.000000
523962.000000
524845.000000
525870.000000
526964.000000
528053.000000
529100.000000
530085.000000
531011.000000
531919.000000
532832.000000
533760.000000
534731.000000
535696.000000
536627.000000
537526.000000
538397.000000
539282.000000
540323.000000
541493.000000
542642.000000
543720.000000
544691.000000
545576.000000
546412.000000
547255.000000
548178.000000
549192.000000
550225.000000
551238.000000
552184.000000
553107.000000
554040.000000
554970.000000
555850.000000
556716.000000
557622.000000
558613.000000
559649.000000
560633.000000
561577.000000
562484.000000
563399.000000
564340.000000
565313.000000
566265.000000
567211.000000
568178.000000
569169.000000
570173.000000
571142.000000
572074.000000
572954.000000
573816.000000
574718.000000
575752.000000
576825.000000
577917.000000
578992.000000
580030.000000
580995.000000
581921.000000
582824.000000
583753.000000
584788.000000
585774.000000
586709.000000
587624.000000
588593.000000
589613.000000
590655.000000
591678.000000
592635.000000
593533.000000
594407.000000
595269.000000
596141.000000
597005.000000
597871.000000
598783.000000
599761.000000
600751.000000
601730.000000
602660.000000
603558.000000
604426.000000
605303.000000
606203.000000
607137.000000
608085.000000
609038.000000
609966.000000
610847.000000
611710.000000
612567.000000
613443.000000
614379.000000
615475.000000
616565.000000
617654.000000
618733.000000
619756.000000
620700.000000
621603.000000
622521.000000
623468.000000
624435.000000
625399.000000
626351.000000
627305.000000
628220.000000
629093.000000
629915.000000
630722.000000
631591.000000
632854.000000
634025.000000
635146.000000
636227.000000
637282.000000
638312.000000
639291.000000
640188.000000
641030.000000
641853.000000
642696.000000
643638.000000
644760.000000
645872.000000
646936.000000
647954.000000
648931.000000
649859.000000
650719.000000
651533.000000
652317.000000
653111.000000
654036.000000
655216.000000
656349.000000
657415.000000
658453.000000
659452.000000
660398.000000
661281.000000
662123.000000
662954.000000
663828.000000
664786.000000
665788.000000
666786.000000
667732.000000
668613.000000
669437.000000
670248.000000
671109.000000
672165.000000
673271.000000
674361.000000
675425.000000
676464.000000
677483.000000
678442.000000
679334.000000
680180.000000
681005.000000
681848.000000
682768.000000
683750.000000
684741.000000
685714.000000
686653.000000
687522.000000
688336.000000
689131.000000
689924.000000
690716.000000
691516.000000
692326.000000
693161.000000
694083.000000
695107.000000
696144.000000
697178.000000
698170.000000
699121.000000
700025.000000
700883.000000
701711.000000
702542.000000
703410.000000
704383.000000
705431.000000
706446.000000
707431.000000
708377.000000
709257.000000
710093.000000
710914.000000
711760.000000
712660.000000
713622.000000
714627.000000
715637.000000
716627.000000
717584.000000
718482.000000
719333.000000
720167.000000
721014.000000
721924.000000
722948.000000
723989.000000
725026.000000
726021.000000
726982.000000
727919.000000
728820.000000
729676.000000
730505.000000
731339.000000
732228.000000
733212.000000
734233.000000
735200.000000
736114.000000
736992.000000
737835.000000
738657.000000
739491.000000
740400.000000
741480.000000
742563.000000
743619.000000
744640.000000
745629.000000
746570.000000
747445.000000
748273.000000
749066.000000
749854.000000
750675.000000
751595.000000
752642.000000
753679.000000
754688.000000
755693.000000
756658.000000
757572.000000
758424.000000
759243.000000
760065.000000
760937.000000
761916.000000
762954.000000
764001.000000
765033.000000
766052.000000
767031.000000
767952.000000
768819.000000
769665.000000
770521.000000
771428.000000
772403.000000
773431.000000
774447.000000
775440.000000
776405.000000
777324.000000
778186.000000
779006.000000
779820.000000
780665.000000
781640.000000
782708.000000
783753.000000
784782.000000
785771.000000
786703.000000
787582.000000
788445.000000
789303.000000
790162.000000
790990.000000
791799.000000
792630.000000
793571.000000
794659.000000
795741.000000
796776.000000
797769.000000
798723.000000
799599.000000
800401.000000
801175.000000
801960.000000
802880.000000
804013.000000
805104.000000
806152.000000
807184.000000
808186.000000
809152.000000
810063.000000
810922.000000
811744.000000
812556.000000
813396.000000
814350.000000
815376.000000
816393.000000
817370.000000
818284.000000
819133.000000
819958.000000
820802.000000
821780.000000
822878.000000
823955.000000
824999.000000
826027.000000
827024.000000
827986.000000
828909.000000
829793.000000
830621.000000
831416.000000
832198.000000
833015.000000
834081.000000
835188.000000
836263.000000
837308.000000
838334.000000
839336.000000
840309.000000
841248.000000
842154.000000
843038.000000
843881.000000
844688.000000
845479.000000
846292.000000
847206.000000
848213.000000
849188.000000
850152.000000
851082.000000
851944.000000
852755.000000
853553.000000
854380.000000
855340.000000
856358.000000
857375.000000
858362.000000
859308.000000
860235.000000
861137.000000
862020.000000
862876.000000
863703.000000
864530.000000
865380.000000
866288.000000
867248.000000
868206.000000
869152.000000
870082.000000
870986.000000
871838.000000
872660.000000
873462.000000
874258.000000
875091.000000
876025.000000
877004.000000
877977.000000
878935.000000
879873.000000
880779.000000
881646.000000
882478.000000
883291.000000
884122.000000
885024.000000
886003.000000
886981.000000
887966.000000
888919.000000
889823.000000
890692.000000
891553.000000
892445.000000
893344.000000
894249.000000
895159.000000
896055.000000
896942.000000
897824.000000
898696.000000
899536.000000
900346.000000
