ECG (ms)
222.000000
1231.000000
2213.000000
3174.000000
4138.000000
5098.000000
6057.000000
7023.000000
7999.000000
8660.000000
9818.000000
10878.000000
11849.000000
12865.000000
13831.000000
14801.000000
15749.000000
16707.000000
17668.000000
18667.000000
19426.000000
20639.000000
21655.000000
22646.000000
23596.000000
24555.000000
25530.000000
26558.000000
27205.000000
28473.000000
29601.000000
30662.000000
31723.000000
32753.000000
33802.000000
34546.000000
35827.000000
36969.000000
38069.000000
39129.000000
40165.000000
41220.000000
42256.000000
43294.000000
44324.000000
45336.000000
46314.000000
47315.000000
48323.000000
49381.000000
50421.000000
51471.000000
52511.000000
53153.000000
54329.000000
55561.000000
56709.000000
57819.000000
58926.000000
59968.000000
61001.000000
62008.000000
63027.000000
64063.000000
65075.000000
66096.000000
66796.000000
68044.000000
69177.000000
70195.000000
71207.000000
72201.000000
73208.000000
74241.000000
75254.000000
75893.000000
77014.000000
78166.000000
79263.000000
80265.000000
81251.000000
82271.000000
83288.000000
84298.000000
85318.000000
86340.000000
87016.000000
88169.000000
89391.000000
90451.000000
91447.000000
92475.000000
93487.000000
94472.000000
95473.000000
96199.000000
97389.000000
98513.000000
99525.000000
100510.000000
101491.000000
102507.000000
103515.000000
104513.000000
105495.000000
106488.000000
107463.000000
108451.000000
109462.000000
110452.000000
111097.000000
112277.000000
113496.000000
114572.000000
115608.000000
116634.000000
117652.000000
118679.000000
119696.000000
120698.000000
121427.000000
122599.000000
123838.000000
124971.000000
126025.000000
127048.000000
128058.000000
129101.000000
130160.000000
131186.000000
131825.000000
133021.000000
134269.000000
135425.000000
136497.000000
137525.000000
138546.000000
139587.000000
140619.000000
141634.000000
142677.000000
143743.000000
144781.000000
145854.000000
146932.000000
147991.000000
148695.000000
149988.000000
151232.000000
152346.000000
153409.000000
154450.000000
155499.000000
156576.000000
157617.000000
158649.000000
159715.000000
160760.000000
161794.000000
162843.000000
163881.000000
164922.000000
165996.000000
167057.000000
168101.000000
169165.000000
170222.000000
171262.000000
172321.000000
173077.000000
174330.000000
175556.000000
176624.000000
177659.000000
178694.000000
179747.000000
180780.000000
181789.000000
182809.000000
183831.000000
184840.000000
185864.000000
186885.000000
187899.000000
188929.000000
189952.000000
190969.000000
191640.000000
192787.000000
194021.000000
195141.000000
196167.000000
197187.000000
198213.000000
199237.000000
200247.000000
201252.000000
202271.000000
203269.000000
204288.000000
204993.000000
206113.000000
207321.000000
208390.000000
209376.000000
210358.000000
211357.000000
212338.000000
213325.000000
214324.000000
214998.000000
216084.000000
217258.000000
218313.000000
219319.000000
220353.000000
221391.000000
222419.000000
223462.000000
224506.000000
225519.000000
226554.000000
227595.000000
228613.000000
229651.000000
230693.000000
231713.000000
232424.000000
233610.000000
234857.000000
235918.000000
236960.000000
237995.000000
239015.000000
240044.000000
241079.000000
242101.000000
243133.000000
244155.000000
244846.000000
246025.000000
247276.000000
248325.000000
249343.000000
250387.000000
251425.000000
252440.000000
253470.000000
254505.000000
255518.000000
256535.000000
257564.000000
258570.000000
259214.000000
260402.000000
261662.000000
262727.000000
263759.000000
264781.000000
265792.000000
266825.000000
267844.000000
268854.000000
269606.000000
270786.000000
271991.000000
273042.000000
274072.000000
275083.000000
276138.000000
277186.000000
278217.000000
279254.000000
280323.000000
281365.000000
282097.000000
283353.000000
284558.000000
285592.000000
286636.000000
287674.000000
288697.000000
289736.000000
290761.000000
291784.000000
292820.000000
293569.000000
294785.000000
296001.000000
297072.000000
298099.000000
299146.000000
300199.000000
301236.000000
302278.000000
303325.000000
304368.000000
305059.000000
306283.000000
307554.000000
308655.000000
309714.000000
310750.000000
311813.000000
312881.000000
313925.000000
314978.000000
316022.000000
317046.000000
318086.000000
319122.000000
320148.000000
321178.000000
322216.000000
323225.000000
324257.000000
325336.000000
326373.000000
327418.000000
328193.000000
329419.000000
330662.000000
331723.000000
332757.000000
333778.000000
334824.000000
335848.000000
336857.000000
337870.000000
338873.000000
339854.000000
340862.000000
341866.000000
342636.000000
343829.000000
345016.000000
346029.000000
347063.000000
348089.000000
349104.000000
350136.000000
351159.000000
352167.000000
353188.000000
354226.000000
355248.000000
355990.000000
357200.000000
358464.000000
359526.000000
360561.000000
361575.000000
362617.000000
363657.000000
364678.000000
365720.000000
366760.000000
367410.000000
368556.000000
369857.000000
370998.000000
372053.000000
373110.000000
374138.000000
375167.000000
376219.000000
377249.000000
378294.000000
379341.000000
380380.000000
381440.000000
382485.000000
383514.000000
384581.000000
385253.000000
386425.000000
387729.000000
388876.000000
389944.000000
391004.000000
392062.000000
393098.000000
394151.000000
395196.000000
396228.000000
397285.000000
397951.000000
399126.000000
400408.000000
401550.000000
402593.000000
403664.000000
404717.000000
405759.000000
406796.000000
407846.000000
408899.000000
409581.000000
410769.000000
412065.000000
413223.000000
414278.000000
415303.000000
416334.000000
417374.000000
418405.000000
419438.000000
420473.000000
421502.000000
422553.000000
423604.000000
424301.000000
425533.000000
426778.000000
427821.000000
428851.000000
429886.000000
430902.000000
431936.000000
432970.000000
433990.000000
435013.000000
435667.000000
436813.000000
438092.000000
439281.000000
440333.000000
441356.000000
442398.000000
443436.000000
444460.000000
445497.000000
446560.000000
447587.000000
448623.000000
449370.000000
450552.000000
451790.000000
452836.000000
453839.000000
454847.000000
455851.000000
456844.000000
457830.000000
458827.000000
459833.000000
460831.000000
461873.000000
462897.000000
463914.000000
464569.000000
465758.000000
467031.000000
468214.000000
469288.000000
470334.000000
471380.000000
472440.000000
473488.000000
474536.000000
475604.000000
476651.000000
477689.000000
478352.000000
479529.000000
480781.000000
481971.000000
483130.000000
484203.000000
485255.000000
486311.000000
487361.000000
488405.000000
489476.000000
490524.000000
491575.000000
492667.000000
493728.000000
494797.000000
495867.000000
496921.000000
497972.000000
499042.000000
500103.000000
501144.000000
502188.000000
503237.000000
504264.000000
505295.000000
506328.000000
507364.000000
508400.000000
509455.000000
510498.000000
511266.000000
512579.000000
513753.000000
514813.000000
515879.000000
516901.000000
517935.000000
519005.000000
520053.000000
521076.000000
522111.000000
523139.000000
524173.000000
524856.000000
526040.000000
527330.000000
528488.000000
529558.000000
530594.000000
531629.000000
532717.000000
533773.000000
534810.000000
535870.000000
536574.000000
537762.000000
539104.000000
540214.000000
541274.000000
542348.000000
543411.000000
544456.000000
545498.000000
546549.000000
547577.000000
548621.000000
549667.000000
550716.000000
551763.000000
552825.000000
553867.000000
554513.000000
555674.000000
556951.000000
558091.000000
559154.000000
560188.000000
561220.000000
562271.000000
563312.000000
564336.000000
565391.000000
566434.000000
567462.000000
568502.000000
569545.000000
570577.000000
571603.000000
572257.000000
573422.000000
574689.000000
575854.000000
576893.000000
577924.000000
578962.000000
579990.000000
581011.000000
582061.000000
583106.000000
584151.000000
585185.000000
586244.000000
587287.000000
588330.000000
588993.000000
590155.000000
591448.000000
592607.000000
593666.000000
594720.000000
595792.000000
596840.000000
597874.000000
598927.000000
599988.000000
601021.000000
602062.000000
602732.000000
603868.000000
605154.000000
606311.000000
607344.000000
608393.000000
609438.000000
610465.000000
611502.000000
612554.000000
613582.000000
614616.000000
615662.000000
616700.000000
617741.000000
618796.000000
619836.000000
620490.000000
621644.000000
622925.000000
624087.000000
625154.000000
626190.000000
627223.000000
628277.000000
629323.000000
630352.000000
631400.000000
632461.000000
633124.000000
634305.000000
635601.000000
636703.000000
637751.000000
638816.000000
639888.000000
640925.000000
641993.000000
643034.000000
644051.000000
645071.000000
646083.000000
647080.000000
648083.000000
648828.000000
650007.000000
651161.000000
652196.000000
653216.000000
654241.000000
654897.000000
656067.000000
657350.000000
658545.000000
659666.000000
660698.000000
661732.000000
662745.000000
663757.000000
664814.000000
665850.000000
666873.000000
667595.000000
668806.000000
670058.000000
671187.000000
672233.000000
673247.000000
674254.000000
675292.000000
676306.000000
677307.000000
678330.000000
679309.000000
680287.000000
681269.000000
682249.000000
683257.000000
684243.000000
685223.000000
686226.000000
687243.000000
687963.000000
689168.000000
690363.000000
691474.000000
692496.000000
693540.000000
694585.000000
695603.000000
696641.000000
697284.000000
698424.000000
699697.000000
700780.000000
701803.000000
702830.000000
703859.000000
704874.000000
705908.000000
706646.000000
707808.000000
709123.000000
710246.000000
711291.000000
712313.000000
713347.000000
714390.000000
715410.000000
716423.000000
717077.000000
718206.000000
719451.000000
720622.000000
721664.000000
722694.000000
723722.000000
724758.000000
725777.000000
726792.000000
727840.000000
728878.000000
729593.000000
730786.000000
732028.000000
733109.000000
734155.000000
735196.000000
736215.000000
737260.000000
738313.000000
739353.000000
740396.000000
741466.000000
742159.000000
743360.000000
744644.000000
745728.000000
746750.000000
747804.000000
748855.000000
749887.000000
750931.000000
751967.000000
753007.000000
754068.000000
755139.000000
756192.000000
756869.000000
758070.000000
759321.000000
760470.000000
761510.000000
762511.000000
763509.000000
764505.000000
765502.000000
766517.000000
767525.000000
768514.000000
769488.000000
770424.000000
771365.000000
772316.000000
773321.000000
774057.000000
775282.000000
776318.000000
777323.000000
778329.000000
779355.000000
780120.000000
781285.000000
782419.000000
783465.000000
784481.000000
785486.000000
786495.000000
787524.000000
788531.000000
789238.000000
790406.000000
791634.000000
792679.000000
793715.000000
794730.000000
795740.000000
796770.000000
797806.000000
798468.000000
799611.000000
800888.000000
802055.000000
803209.000000
804343.000000
805396.000000
806476.000000
807534.000000
808555.000000
809608.000000
810640.000000
811667.000000
812709.000000
813803.000000
814844.000000
815894.000000
816577.000000
817745.000000
819023.000000
820207.000000
821270.000000
822327.000000
823370.000000
824421.000000
825435.000000
826461.000000
827500.000000
828538.000000
829559.000000
830589.000000
831236.000000
832361.000000
833683.000000
834870.000000
836005.000000
837058.000000
838079.000000
839105.000000
840157.000000
841199.000000
842249.000000
843305.000000
844349.000000
845362.000000
846396.000000
847096.000000
848250.000000
849526.000000
850588.000000
851620.000000
852664.000000
853695.000000
854725.000000
855760.000000
856810.000000
857849.000000
858912.000000
859570.000000
860698.000000
861962.000000
863141.000000
864264.000000
865296.000000
866319.000000
867335.000000
868366.000000
869401.000000
870421.000000
871135.000000
872322.000000
873539.000000
874543.000000
875534.000000
876545.000000
877543.000000
878547.000000
879560.000000
880580.000000
881573.000000
882272.000000
883450.000000
884635.000000
885668.000000
886678.000000
887674.000000
888664.000000
889675.000000
890680.000000
891690.000000
892353.000000
893558.000000
894805.000000
895859.000000
896905.000000
897942.000000
898942.000000
899952.000000
900643.000000
901781.000000
903041.000000
