ECG (ms)
13.000000
943.000000
1950.000000
2912.000000
3802.000000
4717.000000
5548.000000
6377.000000
7292.000000
8255.000000
9110.000000
9943.000000
10829.000000
12072.000000
12992.000000
13815.000000
14739.000000
15890.000000
16763.000000
17606.000000
18786.000000
19842.000000
20942.000000
21945.000000
22866.000000
23823.000000
24715.000000
25615.000000
26668.000000
27857.000000
28837.000000
29974.000000
31115.000000
32192.000000
33329.000000
34282.000000
35270.000000
36465.000000
37498.000000
38459.000000
39473.000000
40342.000000
41330.000000
42666.000000
43544.000000
44734.000000
45727.000000
46768.000000
47822.000000
48811.000000
49881.000000
50965.000000
52184.000000
53268.000000
54110.000000
54969.000000
56194.000000
57242.000000
58269.000000
59325.000000
60311.000000
61360.000000
62391.000000
63376.000000
64413.000000
65416.000000
66403.000000
67448.000000
68430.000000
69432.000000
70450.000000
71423.000000
72418.000000
73429.000000
74305.000000
75309.000000
76391.000000
77317.000000
78425.000000
79498.000000
80332.000000
81253.000000
82312.000000
83229.000000
84438.000000
85595.000000
86444.000000
87412.000000
88422.000000
89277.000000
90255.000000
91525.000000
92454.000000
93645.000000
94604.000000
95455.000000
96500.000000
97536.000000
98394.000000
99405.000000
100530.000000
101448.000000
102638.000000
103643.000000
104478.000000
105407.000000
106450.000000
107373.000000
108318.000000
109518.000000
110547.000000
111402.000000
112317.000000
113571.000000
114579.000000
115461.000000
116610.000000
117765.000000
118705.000000
119605.000000
120838.000000
121805.000000
122670.000000
123701.000000
124856.000000
125744.000000
126613.000000
127749.000000
128947.000000
129903.000000
130950.000000
132011.000000
132943.000000
134005.000000
135111.000000
136001.000000
137208.000000
138366.000000
139310.000000
140462.000000
141602.000000
142472.000000
143719.000000
144852.000000
145787.000000
146977.000000
148110.000000
149227.000000
150324.000000
151304.000000
152358.000000
153381.000000
154344.000000
155391.000000
156426.000000
157430.000000
158496.000000
159494.000000
160527.000000
161580.000000
162555.000000
163611.000000
164711.000000
165564.000000
166519.000000
167476.000000
168322.000000
169346.000000
170453.000000
171357.000000
172436.000000
173468.000000
174356.000000
175569.000000
176451.000000
177296.000000
178343.000000
179249.000000
180151.000000
181388.000000
182534.000000
183654.000000
184683.000000
185539.000000
186492.000000
187695.000000
188696.000000
189808.000000
190685.000000
191493.000000
192360.000000
193250.000000
194098.000000
195249.000000
196184.000000
197015.000000
197966.000000
199051.000000
199951.000000
201055.000000
202127.000000
203015.000000
204151.000000
205264.000000
206139.000000
207064.000000
208205.000000
209076.000000
210057.000000
211067.000000
211925.000000
212813.000000
214012.000000
214970.000000
215854.000000
216855.000000
217913.000000
218814.000000
219796.000000
220958.000000
221864.000000
222820.000000
223924.000000
224792.000000
225768.000000
226995.000000
228090.000000
229130.000000
230104.000000
230961.000000
231910.000000
233045.000000
233932.000000
235002.000000
235974.000000
236822.000000
238008.000000
239171.000000
240023.000000
240962.000000
241912.000000
242773.000000
244014.000000
245116.000000
246046.000000
247080.000000
247978.000000
248937.000000
250127.000000
251016.000000
252036.000000
253055.000000
253954.000000
255183.000000
256321.000000
257179.000000
258167.000000
259078.000000
259944.000000
261198.000000
262254.000000
263260.000000
264316.000000
265310.000000
266259.000000
267181.000000
268043.000000
268969.000000
270169.000000
271047.000000
271939.000000
272990.000000
273853.000000
274804.000000
275998.000000
276858.000000
277873.000000
278830.000000
279679.000000
280756.000000
281847.000000
282725.000000
283934.000000
284953.000000
285825.000000
286810.000000
287684.000000
288618.000000
289783.000000
290660.000000
291609.000000
292595.000000
293424.000000
294441.000000
295540.000000
296432.000000
297510.000000
298550.000000
299403.000000
300461.000000
301566.000000
302432.000000
303433.000000
304473.000000
305344.000000
306359.000000
307426.000000
308326.000000
309337.000000
310324.000000
311186.000000
312219.000000
313349.000000
314276.000000
315238.000000
316292.000000
317181.000000
318154.000000
319216.000000
320130.000000
321114.000000
322208.000000
323079.000000
324014.000000
325142.000000
326038.000000
326981.000000
328008.000000
328872.000000
329823.000000
330925.000000
331807.000000
332839.000000
333998.000000
334885.000000
335975.000000
336966.000000
337806.000000
338785.000000
339951.000000
340856.000000
341891.000000
342986.000000
343913.000000
345021.000000
346052.000000
346983.000000
348120.000000
349077.000000
349927.000000
350919.000000
351890.000000
352797.000000
354062.000000
355142.000000
356155.000000
357420.000000
358354.000000
359278.000000
360451.000000
361345.000000
362325.000000
363568.000000
364553.000000
365528.000000
366508.000000
367366.000000
368388.000000
369448.000000
370335.000000
371528.000000
372495.000000
373331.000000
374250.000000
375195.000000
376050.000000
377042.000000
378158.000000
379020.000000
380025.000000
381087.000000
381937.000000
382905.000000
383921.000000
384772.000000
385752.000000
386788.000000
387649.000000
388636.000000
389704.000000
390590.000000
391553.000000
392571.000000
393435.000000
394411.000000
395501.000000
396368.000000
397319.000000
398338.000000
399184.000000
400125.000000
401262.000000
402138.000000
403123.000000
404193.000000
405069.000000
406089.000000
407068.000000
407951.000000
409034.000000
410137.000000
411012.000000
411911.000000
412875.000000
413809.000000
414715.000000
415924.000000
416817.000000
417754.000000
418852.000000
419736.000000
420718.000000
421807.000000
422684.000000
423645.000000
424681.000000
425546.000000
426477.000000
427730.000000
428630.000000
429599.000000
430675.000000
431561.000000
432554.000000
433632.000000
434507.000000
435601.000000
436692.000000
437554.000000
438655.000000
439684.000000
440550.000000
441446.000000
442609.000000
443504.000000
444391.000000
445556.000000
446501.000000
447357.000000
448378.000000
449337.000000
450192.000000
451165.000000
452236.000000
453091.000000
454035.000000
455026.000000
455880.000000
456889.000000
457972.000000
458823.000000
459724.000000
460685.000000
461509.000000
462383.000000
463623.000000
464482.000000
465349.000000
466383.000000
467257.000000
468208.000000
469343.000000
470211.000000
471229.000000
472212.000000
473080.000000
474056.000000
475192.000000
476057.000000
477037.000000
478114.000000
478967.000000
479894.000000
480915.000000
481820.000000
482804.000000
483803.000000
484641.000000
485614.000000
486543.000000
487375.000000
488292.000000
489345.000000
490202.000000
491143.000000
492132.000000
492992.000000
494050.000000
495216.000000
496096.000000
497022.000000
498108.000000
498983.000000
500012.000000
501080.000000
501945.000000
502900.000000
503887.000000
504732.000000
505715.000000
506734.000000
507590.000000
508627.000000
509624.000000
510505.000000
511751.000000
512955.000000
513865.000000
514796.000000
515755.000000
516593.000000
517448.000000
518697.000000
519607.000000
520504.000000
521611.000000
522508.000000
523375.000000
524668.000000
525789.000000
526703.000000
527734.000000
528897.000000
529811.000000
530721.000000
531838.000000
532755.000000
533628.000000
534861.000000
535850.000000
536720.000000
537656.000000
538904.000000
539872.000000
540966.000000
542173.000000
543297.000000
544173.000000
545124.000000
546231.000000
547151.000000
548064.000000
549369.000000
550474.000000
551426.000000
552564.000000
553682.000000
554554.000000
555526.000000
556558.000000
557504.000000
558526.000000
559660.000000
560559.000000
561471.000000
562463.000000
563315.000000
564233.000000
565173.000000
565976.000000
566791.000000
567551.000000
568282.000000
569170.000000
570023.000000
570882.000000
571867.000000
572788.000000
573633.000000
574661.000000
575647.000000
576473.000000
577378.000000
578415.000000
579346.000000
580186.000000
581109.000000
582182.000000
583056.000000
583924.000000
585134.000000
586069.000000
586930.000000
588071.000000
589245.000000
590127.000000
591208.000000
592191.000000
593046.000000
594172.000000
595180.000000
596056.000000
597089.000000
598093.000000
598956.000000
599929.000000
600895.000000
601737.000000
602627.000000
603703.000000
604591.000000
605507.000000
606692.000000
607591.000000
608461.000000
609399.000000
610290.000000
611209.000000
612496.000000
613526.000000
614406.000000
615504.000000
616497.000000
617326.000000
618439.000000
619567.000000
620400.000000
621272.000000
622219.000000
623079.000000
623951.000000
625212.000000
626145.000000
627023.000000
628292.000000
629298.000000
630304.000000
631416.000000
632386.000000
633349.000000
634587.000000
635488.000000
636456.000000
637542.000000
638507.000000
639664.000000
640858.000000
641806.000000
642843.000000
643852.000000
644751.000000
646075.000000
647257.000000
648205.000000
649309.000000
650382.000000
651264.000000
652271.000000
653496.000000
654374.000000
655296.000000
656623.000000
657656.000000
658544.000000
659841.000000
660982.000000
661902.000000
662848.000000
664154.000000
665088.000000
665982.000000
667190.000000
668079.000000
669001.000000
670299.000000
671362.000000
672389.000000
673501.000000
674457.000000
675422.000000
676576.000000
677535.000000
678528.000000
679492.000000
680377.000000
681427.000000
682536.000000
683506.000000
684689.000000
685835.000000
686861.000000
688059.000000
689078.000000
690008.000000
690943.000000
691797.000000
692635.000000
693709.000000
694637.000000
695492.000000
696523.000000
697456.000000
698334.000000
699324.000000
700196.000000
701035.000000
701947.000000
702846.000000
703690.000000
704741.000000
705878.000000
706787.000000
707796.000000
708858.000000
709718.000000
710679.000000
711771.000000
712654.000000
713659.000000
714753.000000
715646.000000
716672.000000
717706.000000
718570.000000
719552.000000
720579.000000
721466.000000
722592.000000
723731.000000
724601.000000
725598.000000
726600.000000
727469.000000
728509.000000
729507.000000
730359.000000
731348.000000
732434.000000
733332.000000
734269.000000
735243.000000
736094.000000
737010.000000
738209.000000
739088.000000
740032.000000
741121.000000
742015.000000
743161.000000
744267.000000
745131.000000
746089.000000
747026.000000
747884.000000
749092.000000
750122.000000
751063.000000
752072.000000
753082.000000
753986.000000
755006.000000
755991.000000
756886.000000
757847.000000
758854.000000
759724.000000
760643.000000
761720.000000
762636.000000
763544.000000
764612.000000
765583.000000
766419.000000
767343.000000
768438.000000
769320.000000
770254.000000
771257.000000
772140.000000
773048.000000
774271.000000
775142.000000
776017.000000
777003.000000
777867.000000
778726.000000
779826.000000
781036.000000
781978.000000
782988.000000
784070.000000
784947.000000
785915.000000
786984.000000
787868.000000
788977.000000
789985.000000
790818.000000
791663.000000
792875.000000
793753.000000
794673.000000
795789.000000
796675.000000
797761.000000
798948.000000
799879.000000
800920.000000
802029.000000
802990.000000
804080.000000
805217.000000
806131.000000
807205.000000
808294.000000
809186.000000
810384.000000
811495.000000
812397.000000
813320.000000
814301.000000
815163.000000
816188.000000
817225.000000
818097.000000
819129.000000
820269.000000
821158.000000
822097.000000
823167.000000
824024.000000
824939.000000
826086.000000
826970.000000
827883.000000
829159.000000
830148.000000
831036.000000
831966.000000
832832.000000
833627.000000
834391.000000
835283.000000
836616.000000
837584.000000
838436.000000
839697.000000
840717.000000
841575.000000
842480.000000
843544.000000
844600.000000
845473.000000
846528.000000
847611.000000
848507.000000
849419.000000
850386.000000
851320.000000
852186.000000
853206.000000
854286.000000
855191.000000
856139.000000
857094.000000
857940.000000
858833.000000
860048.000000
860881.000000
861744.000000
862686.000000
863519.000000
864336.000000
865639.000000
866644.000000
867698.000000
868841.000000
869760.000000
870714.000000
871626.000000
872440.000000
873324.000000
874387.000000
875252.000000
876203.000000
877322.000000
878164.000000
879044.000000
879993.000000
880845.000000
881828.000000
882709.000000
883538.000000
884386.000000
885344.000000
886223.000000
887062.000000
887994.000000
888939.000000
889818.000000
890775.000000
891741.000000
892585.000000
893465.000000
894384.000000
895242.000000
896079.000000
896970.000000
897850.000000
898668.000000
899503.000000
900351.000000
901153.000000
901987.000000
903012.000000
903890.000000
904758.000000
905979.000000
906879.000000
907738.000000
908757.000000
909637.000000
910479.000000
911796.000000
912765.000000
913624.000000
914540.000000
915363.000000
916118.000000
916883.000000
917763.000000
919006.000000
919923.000000
920857.000000
921965.000000
922887.000000
923782.000000
924891.000000
925808.000000
926623.000000
927498.000000
928444.000000
929294.000000
930251.000000
931475.000000
932334.000000
933316.000000
934290.000000
935145.000000
936155.000000
937257.000000
938164.000000
939384.000000
940387.000000
941225.000000
942215.000000
943339.000000
944226.000000
945434.000000
946449.000000
947315.000000
948324.000000
949328.000000
950186.000000
951097.000000
952077.000000
952921.000000
953831.000000
954898.000000
955766.000000
956686.000000
957684.000000
958544.000000
959495.000000
960579.000000
961444.000000
962428.000000
963489.000000
964348.000000
965258.000000
966237.000000
967072.000000
967951.000000
968856.000000
969694.000000
970597.000000
971727.000000
972609.000000
973497.000000
974463.000000
975336.000000
976209.000000
977262.000000
978176.000000
979078.000000
980153.000000
981130.000000
981986.000000
982947.000000
984091.000000
984992.000000
985917.000000
986989.000000
987850.000000
988715.000000
989976.000000
990884.000000
991766.000000
992752.000000
993647.000000
994493.000000
995432.000000
996429.000000
997283.000000
998274.000000
999339.000000
1000259.000000
1001413.000000
1002381.000000
1003251.000000
1004242.000000
1005179.000000
1006026.000000
1006959.000000
1007910.000000
1008771.000000
1009750.000000
1010832.000000
1011698.000000
1012571.000000
1013480.000000
1014326.000000
1015219.000000
1016394.000000
1017300.000000
1018167.000000
1019431.000000
1020472.000000
1021334.000000
1022246.000000
1023259.000000
1024182.000000
1025257.000000
1026424.000000
1027319.000000
1028351.000000
1029434.000000
1030344.000000
1031351.000000
1032459.000000
1033380.000000
1034447.000000
1035563.000000
1036455.000000
1037444.000000
1038468.000000
1039413.000000
1040514.000000
1041663.000000
1042530.000000
1043457.000000
1044442.000000
1045291.000000
1046193.000000
1047415.000000
1048337.000000
1049346.000000
1050478.000000
1051352.000000
1052523.000000
1053652.000000
1054535.000000
1055756.000000
1056838.000000
1057726.000000
1058644.000000
1059644.000000
1060513.000000
1061789.000000
1062900.000000
1063792.000000
1064837.000000
1065759.000000
1066601.000000
1067513.000000
1068598.000000
1069484.000000
1070420.000000
1071426.000000
1072280.000000
1073157.000000
1074159.000000
1075070.000000
1075940.000000
1076905.000000
1077782.000000
1078602.000000
1079483.000000
1080711.000000
1081599.000000
1082544.000000
1083561.000000
1084444.000000
1085366.000000
1086484.000000
1087420.000000
1088378.000000
1089442.000000
1090377.000000
1091257.000000
1092211.000000
1093284.000000
1094172.000000
1095127.000000
1096130.000000
1097048.000000
1097995.000000
1098985.000000
1099825.000000
1100677.000000
1101685.000000
1102589.000000
1103429.000000
1104453.000000
1105346.000000
1106181.000000
1107449.000000
1108539.000000
1109511.000000
1110630.000000
1111574.000000
1112664.000000
1113782.000000
1114741.000000
1115722.000000
1116914.000000
1117829.000000
1118853.000000
1119899.000000
1120779.000000
1121810.000000
1122924.000000
1123919.000000
1125026.000000
1126162.000000
1127016.000000
1127890.000000
1128873.000000
1129773.000000
1130737.000000
1131966.000000
1132877.000000
1133920.000000
1134949.000000
1135831.000000
1136833.000000
1137888.000000
1138749.000000
1139782.000000
1140899.000000
1141772.000000
1142744.000000
1143893.000000
1144810.000000
1145900.000000
1146948.000000
1147827.000000
1149122.000000
1150195.000000
1151131.000000
1152101.000000
1153036.000000
1153905.000000
1154928.000000
1156138.000000
1157132.000000
1158182.000000
1159244.000000
1160149.000000
1161141.000000
1162172.000000
1163064.000000
1164032.000000
1165057.000000
1165943.000000
1166988.000000
1168067.000000
1168947.000000
1169937.000000
1170997.000000
1171887.000000
1172981.000000
1174161.000000
1175130.000000
1176305.000000
1177396.000000
1178367.000000
1179419.000000
1180375.000000
1181290.000000
1182315.000000
1183334.000000
1184229.000000
1185181.000000
1186257.000000
1187169.000000
1188223.000000
1189288.000000
1190210.000000
1191146.000000
1192218.000000
1193109.000000
1194110.000000
1195113.000000
1195985.000000
1196924.000000
1198138.000000
1199025.000000
1200006.000000
1201042.000000
1201912.000000
1202848.000000
1203888.000000
1204782.000000
1205619.000000
1206488.000000
1207705.000000
1208612.000000
1209519.000000
1210550.000000
1211436.000000
1212337.000000
