ECG (ms)
218.000000
1098.000000
1982.000000
2872.000000
3745.000000
4611.000000
5484.000000
6352.000000
7221.000000
8086.000000
8941.000000
9822.000000
10709.000000
11584.000000
12459.000000
13343.000000
14229.000000
15109.000000
15963.000000
16832.000000
17695.000000
18552.000000
19406.000000
20278.000000
21162.000000
22035.000000
22900.000000
23771.000000
24633.000000
25487.000000
26328.000000
27178.000000
28040.000000
28885.000000
29732.000000
30589.000000
31444.000000
32299.000000
33151.000000
34007.000000
34855.000000
35691.000000
36536.000000
37399.000000
38272.000000
39119.000000
39983.000000
40835.000000
41687.000000
42523.000000
43375.000000
44233.000000
45083.000000
45924.000000
46772.000000
47621.000000
48462.000000
49304.000000
50166.000000
51027.000000
51866.000000
52722.000000
53580.000000
54428.000000
55263.000000
56111.000000
56958.000000
57807.000000
58673.000000
59563.000000
60453.000000
61319.000000
62136.000000
62962.000000
63805.000000
64647.000000
65503.000000
66354.000000
67225.000000
68094.000000
68951.000000
69805.000000
70673.000000
71549.000000
72410.000000
73267.000000
74141.000000
75019.000000
75902.000000
76767.000000
77628.000000
78492.000000
79356.000000
80210.000000
81069.000000
81916.000000
82758.000000
83592.000000
84449.000000
85299.000000
86148.000000
86987.000000
87843.000000
88691.000000
89533.000000
90389.000000
91265.000000
92120.000000
92975.000000
93837.000000
94707.000000
95566.000000
96423.000000
97280.000000
98136.000000
98988.000000
99834.000000
100698.000000
101550.000000
102371.000000
103180.000000
103999.000000
104819.000000
105651.000000
106489.000000
107327.000000
108164.000000
109049.000000
109956.000000
110877.000000
111765.000000
112658.000000
113568.000000
114494.000000
115404.000000
116305.000000
117223.000000
118163.000000
119073.000000
119968.000000
120887.000000
121811.000000
122727.000000
123602.000000
124507.000000
125391.000000
126289.000000
127170.000000
128073.000000
128959.000000
129837.000000
130706.000000
131583.000000
132453.000000
133312.000000
134185.000000
135063.000000
135940.000000
136788.000000
137650.000000
138502.000000
139348.000000
140196.000000
141059.000000
141915.000000
142761.000000
143617.000000
144481.000000
145330.000000
146170.000000
147025.000000
147874.000000
148722.000000
149560.000000
150413.000000
151284.000000
152139.000000
153000.000000
153861.000000
154713.000000
155551.000000
156386.000000
157206.000000
157999.000000
158800.000000
159614.000000
160421.000000
161245.000000
162082.000000
162918.000000
163755.000000
164608.000000
165469.000000
166310.000000
167164.000000
168020.000000
168885.000000
169745.000000
170609.000000
171472.000000
172346.000000
173201.000000
174077.000000
174958.000000
175831.000000
176692.000000
177569.000000
178456.000000
179335.000000
180210.000000
181085.000000
181982.000000
182849.000000
183760.000000
184669.000000
185547.000000
186460.000000
187353.000000
188252.000000
189140.000000
189999.000000
190956.000000
191845.000000
192713.000000
193592.000000
194461.000000
195329.000000
196187.000000
197067.000000
197950.000000
198841.000000
199710.000000
200602.000000
201494.000000
202371.000000
203247.000000
204129.000000
204990.000000
205849.000000
206723.000000
207628.000000
208525.000000
209406.000000
210317.000000
211213.000000
212107.000000
212987.000000
213883.000000
214774.000000
215640.000000
216515.000000
217410.000000
218294.000000
219160.000000
220022.000000
220892.000000
221772.000000
222660.000000
223539.000000
224467.000000
225364.000000
226267.000000
227133.000000
228012.000000
228882.000000
229747.000000
230602.000000
231475.000000
232343.000000
233204.000000
234067.000000
234947.000000
235830.000000
236697.000000
237585.000000
238459.000000
239340.000000
240201.000000
241065.000000
241927.000000
242800.000000
243664.000000
244516.000000
245379.000000
246246.000000
247106.000000
247962.000000
248833.000000
249700.000000
250565.000000
251429.000000
252295.000000
253166.000000
254014.000000
254877.000000
255743.000000
256586.000000
257427.000000
258276.000000
259128.000000
259974.000000
260818.000000
261666.000000
262515.000000
263357.000000
264200.000000
265053.000000
265893.000000
266727.000000
267536.000000
268341.000000
269153.000000
269958.000000
270764.000000
271592.000000
272435.000000
273273.000000
274114.000000
274971.000000
275826.000000
276676.000000
277544.000000
278417.000000
279282.000000
280139.000000
281000.000000
281862.000000
282715.000000
283574.000000
284445.000000
285300.000000
286152.000000
287035.000000
287904.000000
288781.000000
289647.000000
290527.000000
291392.000000
292242.000000
293100.000000
293964.000000
294833.000000
295704.000000
296570.000000
297435.000000
298307.000000
299159.000000
300026.000000
300898.000000
301771.000000
302595.000000
303406.000000
304251.000000
305103.000000
305969.000000
306837.000000
307723.000000
308608.000000
309502.000000
310402.000000
311283.000000
312185.000000
313079.000000
313996.000000
314878.000000
315793.000000
316689.000000
317582.000000
318465.000000
319377.000000
320277.000000
321177.000000
322068.000000
322976.000000
323883.000000
324782.000000
325656.000000
326533.000000
327427.000000
328301.000000
329176.000000
330059.000000
330952.000000
331826.000000
332701.000000
333586.000000
334465.000000
335332.000000
336205.000000
337091.000000
337974.000000
338842.000000
339709.000000
340574.000000
341441.000000
342295.000000
343167.000000
344031.000000
344883.000000
345731.000000
346604.000000
347467.000000
348323.000000
349196.000000
350069.000000
350934.000000
351788.000000
352646.000000
353512.000000
354373.000000
355236.000000
356104.000000
356973.000000
357831.000000
358687.000000
359552.000000
360417.000000
361274.000000
362136.000000
363004.000000
363876.000000
364739.000000
365605.000000
366484.000000
367362.000000
368219.000000
369081.000000
369956.000000
370835.000000
371696.000000
372575.000000
373460.000000
374334.000000
375200.000000
376081.000000
376952.000000
377810.000000
378686.000000
379565.000000
380439.000000
381306.000000
382189.000000
383081.000000
383979.000000
384871.000000
385789.000000
386694.000000
387593.000000
388480.000000
389367.000000
390268.000000
391156.000000
392040.000000
392942.000000
393841.000000
394716.000000
395616.000000
396502.000000
397391.000000
398261.000000
399142.000000
400031.000000
400912.000000
401781.000000
402669.000000
403560.000000
404447.000000
405320.000000
406217.000000
407102.000000
407984.000000
408847.000000
409734.000000
410623.000000
411512.000000
412378.000000
413261.000000
414130.000000
414995.000000
415852.000000
416710.000000
417577.000000
418429.000000
419286.000000
420154.000000
421018.000000
421871.000000
422734.000000
423596.000000
424453.000000
425307.000000
426193.000000
427075.000000
427959.000000
428856.000000
429740.000000
430621.000000
431496.000000
432386.000000
433278.000000
434168.000000
435040.000000
435936.000000
436831.000000
437716.000000
438616.000000
439523.000000
440431.000000
441307.000000
442204.000000
443089.000000
443966.000000
444848.000000
445739.000000
446624.000000
447504.000000
448395.000000
449285.000000
450173.000000
451047.000000
451925.000000
452807.000000
453668.000000
454559.000000
455460.000000
456331.000000
457221.000000
458106.000000
458993.000000
459861.000000
460734.000000
461624.000000
462502.000000
463389.000000
464288.000000
465176.000000
466048.000000
466931.000000
467826.000000
468698.000000
469562.000000
470444.000000
471321.000000
472190.000000
473055.000000
473806.000000
474864.000000
475758.000000
476639.000000
477524.000000
478409.000000
479260.000000
480115.000000
480967.000000
481817.000000
482657.000000
483504.000000
484351.000000
485203.000000
486041.000000
486894.000000
487747.000000
488596.000000
489432.000000
490277.000000
491123.000000
491960.000000
492777.000000
493575.000000
494380.000000
495187.000000
495996.000000
496809.000000
497641.000000
498484.000000
499328.000000
500166.000000
501025.000000
501874.000000
502716.000000
503566.000000
504432.000000
505286.000000
506135.000000
506990.000000
507868.000000
508719.000000
509588.000000
510453.000000
511321.000000
512178.000000
513039.000000
513902.000000
514778.000000
515647.000000
516534.000000
517423.000000
518295.000000
519141.000000
519998.000000
520873.000000
521746.000000
522610.000000
523467.000000
524339.000000
525202.000000
526056.000000
526945.000000
527823.000000
528695.000000
529575.000000
530455.000000
531345.000000
532213.000000
533079.000000
533956.000000
534847.000000
535728.000000
536608.000000
537507.000000
538397.000000
539264.000000
540147.000000
541022.000000
541900.000000
542772.000000
543654.000000
544547.000000
545437.000000
546316.000000
547201.000000
548085.000000
548952.000000
549825.000000
550702.000000
551579.000000
552444.000000
553326.000000
554204.000000
555081.000000
555957.000000
556874.000000
557770.000000
558662.000000
559577.000000
560487.000000
561389.000000
562274.000000
563175.000000
564065.000000
564938.000000
565821.000000
566712.000000
567601.000000
568503.000000
569399.000000
570310.000000
571193.000000
572111.000000
573020.000000
573925.000000
574802.000000
575706.000000
576600.000000
577500.000000
578371.000000
579266.000000
580154.000000
581048.000000
581926.000000
582825.000000
583735.000000
584622.000000
585505.000000
586408.000000
587296.000000
588191.000000
589082.000000
590007.000000
590893.000000
591767.000000
592650.000000
593525.000000
594390.000000
595269.000000
596153.000000
597023.000000
597905.000000
598796.000000
599700.000000
600572.000000
601452.000000
602333.000000
603224.000000
604096.000000
604982.000000
605868.000000
606741.000000
607604.000000
608482.000000
609369.000000
610261.000000
611115.000000
612001.000000
612874.000000
613754.000000
614627.000000
615509.000000
616396.000000
617254.000000
618136.000000
619008.000000
619881.000000
620746.000000
621629.000000
622533.000000
623444.000000
624346.000000
625281.000000
626209.000000
627127.000000
628033.000000
628948.000000
629872.000000
630763.000000
631651.000000
632565.000000
633476.000000
634382.000000
635270.000000
636175.000000
637079.000000
637983.000000
638871.000000
639772.000000
640671.000000
641580.000000
642453.000000
643357.000000
644243.000000
645134.000000
646009.000000
646915.000000
647804.000000
648691.000000
649541.000000
650415.000000
651287.000000
652152.000000
652999.000000
653864.000000
654728.000000
655602.000000
656489.000000
657390.000000
658289.000000
659163.000000
660058.000000
660946.000000
661812.000000
662662.000000
663528.000000
664406.000000
665263.000000
666135.000000
667007.000000
667879.000000
668747.000000
669605.000000
670473.000000
671346.000000
672207.000000
673062.000000
673920.000000
674797.000000
675657.000000
676529.000000
677404.000000
678289.000000
679161.000000
680035.000000
680928.000000
681817.000000
682689.000000
683588.000000
684476.000000
685359.000000
686225.000000
687107.000000
687994.000000
688879.000000
689751.000000
690635.000000
691523.000000
692398.000000
693277.000000
694159.000000
695048.000000
695922.000000
696844.000000
697734.000000
698635.000000
699512.000000
700398.000000
701285.000000
702155.000000
703027.000000
703919.000000
704796.000000
705675.000000
706536.000000
707373.000000
708185.000000
709003.000000
709832.000000
710663.000000
711507.000000
712376.000000
713256.000000
714139.000000
715006.000000
715886.000000
716785.000000
717664.000000
718535.000000
719419.000000
720306.000000
721165.000000
722046.000000
722931.000000
723817.000000
724693.000000
725586.000000
726461.000000
727332.000000
728200.000000
729079.000000
729960.000000
730824.000000
731686.000000
732554.000000
733427.000000
734286.000000
735147.000000
736025.000000
736890.000000
737740.000000
738616.000000
739499.000000
740376.000000
741242.000000
742135.000000
743030.000000
743911.000000
744774.000000
745659.000000
746538.000000
747398.000000
748292.000000
749186.000000
750086.000000
750956.000000
751856.000000
752743.000000
753636.000000
754500.000000
755391.000000
756279.000000
757157.000000
758033.000000
758926.000000
759815.000000
760690.000000
761581.000000
762482.000000
763371.000000
764252.000000
765139.000000
766042.000000
766925.000000
767810.000000
768711.000000
769616.000000
770501.000000
771404.000000
772313.000000
773223.000000
774127.000000
775028.000000
775927.000000
776818.000000
777691.000000
778584.000000
779483.000000
780374.000000
781261.000000
782160.000000
783066.000000
783957.000000
784853.000000
785748.000000
786651.000000
787516.000000
788398.000000
789285.000000
790182.000000
791065.000000
791981.000000
792890.000000
793777.000000
794653.000000
795532.000000
796425.000000
797285.000000
798151.000000
799047.000000
799913.000000
800778.000000
801654.000000
802540.000000
803418.000000
804307.000000
805205.000000
806123.000000
806996.000000
807879.000000
808772.000000
809645.000000
810510.000000
811393.000000
812290.000000
813177.000000
814059.000000
814962.000000
815853.000000
816732.000000
817613.000000
818506.000000
819384.000000
820267.000000
821192.000000
822101.000000
823029.000000
823925.000000
824850.000000
825771.000000
826675.000000
827572.000000
828483.000000
829413.000000
830323.000000
831233.000000
832153.000000
833068.000000
833982.000000
834899.000000
835786.000000
836698.000000
837613.000000
838532.000000
839437.000000
840273.000000
841117.000000
841975.000000
842848.000000
843655.000000
844630.000000
845502.000000
846403.000000
847301.000000
848210.000000
849109.000000
850012.000000
850909.000000
851792.000000
852693.000000
853604.000000
854510.000000
855415.000000
856327.000000
857236.000000
858141.000000
859039.000000
859940.000000
860834.000000
861714.000000
862611.000000
863505.000000
864412.000000
865301.000000
866223.000000
867143.000000
868060.000000
868967.000000
869878.000000
870788.000000
871692.000000
872591.000000
873496.000000
874398.000000
875278.000000
876161.000000
877059.000000
877963.000000
878846.000000
879755.000000
880650.000000
881539.000000
882414.000000
883305.000000
884202.000000
885093.000000
885979.000000
886877.000000
887775.000000
888648.000000
889540.000000
890431.000000
891337.000000
892209.000000
893110.000000
894005.000000
894894.000000
895783.000000
896682.000000
897575.000000
898470.000000
899356.000000
900269.000000
901170.000000
