ECG (ms)
119.000000
833.000000
1529.000000
2227.000000
2932.000000
3652.000000
4370.000000
5078.000000
5801.000000
6528.000000
7266.000000
7999.000000
8716.000000
9426.000000
10144.000000
10870.000000
11598.000000
12316.000000
13021.000000
13716.000000
14413.000000
15120.000000
15843.000000
16567.000000
17287.000000
17999.000000
18709.000000
19428.000000
20152.000000
20874.000000
21585.000000
22280.000000
22973.000000
23672.000000
24377.000000
25087.000000
25784.000000
26476.000000
27164.000000
27854.000000
28553.000000
29265.000000
29980.000000
30684.000000
31376.000000
32062.000000
32753.000000
33451.000000
34153.000000
34745.000000
35508.000000
36202.000000
36903.000000
37609.000000
38324.000000
39026.000000
39717.000000
40411.000000
41105.000000
41801.000000
42486.000000
43166.000000
43852.000000
44545.000000
45250.000000
45960.000000
46668.000000
47375.000000
48097.000000
48830.000000
49564.000000
50281.000000
50967.000000
51688.000000
52402.000000
53122.000000
53841.000000
54551.000000
55263.000000
55990.000000
56725.000000
57460.000000
58182.000000
58894.000000
59608.000000
60322.000000
61036.000000
61669.000000
62413.000000
63114.000000
63822.000000
64537.000000
65252.000000
65956.000000
66663.000000
67382.000000
68109.000000
68829.000000
69538.000000
70253.000000
70970.000000
71691.000000
72396.000000
73090.000000
73788.000000
74491.000000
75200.000000
75895.000000
76584.000000
77272.000000
77966.000000
78669.000000
79361.000000
80046.000000
80722.000000
81401.000000
82081.000000
82764.000000
83438.000000
84106.000000
84772.000000
85438.000000
86112.000000
86792.000000
87472.000000
88145.000000
88811.000000
89469.000000
90125.000000
90789.000000
91474.000000
92156.000000
92836.000000
93518.000000
94200.000000
94890.000000
95594.000000
96308.000000
97018.000000
97713.000000
98397.000000
99076.000000
99747.000000
100423.000000
101108.000000
101785.000000
102457.000000
103123.000000
103791.000000
104472.000000
105167.000000
105873.000000
106564.000000
107247.000000
107921.000000
108581.000000
109240.000000
109894.000000
110528.000000
111142.000000
111752.000000
112363.000000
112978.000000
113611.000000
114274.000000
114970.000000
115664.000000
116351.000000
117036.000000
117723.000000
118414.000000
119112.000000
119801.000000
120480.000000
121055.000000
121792.000000
122490.000000
123200.000000
123909.000000
124611.000000
125288.000000
126029.000000
126760.000000
127504.000000
128247.000000
128978.000000
129603.000000
130403.000000
131144.000000
131899.000000
132659.000000
133405.000000
134135.000000
134853.000000
135564.000000
136274.000000
136993.000000
137725.000000
138467.000000
139196.000000
139918.000000
140634.000000
141342.000000
142043.000000
142741.000000
143441.000000
144158.000000
144895.000000
145654.000000
146430.000000
147210.000000
147979.000000
148724.000000
149430.000000
150113.000000
150780.000000
151438.000000
152102.000000
152772.000000
153452.000000
154148.000000
154872.000000
155631.000000
156401.000000
157153.000000
157895.000000
158637.000000
159380.000000
160119.000000
160855.000000
161578.000000
162289.000000
162989.000000
163688.000000
164395.000000
165113.000000
165840.000000
166565.000000
167277.000000
167985.000000
168694.000000
169411.000000
170139.000000
170875.000000
171604.000000
172318.000000
173020.000000
173711.000000
174397.000000
175085.000000
175778.000000
176478.000000
177186.000000
177892.000000
178598.000000
179305.000000
180015.000000
180730.000000
181456.000000
182191.000000
182928.000000
183650.000000
184351.000000
185043.000000
185728.000000
186412.000000
187103.000000
187803.000000
188515.000000
189223.000000
189927.000000
190629.000000
191334.000000
192046.000000
192769.000000
193505.000000
194249.000000
194981.000000
195699.000000
196409.000000
197114.000000
197823.000000
198542.000000
199270.000000
200002.000000
200730.000000
201450.000000
202171.000000
202900.000000
203642.000000
204389.000000
205139.000000
205873.000000
206593.000000
207312.000000
208031.000000
208761.000000
209501.000000
210239.000000
210968.000000
211698.000000
212440.000000
213192.000000
213947.000000
214690.000000
215422.000000
216152.000000
216889.000000
217632.000000
218377.000000
219113.000000
219832.000000
220536.000000
221238.000000
221944.000000
222663.000000
223386.000000
224111.000000
224831.000000
225561.000000
226292.000000
227005.000000
227695.000000
228367.000000
229030.000000
229691.000000
230357.000000
231030.000000
231697.000000
232358.000000
233025.000000
233699.000000
234372.000000
235014.000000
235649.000000
236282.000000
236916.000000
237552.000000
238196.000000
238854.000000
239540.000000
240240.000000
240937.000000
241622.000000
242299.000000
242967.000000
243634.000000
244311.000000
244998.000000
245682.000000
246356.000000
247022.000000
247685.000000
248350.000000
249030.000000
249723.000000
250417.000000
251104.000000
251784.000000
252470.000000
253161.000000
253858.000000
254554.000000
255240.000000
255919.000000
256597.000000
257278.000000
257963.000000
258647.000000
259318.000000
259977.000000
260628.000000
261281.000000
261942.000000
262607.000000
263269.000000
263930.000000
264603.000000
265287.000000
265977.000000
266664.000000
267347.000000
268035.000000
268731.000000
269430.000000
270117.000000
270795.000000
271466.000000
272141.000000
272818.000000
273503.000000
274185.000000
274858.000000
275526.000000
276188.000000
276853.000000
277529.000000
278223.000000
278931.000000
279633.000000
280328.000000
281023.000000
281725.000000
282436.000000
283148.000000
283844.000000
284533.000000
285227.000000
285921.000000
286622.000000
287328.000000
288018.000000
288704.000000
289385.000000
290072.000000
290773.000000
291485.000000
292193.000000
292892.000000
293601.000000
294313.000000
295044.000000
295784.000000
296520.000000
297249.000000
297978.000000
298720.000000
299472.000000
300239.000000
300987.000000
301739.000000
302500.000000
303258.000000
303996.000000
304722.000000
305443.000000
306164.000000
306897.000000
307657.000000
308446.000000
309244.000000
310017.000000
310763.000000
311497.000000
312220.000000
312932.000000
313655.000000
314393.000000
315160.000000
315949.000000
316729.000000
317494.000000
318237.000000
318970.000000
319703.000000
320440.000000
321179.000000
321915.000000
322643.000000
323362.000000
324080.000000
324823.000000
325589.000000
326373.000000
327153.000000
327911.000000
328662.000000
329409.000000
330161.000000
330916.000000
331679.000000
332436.000000
333184.000000
333923.000000
334660.000000
335409.000000
336167.000000
336939.000000
337716.000000
338474.000000
339215.000000
339946.000000
340683.000000
341442.000000
342223.000000
343026.000000
343813.000000
344591.000000
345385.000000
346175.000000
346958.000000
347723.000000
348469.000000
349209.000000
349957.000000
350721.000000
351505.000000
352294.000000
353070.000000
353828.000000
354573.000000
355326.000000
356095.000000
356875.000000
357651.000000
358420.000000
359189.000000
359962.000000
360743.000000
361519.000000
362272.000000
363007.000000
363729.000000
364452.000000
365188.000000
365945.000000
366720.000000
367485.000000
368234.000000
368981.000000
369724.000000
370462.000000
371186.000000
371891.000000
372585.000000
373279.000000
373978.000000
374685.000000
375395.000000
376103.000000
376808.000000
377514.000000
378190.000000
378842.000000
379488.000000
380140.000000
380790.000000
381446.000000
382108.000000
382792.000000
383493.000000
384201.000000
384900.000000
385589.000000
386273.000000
386963.000000
387655.000000
388346.000000
389026.000000
389700.000000
390374.000000
391057.000000
391751.000000
392448.000000
393134.000000
393820.000000
394516.000000
395225.000000
395945.000000
396658.000000
397368.000000
398090.000000
398821.000000
399554.000000
400272.000000
400983.000000
401697.000000
402420.000000
403154.000000
403890.000000
404624.000000
405361.000000
406102.000000
406843.000000
407576.000000
408293.000000
409004.000000
409724.000000
410460.000000
411214.000000
411970.000000
412739.000000
413544.000000
414368.000000
415193.000000
415980.000000
416739.000000
417496.000000
418258.000000
419025.000000
419791.000000
420546.000000
421127.000000
422037.000000
422832.000000
423633.000000
424409.000000
425170.000000
425946.000000
426732.000000
427524.000000
428296.000000
429053.000000
429807.000000
430579.000000
431370.000000
432150.000000
432926.000000
433701.000000
434477.000000
435254.000000
436017.000000
436702.000000
437523.000000
438297.000000
439076.000000
439842.000000
440613.000000
441411.000000
442217.000000
443010.000000
443775.000000
444525.000000
445279.000000
446044.000000
446823.000000
447598.000000
448375.000000
449181.000000
449991.000000
450796.000000
451590.000000
452383.000000
453183.000000
453993.000000
454788.000000
455562.000000
456334.000000
457115.000000
457906.000000
458686.000000
459461.000000
460246.000000
461026.000000
461816.000000
462582.000000
463342.000000
464126.000000
464937.000000
465765.000000
466582.000000
467387.000000
468031.000000
469023.000000
469848.000000
470633.000000
471379.000000
472105.000000
472821.000000
473555.000000
474330.000000
475149.000000
475988.000000
476662.000000
477871.000000
478979.000000
479972.000000
480834.000000
481654.000000
482454.000000
483226.000000
483977.000000
484731.000000
485500.000000
486286.000000
487093.000000
487898.000000
488682.000000
489482.000000
490300.000000
491123.000000
491920.000000
492696.000000
493473.000000
494254.000000
495037.000000
495806.000000
496561.000000
497303.000000
498058.000000
498830.000000
499626.000000
500413.000000
501179.000000
501960.000000
502748.000000
503550.000000
504348.000000
505136.000000
505934.000000
506727.000000
507498.000000
508250.000000
509007.000000
509775.000000
510580.000000
511365.000000
512138.000000
512912.000000
513701.000000
514480.000000
515258.000000
516023.000000
516795.000000
517582.000000
518374.000000
519169.000000
519946.000000
520712.000000
521488.000000
522272.000000
523064.000000
523854.000000
524658.000000
525500.000000
526364.000000
527212.000000
528031.000000
528845.000000
529675.000000
530520.000000
531348.000000
532151.000000
532931.000000
533726.000000
534549.000000
535424.000000
536306.000000
537203.000000
538131.000000
539045.000000
539918.000000
540746.000000
541582.000000
542402.000000
543228.000000
544041.000000
544859.000000
545710.000000
546576.000000
547440.000000
548268.000000
549101.000000
549945.000000
550793.000000
551620.000000
552431.000000
553202.000000
553960.000000
554723.000000
555533.000000
556381.000000
557243.000000
558165.000000
559144.000000
560121.000000
561026.000000
561875.000000
562725.000000
563580.000000
564432.000000
565267.000000
566089.000000
566895.000000
567703.000000
568508.000000
569318.000000
570152.000000
571029.000000
571917.000000
572764.000000
573574.000000
574368.000000
575182.000000
576007.000000
576839.000000
577663.000000
578516.000000
579393.000000
580290.000000
581147.000000
581980.000000
582813.000000
583637.000000
584455.000000
585251.000000
586072.000000
586903.000000
587734.000000
588533.000000
589310.000000
590107.000000
590936.000000
591769.000000
592583.000000
593380.000000
594198.000000
595032.000000
595869.000000
596700.000000
597514.000000
598352.000000
599205.000000
600057.000000
600889.000000
601685.000000
602484.000000
603274.000000
604048.000000
604781.000000
605498.000000
606225.000000
606991.000000
607828.000000
608714.000000
609573.000000
610410.000000
611259.000000
612104.000000
612932.000000
613725.000000
614496.000000
615267.000000
616056.000000
616865.000000
617695.000000
618532.000000
619373.000000
620254.000000
621144.000000
622005.000000
