ECG (ms)
882.000000
1869.000000
2782.000000
3765.000000
4739.000000
5691.000000
6718.000000
7746.000000
8727.000000
9769.000000
10795.000000
11730.000000
12707.000000
13736.000000
14741.000000
15722.000000
16771.000000
17801.000000
18734.000000
19623.000000
20582.000000
21713.000000
22755.000000
23754.000000
24825.000000
25819.000000
26667.000000
27719.000000
28757.000000
29603.000000
30540.000000
31646.000000
32612.000000
33532.000000
34579.000000
35517.000000
36338.000000
37240.000000
38261.000000
39136.000000
40043.000000
41069.000000
42020.000000
42871.000000
43753.000000
44687.000000
45525.000000
46542.000000
47673.000000
48665.000000
49628.000000
50632.000000
51460.000000
52357.000000
53413.000000
54358.000000
55342.000000
56405.000000
57315.000000
58217.000000
59156.000000
59971.000000
60763.000000
61654.000000
62687.000000
63631.000000
64676.000000
65626.000000
66485.000000
67392.000000
68263.000000
69078.000000
70013.000000
71000.000000
71865.000000
72912.000000
73926.000000
74756.000000
75628.000000
76558.000000
77371.000000
78264.000000
79268.000000
80141.000000
80995.000000
81997.000000
83043.000000
83888.000000
84771.000000
85677.000000
86477.000000
87413.000000
88472.000000
89394.000000
90260.000000
91224.000000
92150.000000
93032.000000
94121.000000
95103.000000
96059.000000
97008.000000
97853.000000
98635.000000
99609.000000
100649.000000
101561.000000
102557.000000
103614.000000
104488.000000
105402.000000
106380.000000
107225.000000
108149.000000
109148.000000
109990.000000
110937.000000
111938.000000
112764.000000
113678.000000
114716.000000
115608.000000
116549.000000
117585.000000
118479.000000
119365.000000
120436.000000
121377.000000
122261.000000
123230.000000
124119.000000
124938.000000
125881.000000
126861.000000
127706.000000
128651.000000
129659.000000
130490.000000
131373.000000
132304.000000
133105.000000
133981.000000
134986.000000
135851.000000
136950.000000
137995.000000
138857.000000
139777.000000
140806.000000
141757.000000
142861.000000
143890.000000
144794.000000
145971.000000
147065.000000
148097.000000
149169.000000
150230.000000
151130.000000
152010.000000
153121.000000
154110.000000
155024.000000
156102.000000
157088.000000
157929.000000
158859.000000
159837.000000
160662.000000
161578.000000
162613.000000
163483.000000
164268.000000
165230.000000
166287.000000
167181.000000
168128.000000
169227.000000
170119.000000
171011.000000
171994.000000
172864.000000
173799.000000
174936.000000
175977.000000
176957.000000
178001.000000
178896.000000
179767.000000
180799.000000
181756.000000
182636.000000
183756.000000
184804.000000
185674.000000
186663.000000
187686.000000
188545.000000
189508.000000
190620.000000
191563.000000
192483.000000
193540.000000
194533.000000
195439.000000
196448.000000
197396.000000
198242.000000
199145.000000
200114.000000
200978.000000
202108.000000
203119.000000
204122.000000
205141.000000
206122.000000
206993.000000
207886.000000
208941.000000
209901.000000
210876.000000
211929.000000
212944.000000
213895.000000
214942.000000
215920.000000
216780.000000
217713.000000
218708.000000
219589.000000
220670.000000
221700.000000
222605.000000
223651.000000
224635.000000
225468.000000
226387.000000
227354.000000
228201.000000
229287.000000
230313.000000
231154.000000
232029.000000
232922.000000
233736.000000
234782.000000
235894.000000
236898.000000
237943.000000
238968.000000
239893.000000
240898.000000
241859.000000
242711.000000
243698.000000
244684.000000
245530.000000
246471.000000
247505.000000
248365.000000
249287.000000
250281.000000
251111.000000
251945.000000
252875.000000
253800.000000
254723.000000
255830.000000
256825.000000
257808.000000
258747.000000
259563.000000
260472.000000
261517.000000
262407.000000
263470.000000
264488.000000
265315.000000
266207.000000
267182.000000
268026.000000
269090.000000
270169.000000
271078.000000
272177.000000
273257.000000
274131.000000
275077.000000
276134.000000
276988.000000
277840.000000
278861.000000
279926.000000
280893.000000
282001.000000
283075.000000
284070.000000
285160.000000
286042.000000
286898.000000
288051.000000
289103.000000
290138.000000
291194.000000
292234.000000
293212.000000
294251.000000
295286.000000
296246.000000
297254.000000
298289.000000
299228.000000
300249.000000
301275.000000
302219.000000
303201.000000
304253.000000
305270.000000
306241.000000
307261.000000
308238.000000
309048.000000
309844.000000
310687.000000
311484.000000
312341.000000
313504.000000
314518.000000
315570.000000
316645.000000
317641.000000
318720.000000
319726.000000
320588.000000
321444.000000
322339.000000
323164.000000
324273.000000
325322.000000
326316.000000
327376.000000
328374.000000
329234.000000
330207.000000
331189.000000
332032.000000
332940.000000
333851.000000
334665.000000
335557.000000
336528.000000
337372.000000
338257.000000
339154.000000
339952.000000
340788.000000
341615.000000
342393.000000
343268.000000
344165.000000
344992.000000
345899.000000
346953.000000
347793.000000
348631.000000
349505.000000
350316.000000
351102.000000
352011.000000
353006.000000
353956.000000
354995.000000
355931.000000
356815.000000
357839.000000
358741.000000
359566.000000
360447.000000
361320.000000
362121.000000
363269.000000
364321.000000
365294.000000
366298.000000
367245.000000
368067.000000
368939.000000
369871.000000
370677.000000
371597.000000
372670.000000
373557.000000
374513.000000
375521.000000
376363.000000
377347.000000
378395.000000
379256.000000
380103.000000
381044.000000
381974.000000
382814.000000
383834.000000
384861.000000
385727.000000
386656.000000
387677.000000
388538.000000
389417.000000
390315.000000
391159.000000
391980.000000
393124.000000
394072.000000
394914.000000
395746.000000
396527.000000
397264.000000
397968.000000
398674.000000
399890.000000
401002.000000
402137.000000
403267.000000
404399.000000
405485.000000
406533.000000
407537.000000
408544.000000
409629.000000
410762.000000
411860.000000
412921.000000
413926.000000
414781.000000
415698.000000
416785.000000
417760.000000
418708.000000
419700.000000
420576.000000
421373.000000
422243.000000
423129.000000
423940.000000
424991.000000
426063.000000
426937.000000
427856.000000
428854.000000
429712.000000
430574.000000
431538.000000
432503.000000
433425.000000
434439.000000
435451.000000
436378.000000
437443.000000
438446.000000
439356.000000
440339.000000
441278.000000
442123.000000
443137.000000
444219.000000
445252.000000
446313.000000
447315.000000
448247.000000
449240.000000
450247.000000
451153.000000
452142.000000
453134.000000
454055.000000
455016.000000
455986.000000
456931.000000
457882.000000
458914.000000
459924.000000
460959.000000
462020.000000
463034.000000
464022.000000
465039.000000
466045.000000
466949.000000
467837.000000
468796.000000
469699.000000
470568.000000
471545.000000
472586.000000
473467.000000
474348.000000
475239.000000
476029.000000
476833.000000
477738.000000
478657.000000
479484.000000
480511.000000
481510.000000
482356.000000
483266.000000
484187.000000
484993.000000
485868.000000
486829.000000
487664.000000
488437.000000
489174.000000
489906.000000
490605.000000
491279.000000
491942.000000
492619.000000
493498.000000
494361.000000
495221.000000
496298.000000
497325.000000
498250.000000
499195.000000
500171.000000
501030.000000
501953.000000
503069.000000
504117.000000
505134.000000
506129.000000
506983.000000
507882.000000
509036.000000
510003.000000
511060.000000
512134.000000
513134.000000
514211.000000
515210.000000
516229.000000
517287.000000
518251.000000
519250.000000
520281.000000
521218.000000
522239.000000
523288.000000
524241.000000
525266.000000
526299.000000
527244.000000
528247.000000
529231.000000
530149.000000
531129.000000
532143.000000
533084.000000
534086.000000
535118.000000
536112.000000
537074.000000
538079.000000
539074.000000
539986.000000
540949.000000
541912.000000
542829.000000
543781.000000
544806.000000
545817.000000
546777.000000
547800.000000
548780.000000
549734.000000
550744.000000
551719.000000
552641.000000
553619.000000
554598.000000
555528.000000
556549.000000
557638.000000
558630.000000
559664.000000
560695.000000
561630.000000
562599.000000
563617.000000
564610.000000
565595.000000
566641.000000
567676.000000
568694.000000
569741.000000
570744.000000
571723.000000
572743.000000
573725.000000
574658.000000
575665.000000
576632.000000
577550.000000
578538.000000
579528.000000
580481.000000
581484.000000
582469.000000
583404.000000
584364.000000
585242.000000
586022.000000
586860.000000
587978.000000
588930.000000
589944.000000
590957.000000
591899.000000
592900.000000
593912.000000
594827.000000
595817.000000
596819.000000
597741.000000
598718.000000
599752.000000
600731.000000
601705.000000
602713.000000
603676.000000
604586.000000
605588.000000
606627.000000
607598.000000
608662.000000
609736.000000
610715.000000
611757.000000
612759.000000
613693.000000
614712.000000
615761.000000
616715.000000
617740.000000
618797.000000
619775.000000
620814.000000
621860.000000
622911.000000
624007.000000
625017.000000
626059.000000
627131.000000
628156.000000
629248.000000
630373.000000
631392.000000
632457.000000
633525.000000
634490.000000
635499.000000
636547.000000
637589.000000
638626.000000
639713.000000
640765.000000
641792.000000
642859.000000
643953.000000
644974.000000
646024.000000
647086.000000
648020.000000
648831.000000
649743.000000
650767.000000
651683.000000
652836.000000
653874.000000
654917.000000
656026.000000
657002.000000
657858.000000
658772.000000
659690.000000
660504.000000
661462.000000
662586.000000
663559.000000
664597.000000
665685.000000
666580.000000
667516.000000
668523.000000
669409.000000
670362.000000
671492.000000
672483.000000
673461.000000
674562.000000
675486.000000
676411.000000
677471.000000
678443.000000
679458.000000
680585.000000
681565.000000
682606.000000
683689.000000
684649.000000
685589.000000
686654.000000
687657.000000
688595.000000
689681.000000
690702.000000
691567.000000
692481.000000
693574.000000
694530.000000
695583.000000
696638.000000
697543.000000
698412.000000
699500.000000
700547.000000
701460.000000
702584.000000
703609.000000
704466.000000
705416.000000
706421.000000
707276.000000
708202.000000
709262.000000
710138.000000
711066.000000
712184.000000
713168.000000
714217.000000
715251.000000
716232.000000
717263.000000
718295.000000
719284.000000
720310.000000
721371.000000
722272.000000
723246.000000
724392.000000
725398.000000
726415.000000
727458.000000
728469.000000
729423.000000
730405.000000
731410.000000
732354.000000
733347.000000
734388.000000
735385.000000
736407.000000
737441.000000
738482.000000
739418.000000
740293.000000
741237.000000
742066.000000
742888.000000
744027.000000
745053.000000
746076.000000
747168.000000
748183.000000
749210.000000
750269.000000
751240.000000
752078.000000
752981.000000
753943.000000
754780.000000
755678.000000
756744.000000
757677.000000
758550.000000
759521.000000
760538.000000
761407.000000
762313.000000
763415.000000
764376.000000
765345.000000
766418.000000
767347.000000
768256.000000
769397.000000
770381.000000
771304.000000
772372.000000
773334.000000
774242.000000
775298.000000
776399.000000
777271.000000
778199.000000
779251.000000
780186.000000
781331.000000
782408.000000
783450.000000
784529.000000
785552.000000
786578.000000
787630.000000
788625.000000
789494.000000
790553.000000
791674.000000
792655.000000
793735.000000
794843.000000
795755.000000
796693.000000
797697.000000
798659.000000
799603.000000
800740.000000
801800.000000
802671.000000
803654.000000
804744.000000
805685.000000
806802.000000
807927.000000
808952.000000
809960.000000
811112.000000
812070.000000
812923.000000
814064.000000
815155.000000
816022.000000
817083.000000
818235.000000
819246.000000
820397.000000
821522.000000
822579.000000
823605.000000
824778.000000
825783.000000
826758.000000
827913.000000
828962.000000
830025.000000
831139.000000
832230.000000
833243.000000
834364.000000
835470.000000
836515.000000
837564.000000
838642.000000
839682.000000
840691.000000
841780.000000
842836.000000
843841.000000
844884.000000
845894.000000
846818.000000
847741.000000
848859.000000
849868.000000
850934.000000
852038.000000
853090.000000
854151.000000
855225.000000
856253.000000
857206.000000
858215.000000
859253.000000
860128.000000
861130.000000
862194.000000
863065.000000
864084.000000
865184.000000
866107.000000
867190.000000
868278.000000
869220.000000
870075.000000
871021.000000
872148.000000
873207.000000
874175.000000
875208.000000
876163.000000
877025.000000
878073.000000
879122.000000
880015.000000
881078.000000
882104.000000
883003.000000
884099.000000
885047.000000
885928.000000
886750.000000
887504.000000
888252.000000
889008.000000
889720.000000
890392.000000
891043.000000
891822.000000
893008.000000
894097.000000
895192.000000
896283.000000
897363.000000
898427.000000
899457.000000
900317.000000
901191.000000
902153.000000
903161.000000
904263.000000
905331.000000
906341.000000
907228.000000
908065.000000
908933.000000
909826.000000
910641.000000
911474.000000
912353.000000
913176.000000
913974.000000
914839.000000
915714.000000
916508.000000
917329.000000
918150.000000
918933.000000
919698.000000
920540.000000
921352.000000
922272.000000
923411.000000
924429.000000
925434.000000
926423.000000
927270.000000
928073.000000
928919.000000
929843.000000
930666.000000
931802.000000
932903.000000
933942.000000
934999.000000
935979.000000
936971.000000
937963.000000
938886.000000
939838.000000
940818.000000
941752.000000
942693.000000
943666.000000
944616.000000
945499.000000
946327.000000
947202.000000
948038.000000
949157.000000
950292.000000
951296.000000
952382.000000
953452.000000
954370.000000
955400.000000
956510.000000
957480.000000
958470.000000
959505.000000
960471.000000
961440.000000
962530.000000
963641.000000
964581.000000
965486.000000
966483.000000
967631.000000
968574.000000
969615.000000
970691.000000
971618.000000
972583.000000
973640.000000
974492.000000
975426.000000
976546.000000
977497.000000
978578.000000
979619.000000
980548.000000
981593.000000
982615.000000
983470.000000
984492.000000
985593.000000
986544.000000
987601.000000
988699.000000
989695.000000
990779.000000
991871.000000
992907.000000
993969.000000
995036.000000
996042.000000
997062.000000
998134.000000
999159.000000
1000148.000000
1001171.000000
1002187.000000
1003141.000000
1004189.000000
1005228.000000
1006169.000000
1007169.000000
1008144.000000
1009026.000000
1009960.000000
1011053.000000
1011977.000000
1013040.000000
1014117.000000
1015017.000000
1015987.000000
1017074.000000
1017993.000000
1018948.000000
1020021.000000
1020971.000000
1021933.000000
1023047.000000
1024088.000000
1025127.000000
1026190.000000
1027240.000000
1028263.000000
1029310.000000
1030365.000000
1031370.000000
1032326.000000
1033364.000000
1034415.000000
1035393.000000
1036432.000000
1037491.000000
1038485.000000
1039514.000000
1040544.000000
1041475.000000
1042434.000000
1043375.000000
1044401.000000
1045425.000000
1046630.000000
1047671.000000
1048742.000000
1049829.000000
1050848.000000
1051914.000000
1053009.000000
1054029.000000
1055063.000000
1056135.000000
1057189.000000
1058192.000000
1059302.000000
1060385.000000
1061399.000000
1062524.000000
1063645.000000
1064638.000000
1065679.000000
1066712.000000
1067652.000000
1068713.000000
1069766.000000
1070753.000000
1071876.000000
1072968.000000
1074004.000000
1075109.000000
1076184.000000
1077206.000000
1078248.000000
1079306.000000
1080210.000000
1081249.000000
1082395.000000
1083498.000000
1084495.000000
1085599.000000
1086723.000000
1087704.000000
1088728.000000
1089851.000000
1090861.000000
1091912.000000
1092981.000000
1094033.000000
1095051.000000
1096196.000000
1097331.000000
1098404.000000
1099434.000000
1100533.000000
1101547.000000
1102396.000000
1103391.000000
1104516.000000
1105464.000000
1106659.000000
1107744.000000
1108797.000000
1109897.000000
1110965.000000
1111989.000000
1112981.000000
1113919.000000
1115056.000000
1116111.000000
1117207.000000
1118320.000000
1119355.000000
1120418.000000
1121493.000000
1122521.000000
1123503.000000
1124569.000000
1125586.000000
1126546.000000
1127575.000000
1128619.000000
1129602.000000
1130637.000000
1131690.000000
1132703.000000
1133655.000000
1134548.000000
1135716.000000
1136774.000000
1137765.000000
1138805.000000
1139823.000000
1140802.000000
1141859.000000
1142937.000000
1143937.000000
1145012.000000
1146109.000000
1147121.000000
1148036.000000
1148968.000000
1149870.000000
1150722.000000
1151933.000000
1153010.000000
1154066.000000
1155203.000000
1156318.000000
1157345.000000
1158426.000000
1159499.000000
1160518.000000
1161572.000000
1162621.000000
1163621.000000
1164655.000000
1165722.000000
1166721.000000
1167738.000000
1168793.000000
1169793.000000
1170828.000000
1171894.000000
1172921.000000
1173964.000000
1175040.000000
1176096.000000
1177096.000000
1178183.000000
1179285.000000
1180396.000000
1181458.000000
1182564.000000
1183641.000000
1184609.000000
1185518.000000
1186629.000000
1187576.000000
1188628.000000
1189741.000000
1190680.000000
1191663.000000
1192789.000000
1193855.000000
1194865.000000
1195982.000000
1197115.000000
1198157.000000
1199234.000000
1200324.000000
1201356.000000
1202411.000000
1203476.000000
1204507.000000
1205576.000000
1206697.000000
1207717.000000
