ECG (ms)
557.000000
1278.000000
2001.000000
2717.000000
3414.000000
4150.000000
4893.000000
5646.000000
6358.000000
7057.000000
7773.000000
8536.000000
9306.000000
10039.000000
10757.000000
11493.000000
12287.000000
13101.000000
13853.000000
14613.000000
15398.000000
16187.000000
16924.000000
17670.000000
18444.000000
19223.000000
20023.000000
20789.000000
21559.000000
22347.000000
23191.000000
24068.000000
24890.000000
25655.000000
26419.000000
27195.000000
27996.000000
28747.000000
29440.000000
30136.000000
30900.000000
31654.000000
32385.000000
33184.000000
34024.000000
34869.000000
35713.000000
36483.000000
37226.000000
37952.000000
38718.000000
39537.000000
40393.000000
41196.000000
41992.000000
42842.000000
43706.000000
44583.000000
45394.000000
46166.000000
46944.000000
47776.000000
48621.000000
49431.000000
50207.000000
50992.000000
51830.000000
52681.000000
53499.000000
54276.000000
55051.000000
55845.000000
56612.000000
57331.000000
58013.000000
58697.000000
59402.000000
60125.000000
60875.000000
61688.000000
62549.000000
63375.000000
64135.000000
64851.000000
65561.000000
66458.000000
67329.000000
68193.000000
69047.000000
69880.000000
70686.000000
71515.000000
72378.000000
73237.000000
74055.000000
74867.000000
75702.000000
76524.000000
77292.000000
78013.000000
78779.000000
79548.000000
80321.000000
81144.000000
82027.000000
82839.000000
83626.000000
84406.000000
85212.000000
86046.000000
86884.000000
87733.000000
88579.000000
89386.000000
90195.000000
91041.000000
91897.000000
92720.000000
93522.000000
94352.000000
95198.000000
96041.000000
96858.000000
97649.000000
98479.000000
99391.000000
100281.000000
101154.000000
102051.000000
102905.000000
103747.000000
104544.000000
105342.000000
106175.000000
107042.000000
107870.000000
108688.000000
109489.000000
110308.000000
111117.000000
111977.000000
112842.000000
113652.000000
114489.000000
115328.000000
116140.000000
116915.000000
117652.000000
118457.000000
119329.000000
120225.000000
121136.000000
122029.000000
122860.000000
123677.000000
124497.000000
125256.000000
125973.000000
126736.000000
127494.000000
128276.000000
129147.000000
129963.000000
130827.000000
131591.000000
132344.000000
133109.000000
133873.000000
134692.000000
135516.000000
136294.000000
137108.000000
138000.000000
138836.000000
139641.000000
140403.000000
141129.000000
141882.000000
142686.000000
143446.000000
144174.000000
144866.000000
145570.000000
146294.000000
147035.000000
147817.000000
148642.000000
149487.000000
150330.000000
151162.000000
151940.000000
152690.000000
153452.000000
154218.000000
154998.000000
155780.000000
156543.000000
157308.000000
158065.000000
158828.000000
159565.000000
160290.000000
160977.000000
161682.000000
162435.000000
163159.000000
163877.000000
164622.000000
165428.000000
166240.000000
167033.000000
167853.000000
168609.000000
169343.000000
170068.000000
170865.000000
171717.000000
172581.000000
173424.000000
174224.000000
175025.000000
175830.000000
176626.000000
177414.000000
178166.000000
178915.000000
179671.000000
180414.000000
181132.000000
181839.000000
182550.000000
183248.000000
183921.000000
184620.000000
185318.000000
186035.000000
186766.000000
187519.000000
188254.000000
188962.000000
189653.000000
190344.000000
191046.000000
191778.000000
192557.000000
193320.000000
194058.000000
194818.000000
195624.000000
196439.000000
197226.000000
197998.000000
198780.000000
199524.000000
200258.000000
201019.000000
201795.000000
202586.000000
203388.000000
204131.000000
204850.000000
205585.000000
206378.000000
207199.000000
208023.000000
208825.000000
209616.000000
210368.000000
211090.000000
211789.000000
212463.000000
213168.000000
213919.000000
214675.000000
215464.000000
216225.000000
216960.000000
217671.000000
218427.000000
219243.000000
220050.000000
220853.000000
221660.000000
222425.000000
223200.000000
223988.000000
224803.000000
225575.000000
226309.000000
227060.000000
227848.000000
228716.000000
229549.000000
230342.000000
231095.000000
231813.000000
232503.000000
233200.000000
233923.000000
234621.000000
235330.000000
236086.000000
236841.000000
237629.000000
238376.000000
239138.000000
239920.000000
240697.000000
241424.000000
242176.000000
242933.000000
243697.000000
244435.000000
245155.000000
245882.000000
246641.000000
247424.000000
248239.000000
249013.000000
249769.000000
250535.000000
251253.000000
251945.000000
252619.000000
253312.000000
254026.000000
254778.000000
255570.000000
256370.000000
257154.000000
257898.000000
258624.000000
259334.000000
260065.000000
260846.000000
261693.000000
262561.000000
263391.000000
264196.000000
265001.000000
265870.000000
266757.000000
267667.000000
268530.000000
269326.000000
270088.000000
270853.000000
271622.000000
272389.000000
273168.000000
273941.000000
274700.000000
275414.000000
276128.000000
276890.000000
277649.000000
278374.000000
279112.000000
279852.000000
280587.000000
281329.000000
282054.000000
282835.000000
283635.000000
284460.000000
285254.000000
286016.000000
286783.000000
287526.000000
288258.000000
288956.000000
289631.000000
290329.000000
291042.000000
291758.000000
292535.000000
293335.000000
294092.000000
294876.000000
295643.000000
296378.000000
297130.000000
297875.000000
298600.000000
299314.000000
300067.000000
300839.000000
301631.000000
302383.000000
303165.000000
303957.000000
304716.000000
305461.000000
306197.000000
306927.000000
307643.000000
308345.000000
309050.000000
309753.000000
310428.000000
311073.000000
311750.000000
312460.000000
313207.000000
313964.000000
314688.000000
315397.000000
316081.000000
316776.000000
317481.000000
318223.000000
318983.000000
319720.000000
320462.000000
321228.000000
322012.000000
322808.000000
323603.000000
324351.000000
325096.000000
325846.000000
326589.000000
327373.000000
328131.000000
328903.000000
329681.000000
330441.000000
331168.000000
331898.000000
332646.000000
333411.000000
334151.000000
334866.000000
335565.000000
336245.000000
336920.000000
337613.000000
338315.000000
339025.000000
339856.000000
340699.000000
341527.000000
342292.000000
343028.000000
343778.000000
344556.000000
345337.000000
346136.000000
346936.000000
347779.000000
348572.000000
349319.000000
350032.000000
350740.000000
351453.000000
352171.000000
352954.000000
353742.000000
354528.000000
355294.000000
356069.000000
356875.000000
357674.000000
358471.000000
359225.000000
359956.000000
360697.000000
361422.000000
362150.000000
362875.000000
363578.000000
364278.000000
365021.000000
365756.000000
366524.000000
367313.000000
368104.000000
368875.000000
369614.000000
370359.000000
371112.000000
371842.000000
372592.000000
373338.000000
374086.000000
374820.000000
375606.000000
376401.000000
377177.000000
377955.000000
378748.000000
379579.000000
380382.000000
381129.000000
381836.000000
382537.000000
383236.000000
383955.000000
384724.000000
385510.000000
386248.000000
386989.000000
387771.000000
388622.000000
389494.000000
390290.000000
391086.000000
391890.000000
392686.000000
393439.000000
394186.000000
394960.000000
395810.000000
396708.000000
397567.000000
398386.000000
399226.000000
400089.000000
400911.000000
401709.000000
402471.000000
403250.000000
404016.000000
404755.000000
405487.000000
406218.000000
407058.000000
407992.000000
408813.000000
409570.000000
410312.000000
411053.000000
411780.000000
412510.000000
413276.000000
414096.000000
414912.000000
415742.000000
416550.000000
417334.000000
418119.000000
418895.000000
419641.000000
420388.000000
421152.000000
421929.000000
422710.000000
423494.000000
424246.000000
425014.000000
425790.000000
426568.000000
427327.000000
428088.000000
428813.000000
429508.000000
430181.000000
430868.000000
431556.000000
432256.000000
432986.000000
433732.000000
434499.000000
435234.000000
435969.000000
436699.000000
437420.000000
438123.000000
438841.000000
439583.000000
440365.000000
441108.000000
441833.000000
442537.000000
443218.000000
443917.000000
444621.000000
445334.000000
446104.000000
446900.000000
447643.000000
448377.000000
449131.000000
449936.000000
450732.000000
451529.000000
452278.000000
452995.000000
453704.000000
454432.000000
455218.000000
456024.000000
456855.000000
457625.000000
458364.000000
459101.000000
459894.000000
460675.000000
461450.000000
462206.000000
462930.000000
463636.000000
464312.000000
464986.000000
465651.000000
466303.000000
466984.000000
467719.000000
468482.000000
469233.000000
469995.000000
470746.000000
471478.000000
472222.000000
472969.000000
473748.000000
474513.000000
475322.000000
476157.000000
477000.000000
477802.000000
478568.000000
479368.000000
480146.000000
480932.000000
481665.000000
482401.000000
483148.000000
484061.000000
484927.000000
485717.000000
486517.000000
487321.000000
488101.000000
488852.000000
489603.000000
490351.000000
491056.000000
491758.000000
492461.000000
493359.000000
494299.000000
495144.000000
495912.000000
496666.000000
497460.000000
498278.000000
499116.000000
499893.000000
500664.000000
501506.000000
502311.000000
503192.000000
504075.000000
504858.000000
505643.000000
506437.000000
507232.000000
507997.000000
508731.000000
509431.000000
510141.000000
510856.000000
511607.000000
512387.000000
513182.000000
513966.000000
514719.000000
515489.000000
516268.000000
517040.000000
517794.000000
518535.000000
519273.000000
520034.000000
520791.000000
521533.000000
522241.000000
522952.000000
523662.000000
524374.000000
525083.000000
525824.000000
526585.000000
527361.000000
528152.000000
528949.000000
529714.000000
530447.000000
531177.000000
531933.000000
532718.000000
533489.000000
534239.000000
534959.000000
535657.000000
536342.000000
537013.000000
537670.000000
538309.000000
538991.000000
539749.000000
540478.000000
541172.000000
541888.000000
542704.000000
543511.000000
544253.000000
545000.000000
545709.000000
546493.000000
547312.000000
548080.000000
548907.000000
549848.000000
550733.000000
551577.000000
552365.000000
553151.000000
553964.000000
554770.000000
555581.000000
556373.000000
557145.000000
557914.000000
558711.000000
559538.000000
560342.000000
561121.000000
561865.000000
562579.000000
563295.000000
564036.000000
564857.000000
565724.000000
566555.000000
567367.000000
568143.000000
568926.000000
569709.000000
570503.000000
571305.000000
572071.000000
572874.000000
573649.000000
574384.000000
575103.000000
575837.000000
576561.000000
577301.000000
578065.000000
578894.000000
579697.000000
580452.000000
581177.000000
581913.000000
582650.000000
583384.000000
584101.000000
584797.000000
585537.000000
586351.000000
587157.000000
587915.000000
588686.000000
589457.000000
590235.000000
590999.000000
591720.000000
592458.000000
593189.000000
593934.000000
594693.000000
595512.000000
596348.000000
597189.000000
597999.000000
598797.000000
599566.000000
600289.000000
601021.000000
601757.000000
602540.000000
603330.000000
604107.000000
604873.000000
605615.000000
606348.000000
607095.000000
607853.000000
608584.000000
609286.000000
610023.000000
610809.000000
611585.000000
612366.000000
613173.000000
613997.000000
614834.000000
615626.000000
616425.000000
617229.000000
617989.000000
618752.000000
619602.000000
620443.000000
621213.000000
621950.000000
622672.000000
623472.000000
624294.000000
625064.000000
625798.000000
626507.000000
627235.000000
627977.000000
628712.000000
629467.000000
630305.000000
631188.000000
632065.000000
632871.000000
633650.000000
634415.000000
635176.000000
635945.000000
636700.000000
637418.000000
638116.000000
638801.000000
639495.000000
640184.000000
640846.000000
641492.000000
642163.000000
642905.000000
643648.000000
644349.000000
645061.000000
645796.000000
646505.000000
647216.000000
647903.000000
648577.000000
649263.000000
649971.000000
650693.000000
651437.000000
652231.000000
653061.000000
653831.000000
654580.000000
655347.000000
656111.000000
656870.000000
657658.000000
658418.000000
659163.000000
659920.000000
660807.000000
661697.000000
662532.000000
663339.000000
664134.000000
664912.000000
665690.000000
666490.000000
667300.000000
668059.000000
668844.000000
669595.000000
670337.000000
671055.000000
671747.000000
672426.000000
673110.000000
673800.000000
674509.000000
675254.000000
676037.000000
676793.000000
677527.000000
678257.000000
679053.000000
679839.000000
680613.000000
681399.000000
682151.000000
682884.000000
683604.000000
684299.000000
684978.000000
685647.000000
686318.000000
687006.000000
687728.000000
688502.000000
689295.000000
690077.000000
690830.000000
691572.000000
692319.000000
693110.000000
693893.000000
694676.000000
695451.000000
696218.000000
696949.000000
697666.000000
698393.000000
699133.000000
699890.000000
700664.000000
701438.000000
702193.000000
702949.000000
703709.000000
704497.000000
705270.000000
706039.000000
706794.000000
707530.000000
708273.000000
709018.000000
709759.000000
710496.000000
711232.000000
711941.000000
712628.000000
713328.000000
714037.000000
714754.000000
715500.000000
716272.000000
717052.000000
717819.000000
718585.000000
719308.000000
720018.000000
720735.000000
721450.000000
722198.000000
722997.000000
723767.000000
724536.000000
725298.000000
726080.000000
726812.000000
727531.000000
728235.000000
728945.000000
729711.000000
730522.000000
731326.000000
732112.000000
732862.000000
733584.000000
734283.000000
734981.000000
735667.000000
736327.000000
736969.000000
737593.000000
738232.000000
738871.000000
739514.000000
740189.000000
740874.000000
741552.000000
742248.000000
742950.000000
743627.000000
744312.000000
745027.000000
745745.000000
746443.000000
747120.000000
747793.000000
748486.000000
749192.000000
749913.000000
750622.000000
751344.000000
752058.000000
752773.000000
753484.000000
754206.000000
754935.000000
755635.000000
756334.000000
757055.000000
757811.000000
758561.000000
759286.000000
760020.000000
760777.000000
761520.000000
762233.000000
762931.000000
763631.000000
764490.000000
765356.000000
766191.000000
767005.000000
767765.000000
768518.000000
769242.000000
769933.000000
770607.000000
771266.000000
771935.000000
772640.000000
773369.000000
774110.000000
774880.000000
775657.000000
776442.000000
777200.000000
777926.000000
778646.000000
779345.000000
780026.000000
780690.000000
781364.000000
782057.000000
782779.000000
783511.000000
784283.000000
785032.000000
785868.000000
786673.000000
787472.000000
788270.000000
789026.000000
789786.000000
790521.000000
791249.000000
791991.000000
792756.000000
793550.000000
794323.000000
795123.000000
795941.000000
796727.000000
797462.000000
798209.000000
798968.000000
799715.000000
800428.000000
801141.000000
801863.000000
802611.000000
803347.000000
804072.000000
804796.000000
805517.000000
806247.000000
806949.000000
807634.000000
808331.000000
809026.000000
809735.000000
810451.000000
811170.000000
811878.000000
812584.000000
813317.000000
814064.000000
814808.000000
815519.000000
816211.000000
816894.000000
817616.000000
818399.000000
819163.000000
819938.000000
820697.000000
821419.000000
822146.000000
822884.000000
823615.000000
824342.000000
825064.000000
825776.000000
826467.000000
827152.000000
827844.000000
828557.000000
829287.000000
830045.000000
830809.000000
831594.000000
832348.000000
833087.000000
833800.000000
834521.000000
835260.000000
836014.000000
836752.000000
837470.000000
838184.000000
838901.000000
839630.000000
840365.000000
841062.000000
841735.000000
842394.000000
843053.000000
843735.000000
844402.000000
845064.000000
845736.000000
846416.000000
847112.000000
847806.000000
848483.000000
849149.000000
849840.000000
850566.000000
851316.000000
852031.000000
852765.000000
853499.000000
854238.000000
854987.000000
855731.000000
856435.000000
857128.000000
857838.000000
858545.000000
859251.000000
859944.000000
860668.000000
861413.000000
862140.000000
862846.000000
863534.000000
864227.000000
864921.000000
865610.000000
866310.000000
867007.000000
867708.000000
868399.000000
869090.000000
869798.000000
870518.000000
871232.000000
871942.000000
872661.000000
873394.000000
874145.000000
874873.000000
875579.000000
876292.000000
877005.000000
877704.000000
878384.000000
879049.000000
879727.000000
880412.000000
881120.000000
881859.000000
882645.000000
883450.000000
884242.000000
885016.000000
885770.000000
886497.000000
887232.000000
887995.000000
888791.000000
889589.000000
890350.000000
891123.000000
891881.000000
892629.000000
893343.000000
894051.000000
894768.000000
895472.000000
896168.000000
896857.000000
897546.000000
898267.000000
898977.000000
899666.000000
900354.000000
