ECG (ms)
637.000000
1475.000000
2319.000000
3159.000000
3992.000000
4836.000000
5667.000000
6494.000000
7329.000000
8197.000000
9065.000000
9933.000000
10824.000000
11714.000000
12593.000000
13491.000000
14398.000000
15282.000000
16154.000000
17046.000000
17966.000000
18846.000000
19705.000000
20567.000000
21455.000000
22334.000000
23198.000000
24073.000000
24970.000000
25843.000000
26698.000000
27558.000000
28434.000000
29287.000000
30129.000000
30986.000000
31845.000000
32687.000000
33533.000000
34402.000000
35275.000000
36137.000000
37010.000000
37888.000000
38740.000000
39580.000000
40406.000000
41240.000000
42091.000000
42943.000000
43786.000000
44629.000000
45475.000000
46310.000000
47144.000000
47976.000000
48799.000000
49625.000000
50466.000000
51361.000000
52261.000000
53120.000000
53970.000000
54824.000000
55663.000000
56489.000000
57315.000000
58148.000000
58979.000000
59804.000000
60633.000000
61472.000000
62310.000000
63144.000000
63991.000000
64842.000000
65682.000000
66509.000000
67350.000000
68187.000000
69016.000000
69838.000000
70671.000000
71519.000000
72359.000000
73192.000000
74041.000000
74889.000000
75727.000000
76566.000000
77402.000000
78228.000000
79040.000000
79858.000000
80697.000000
81555.000000
82423.000000
83296.000000
84168.000000
85034.000000
85904.000000
86778.000000
87655.000000
88531.000000
89415.000000
90286.000000
91142.000000
91984.000000
92832.000000
93689.000000
94536.000000
95371.000000
96204.000000
97044.000000
97896.000000
98756.000000
99624.000000
100478.000000
101326.000000
102177.000000
103022.000000
103850.000000
104667.000000
105492.000000
106325.000000
107168.000000
108032.000000
108903.000000
109776.000000
110657.000000
111554.000000
112440.000000
113326.000000
114222.000000
115100.000000
115959.000000
116806.000000
117676.000000
118544.000000
119403.000000
120278.000000
121177.000000
122065.000000
122952.000000
123855.000000
124741.000000
125631.000000
126543.000000
127429.000000
128293.000000
129169.000000
130063.000000
130925.000000
131768.000000
132610.000000
133454.000000
134293.000000
135124.000000
135975.000000
136841.000000
137715.000000
138600.000000
139489.000000
140362.000000
141248.000000
142163.000000
143065.000000
143954.000000
144843.000000
145739.000000
146661.000000
147597.000000
148512.000000
149384.000000
150261.000000
151163.000000
152100.000000
152996.000000
153878.000000
154769.000000
155645.000000
156512.000000
157377.000000
158243.000000
159098.000000
159953.000000
160822.000000
161685.000000
162553.000000
163456.000000
164331.000000
165187.000000
166043.000000
166910.000000
167774.000000
168628.000000
169480.000000
170346.000000
171204.000000
172055.000000
172914.000000
173769.000000
174620.000000
175479.000000
176346.000000
177204.000000
178069.000000
178966.000000
179842.000000
180710.000000
181583.000000
182482.000000
183346.000000
184197.000000
185070.000000
185968.000000
186854.000000
187742.000000
188638.000000
189513.000000
190384.000000
191277.000000
192175.000000
193047.000000
193934.000000
194841.000000
195724.000000
196595.000000
197477.000000
198382.000000
199259.000000
200124.000000
201002.000000
201858.000000
202705.000000
203550.000000
204406.000000
205256.000000
206097.000000
206954.000000
207825.000000
208676.000000
209520.000000
210373.000000
211218.000000
212066.000000
212932.000000
213846.000000
214759.000000
215678.000000
216620.000000
217564.000000
218471.000000
219405.000000
220362.000000
221261.000000
222201.000000
223282.000000
224329.000000
225316.000000
226274.000000
227208.000000
228097.000000
228983.000000
229904.000000
230832.000000
231712.000000
232556.000000
233431.000000
234369.000000
235279.000000
236172.000000
237095.000000
238032.000000
238950.000000
239870.000000
240797.000000
241717.000000
242643.000000
243571.000000
244477.000000
245365.000000
246255.000000
247108.000000
247958.000000
248814.000000
249690.000000
250543.000000
251384.000000
252241.000000
253136.000000
254022.000000
254879.000000
255727.000000
256575.000000
257407.000000
258244.000000
259114.000000
259976.000000
260821.000000
261670.000000
262526.000000
263358.000000
264174.000000
264989.000000
265816.000000
266647.000000
267471.000000
268309.000000
269163.000000
270027.000000
270880.000000
271738.000000
272603.000000
273453.000000
274293.000000
275135.000000
275994.000000
276841.000000
277667.000000
278494.000000
279345.000000
280220.000000
281097.000000
281981.000000
282861.000000
283743.000000
284633.000000
285508.000000
286401.000000
287303.000000
288204.000000
289113.000000
290021.000000
290896.000000
291768.000000
292645.000000
293527.000000
294388.000000
295223.000000
296071.000000
296948.000000
297831.000000
298713.000000
299604.000000
300483.000000
301361.000000
302251.000000
303174.000000
304083.000000
304976.000000
305890.000000
306820.000000
307704.000000
308592.000000
309487.000000
310357.000000
311216.000000
312070.000000
312943.000000
313820.000000
314685.000000
315560.000000
316457.000000
317342.000000
318195.000000
319052.000000
319923.000000
320787.000000
321631.000000
322482.000000
323354.000000
324222.000000
325072.000000
325917.000000
326782.000000
327640.000000
328483.000000
329314.000000
330155.000000
331020.000000
331927.000000
332834.000000
333725.000000
334616.000000
335536.000000
336417.000000
337275.000000
338152.000000
339052.000000
339961.000000
340887.000000
341827.000000
342732.000000
343618.000000
344514.000000
345408.000000
346276.000000
347142.000000
348032.000000
348936.000000
349806.000000
350669.000000
351538.000000
352413.000000
353274.000000
354126.000000
354993.000000
355869.000000
356727.000000
357589.000000
358468.000000
359342.000000
360204.000000
361071.000000
361930.000000
362772.000000
363606.000000
364449.000000
365298.000000
366139.000000
366973.000000
367810.000000
368644.000000
369473.000000
370297.000000
371131.000000
371962.000000
372790.000000
373622.000000
374473.000000
375326.000000
376169.000000
377029.000000
377895.000000
378740.000000
379616.000000
380529.000000
381429.000000
382318.000000
383223.000000
384118.000000
384995.000000
385881.000000
386808.000000
387715.000000
388608.000000
389519.000000
390434.000000
391312.000000
392199.000000
393091.000000
393963.000000
394838.000000
395725.000000
396624.000000
397490.000000
398378.000000
399301.000000
400260.000000
401156.000000
402021.000000
402888.000000
403764.000000
404617.000000
405460.000000
406313.000000
407202.000000
408096.000000
408964.000000
409836.000000
410749.000000
411644.000000
412515.000000
413401.000000
414312.000000
415198.000000
416095.000000
417027.000000
417925.000000
418799.000000
419689.000000
420591.000000
421474.000000
422359.000000
423255.000000
424112.000000
424944.000000
425765.000000
426594.000000
427435.000000
428272.000000
429098.000000
429944.000000
430822.000000
431692.000000
432542.000000
433391.000000
434233.000000
435082.000000
435925.000000
436769.000000
437603.000000
438434.000000
439275.000000
440164.000000
441058.000000
441930.000000
442816.000000
443726.000000
444611.000000
445494.000000
446389.000000
447264.000000
448139.000000
449023.000000
449905.000000
450763.000000
451629.000000
452503.000000
453368.000000
454227.000000
455092.000000
455969.000000
456818.000000
457657.000000
458502.000000
459364.000000
460212.000000
461059.000000
461926.000000
462806.000000
463680.000000
464537.000000
465391.000000
466252.000000
467108.000000
467962.000000
468817.000000
469683.000000
470549.000000
471397.000000
472247.000000
473112.000000
473993.000000
474853.000000
475716.000000
476596.000000
477506.000000
478422.000000
479296.000000
480158.000000
481024.000000
481904.000000
482793.000000
483662.000000
484521.000000
485394.000000
486293.000000
487155.000000
488001.000000
488855.000000
489732.000000
490592.000000
491441.000000
492294.000000
493172.000000
494033.000000
494883.000000
495733.000000
496604.000000
497464.000000
498320.000000
499218.000000
500173.000000
501138.000000
502015.000000
502855.000000
503684.000000
504516.000000
505338.000000
506150.000000
506959.000000
507786.000000
508627.000000
509468.000000
510317.000000
511180.000000
512045.000000
512920.000000
513795.000000
514690.000000
515586.000000
516480.000000
517398.000000
518289.000000
519166.000000
520048.000000
520908.000000
521765.000000
522625.000000
523495.000000
524366.000000
525210.000000
526041.000000
526861.000000
527699.000000
528553.000000
529403.000000
530251.000000
531114.000000
532019.000000
532911.000000
533818.000000
534749.000000
535656.000000
536529.000000
537406.000000
538297.000000
539172.000000
540028.000000
540890.000000
541765.000000
542621.000000
543469.000000
544318.000000
545178.000000
546029.000000
546868.000000
547717.000000
548582.000000
549453.000000
550303.000000
551146.000000
551995.000000
552836.000000
553672.000000
554516.000000
555384.000000
556254.000000
557142.000000
558022.000000
558899.000000
559786.000000
560669.000000
561527.000000
562384.000000
563262.000000
564126.000000
564988.000000
565862.000000
566742.000000
567602.000000
568462.000000
569340.000000
570228.000000
571101.000000
571971.000000
572868.000000
573746.000000
574614.000000
575498.000000
576406.000000
577304.000000
578197.000000
579084.000000
579949.000000
580806.000000
581681.000000
582571.000000
583448.000000
584312.000000
585175.000000
586041.000000
586896.000000
587746.000000
588599.000000
589458.000000
590314.000000
591161.000000
592021.000000
592869.000000
593706.000000
594544.000000
595403.000000
596284.000000
597165.000000
598034.000000
598900.000000
599748.000000
600583.000000
601418.000000
602262.000000
603118.000000
603968.000000
604820.000000
605703.000000
606623.000000
607504.000000
608374.000000
609260.000000
610139.000000
610992.000000
611843.000000
612715.000000
613592.000000
614449.000000
615298.000000
616149.000000
617009.000000
617870.000000
618726.000000
619606.000000
620482.000000
621355.000000
622232.000000
623144.000000
624053.000000
624930.000000
625819.000000
626738.000000
627613.000000
628463.000000
629320.000000
630196.000000
631061.000000
631909.000000
632764.000000
633631.000000
634490.000000
635327.000000
636150.000000
636986.000000
637855.000000
638729.000000
639602.000000
640490.000000
641411.000000
642313.000000
643213.000000
644126.000000
645013.000000
645881.000000
646748.000000
647629.000000
648492.000000
649354.000000
650236.000000
651110.000000
651962.000000
652804.000000
653658.000000
654519.000000
655377.000000
656241.000000
657130.000000
658022.000000
658954.000000
659945.000000
660893.000000
661789.000000
662687.000000
663622.000000
664523.000000
665409.000000
666337.000000
667319.000000
668229.000000
669102.000000
669973.000000
670870.000000
671759.000000
672664.000000
673621.000000
674613.000000
675560.000000
676508.000000
677459.000000
678411.000000
679297.000000
680203.000000
681223.000000
682294.000000
683282.000000
684224.000000
685217.000000
686242.000000
687206.000000
688158.000000
689126.000000
690042.000000
690939.000000
691826.000000
692716.000000
693579.000000
694426.000000
695279.000000
696168.000000
697060.000000
697929.000000
698787.000000
699633.000000
700466.000000
701303.000000
702172.000000
703046.000000
703918.000000
704810.000000
705691.000000
706547.000000
707401.000000
708252.000000
709093.000000
709920.000000
710741.000000
711583.000000
712428.000000
713259.000000
714094.000000
714934.000000
715774.000000
716605.000000
717432.000000
718271.000000
719124.000000
719959.000000
720792.000000
721642.000000
722505.000000
723369.000000
724243.000000
725122.000000
725991.000000
726845.000000
727700.000000
728571.000000
729422.000000
730261.000000
731100.000000
731953.000000
732804.000000
733647.000000
734477.000000
735309.000000
736140.000000
736971.000000
737809.000000
738666.000000
739511.000000
740361.000000
741220.000000
742083.000000
742937.000000
743787.000000
744643.000000
745500.000000
746341.000000
747174.000000
748029.000000
748924.000000
749817.000000
750751.000000
751785.000000
752811.000000
753713.000000
754594.000000
755488.000000
756398.000000
757270.000000
758118.000000
758983.000000
759877.000000
760758.000000
761619.000000
762480.000000
763376.000000
764295.000000
765194.000000
766105.000000
767032.000000
767913.000000
768766.000000
769616.000000
770502.000000
771425.000000
772306.000000
773239.000000
774369.000000
775488.000000
776533.000000
777537.000000
778461.000000
779385.000000
780308.000000
781178.000000
782020.000000
782862.000000
783735.000000
784632.000000
785504.000000
786388.000000
787315.000000
788261.000000
789159.000000
790044.000000
790945.000000
791854.000000
792719.000000
793568.000000
794456.000000
795383.000000
796275.000000
797139.000000
797992.000000
798858.000000
799732.000000
800593.000000
801455.000000
802337.000000
803226.000000
804089.000000
804936.000000
805786.000000
806657.000000
807549.000000
808431.000000
809310.000000
810212.000000
811102.000000
811963.000000
812813.000000
813668.000000
814513.000000
815343.000000
816179.000000
817032.000000
817900.000000
818763.000000
819624.000000
820508.000000
821407.000000
822279.000000
823134.000000
824005.000000
824914.000000
825809.000000
826683.000000
827588.000000
828534.000000
829448.000000
830359.000000
831279.000000
832197.000000
833199.000000
834203.000000
835100.000000
835966.000000
836846.000000
837726.000000
838591.000000
839433.000000
840287.000000
841166.000000
842042.000000
842930.000000
843898.000000
845009.000000
846056.000000
847085.000000
848182.000000
849247.000000
850280.000000
851249.000000
852161.000000
853127.000000
854093.000000
855051.000000
855986.000000
856912.000000
857959.000000
859077.000000
860114.000000
861011.000000
861891.000000
862835.000000
863925.000000
865010.000000
866066.000000
867087.000000
868093.000000
869010.000000
869865.000000
870699.000000
871520.000000
872347.000000
873187.000000
874024.000000
874868.000000
875737.000000
876654.000000
877538.000000
878386.000000
879233.000000
880091.000000
880956.000000
881807.000000
882636.000000
883471.000000
884328.000000
885179.000000
886014.000000
886842.000000
887676.000000
888514.000000
889342.000000
890163.000000
890992.000000
891839.000000
892716.000000
893587.000000
894457.000000
895333.000000
896222.000000
897078.000000
897923.000000
898780.000000
899668.000000
900562.000000
901418.000000
902273.000000
903128.000000
903976.000000
904817.000000
905656.000000
906499.000000
907357.000000
908202.000000
909039.000000
909881.000000
910733.000000
911576.000000
912417.000000
913268.000000
914153.000000
915062.000000
915927.000000
916790.000000
917643.000000
918482.000000
919316.000000
920149.000000
920992.000000
921832.000000
922680.000000
923511.000000
924334.000000
925157.000000
926011.000000
926906.000000
927790.000000
928653.000000
929525.000000
930390.000000
931240.000000
932092.000000
932952.000000
933812.000000
934662.000000
935518.000000
936385.000000
937261.000000
938130.000000
938992.000000
939866.000000
940729.000000
941604.000000
942496.000000
943405.000000
944297.000000
945164.000000
946028.000000
946904.000000
947777.000000
948643.000000
949514.000000
950415.000000
951312.000000
952213.000000
953120.000000
954003.000000
954867.000000
955748.000000
956664.000000
957555.000000
958411.000000
959271.000000
960134.000000
960990.000000
961838.000000
962696.000000
963570.000000
964421.000000
965257.000000
966090.000000
966939.000000
967788.000000
968628.000000
969467.000000
970323.000000
971173.000000
972016.000000
972863.000000
973712.000000
974549.000000
975390.000000
976240.000000
977107.000000
977958.000000
978800.000000
979662.000000
980554.000000
981442.000000
982300.000000
983154.000000
984010.000000
984885.000000
985740.000000
986580.000000
987426.000000
988296.000000
989150.000000
989991.000000
990845.000000
991733.000000
992645.000000
993524.000000
994355.000000
995172.000000
995975.000000
996785.000000
997644.000000
998484.000000
999290.000000
1000094.000000
1000893.000000
1001705.000000
1002506.000000
1003309.000000
1004109.000000
1004910.000000
1005715.000000
1006516.000000
1007320.000000
1008111.000000
1008922.000000
1009746.000000
1010580.000000
1011426.000000
1012267.000000
1013112.000000
1013989.000000
1014904.000000
1015875.000000
1016839.000000
1017812.000000
1018754.000000
1019682.000000
1020570.000000
1021449.000000
1022302.000000
1023140.000000
1023994.000000
1024914.000000
1025850.000000
1026757.000000
1027714.000000
1028695.000000
1029628.000000
1030562.000000
1031529.000000
1032453.000000
1033368.000000
1034334.000000
1035290.000000
1036223.000000
1037163.000000
1038105.000000
1039006.000000
1039882.000000
1040759.000000
1041622.000000
1042464.000000
1043342.000000
1044232.000000
1045127.000000
1046066.000000
1047030.000000
1047952.000000
1048869.000000
1049796.000000
1050744.000000
1051660.000000
1052532.000000
1053372.000000
1054198.000000
1055023.000000
1055875.000000
1056750.000000
1057614.000000
1058464.000000
1059314.000000
1060187.000000
1061069.000000
1061972.000000
1062888.000000
1063758.000000
1064606.000000
1065454.000000
1066300.000000
1067132.000000
1067964.000000
1068824.000000
1069687.000000
1070537.000000
1071398.000000
1072299.000000
1073201.000000
1074073.000000
1074942.000000
1075822.000000
1076721.000000
1077593.000000
1078451.000000
1079320.000000
1080174.000000
1081008.000000
1081837.000000
1082672.000000
1083522.000000
1084371.000000
1085219.000000
1086067.000000
1086923.000000
1087774.000000
1088605.000000
1089421.000000
1090254.000000
1091112.000000
1091972.000000
1092835.000000
1093703.000000
1094599.000000
1095480.000000
1096354.000000
1097235.000000
1098133.000000
1099021.000000
1099896.000000
1100780.000000
1101687.000000
1102588.000000
1103459.000000
1104304.000000
1105157.000000
1106060.000000
1107017.000000
1107939.000000
1108847.000000
1109762.000000
1110689.000000
1111612.000000
1112515.000000
1113404.000000
1114292.000000
1115190.000000
1116073.000000
1116946.000000
1117848.000000
1118810.000000
1119770.000000
1120721.000000
1121610.000000
1122480.000000
1123350.000000
1124227.000000
1125106.000000
1125993.000000
1126855.000000
1127709.000000
1128563.000000
1129417.000000
1130255.000000
1131089.000000
1131927.000000
1132783.000000
1133636.000000
1134482.000000
1135330.000000
1136198.000000
1137072.000000
1137933.000000
1138787.000000
1139665.000000
1140532.000000
1141390.000000
1142249.000000
1143139.000000
1144013.000000
1144879.000000
1145752.000000
1146656.000000
1147545.000000
1148408.000000
1149276.000000
1150154.000000
1151008.000000
1151857.000000
1152714.000000
1153594.000000
1154467.000000
1155346.000000
1156256.000000
1157144.000000
1158027.000000
1158919.000000
1159831.000000
1160735.000000
1161631.000000
1162546.000000
1163452.000000
1164331.000000
1165197.000000
1166069.000000
1166938.000000
1167790.000000
1168643.000000
1169493.000000
1170340.000000
1171175.000000
1172003.000000
1172842.000000
1173698.000000
1174551.000000
1175394.000000
1176233.000000
1177070.000000
1177887.000000
1178693.000000
1179495.000000
1180286.000000
1181082.000000
1181903.000000
1182738.000000
1183575.000000
1184431.000000
1185274.000000
1186109.000000
1186968.000000
1187879.000000
1188825.000000
1189725.000000
1190645.000000
1191614.000000
1192593.000000
1193549.000000
1194458.000000
1195352.000000
1196250.000000
1197154.000000
1198029.000000
1198890.000000
1199767.000000
1200629.000000
1201477.000000
1202327.000000
1203189.000000
1204038.000000
1204870.000000
1205735.000000
1206714.000000
1207665.000000
1208594.000000
1209535.000000
1210484.000000
1211413.000000
1212314.000000
1213203.000000
1214083.000000
1214935.000000
1215785.000000
1216629.000000
1217483.000000
1218343.000000
1219196.000000
1220040.000000
1220875.000000
1221704.000000
1222541.000000
1223395.000000
1224259.000000
1225102.000000
1225942.000000
1226791.000000
1227661.000000
1228509.000000
1229340.000000
1230168.000000
1231006.000000
1231857.000000
1232722.000000
1233569.000000
1234400.000000
1235232.000000
1236079.000000
1236932.000000
1237786.000000
1238649.000000
1239522.000000
1240391.000000
1241253.000000
1242120.000000
1242951.000000
1243769.000000
1244585.000000
1245408.000000
1246237.000000
1247077.000000
1247931.000000
1248799.000000
1249670.000000
1250541.000000
1251425.000000
1252322.000000
1253231.000000
1254126.000000
1255019.000000
1255947.000000
1256859.000000
1257735.000000
1258611.000000
1259506.000000
1260381.000000
1261249.000000
1262139.000000
1263046.000000
1263937.000000
1264842.000000
1265778.000000
1266701.000000
1267592.000000
1268506.000000
1269431.000000
1270350.000000
1271289.000000
1272258.000000
1273180.000000
1274086.000000
1274989.000000
1275902.000000
1276790.000000
1277685.000000
1278602.000000
1279492.000000
1280361.000000
1281234.000000
1282132.000000
1283019.000000
1283888.000000
1284773.000000
1285662.000000
1286529.000000
1287392.000000
1288270.000000
1289159.000000
1290032.000000
1290898.000000
1291779.000000
1292684.000000
1293575.000000
1294444.000000
1295319.000000
1296205.000000
1297081.000000
1297950.000000
1298836.000000
1299745.000000
1300658.000000
1301542.000000
1302445.000000
1303399.000000
1304386.000000
1305332.000000
1306235.000000
1307128.000000
1308012.000000
1308885.000000
1309740.000000
1310598.000000
1311485.000000
1312388.000000
1313263.000000
1314135.000000
1315035.000000
1315944.000000
1316828.000000
1317724.000000
1318642.000000
1319564.000000
1320439.000000
1321293.000000
1322154.000000
1323033.000000
1323898.000000
1324771.000000
1325672.000000
1326590.000000
1327486.000000
1328379.000000
1329255.000000
1330118.000000
1330963.000000
1331806.000000
1332664.000000
1333519.000000
1334365.000000
1335223.000000
1336109.000000
1337007.000000
1337872.000000
1338742.000000
1339618.000000
1340509.000000
1341399.000000
1342262.000000
1343122.000000
1343974.000000
1344813.000000
1345646.000000
1346485.000000
1347339.000000
1348196.000000
1349089.000000
1350002.000000
1350878.000000
1351738.000000
1352594.000000
1353460.000000
1354309.000000
1355145.000000
1355976.000000
1356813.000000
1357654.000000
1358491.000000
1359336.000000
1360183.000000
1361021.000000
1361855.000000
1362706.000000
1363579.000000
1364436.000000
1365294.000000
1366168.000000
1367052.000000
1367917.000000
1368773.000000
1369635.000000
1370495.000000
1371374.000000
1372316.000000
1373338.000000
1374299.000000
1375219.000000
1376119.000000
1377023.000000
1377897.000000
1378756.000000
1379619.000000
1380511.000000
1381415.000000
1382308.000000
1383225.000000
1384167.000000
1385076.000000
1385972.000000
1386871.000000
1387774.000000
1388655.000000
1389558.000000
1390542.000000
1391538.000000
1392441.000000
1393314.000000
1394194.000000
1395073.000000
1395930.000000
1396772.000000
1397614.000000
1398460.000000
1399304.000000
1400141.000000
1400971.000000
1401816.000000
1402683.000000
1403538.000000
1404395.000000
1405288.000000
1406217.000000
1407107.000000
1408009.000000
1408890.000000
1409749.000000
1410589.000000
1411425.000000
1412269.000000
1413128.000000
1413981.000000
1414845.000000
1415722.000000
1416596.000000
1417452.000000
1418321.000000
1419188.000000
1420044.000000
1420886.000000
1421735.000000
1422592.000000
1423458.000000
1424314.000000
1425178.000000
1426074.000000
1426970.000000
1427845.000000
1428724.000000
1429633.000000
1430535.000000
1431407.000000
1432287.000000
1433162.000000
1434049.000000
1434920.000000
1435773.000000
1436621.000000
1437475.000000
1438339.000000
1439195.000000
1440047.000000
1440909.000000
1441790.000000
1442668.000000
1443529.000000
1444399.000000
1445287.000000
1446174.000000
1447035.000000
1447881.000000
1448726.000000
1449580.000000
1450436.000000
1451294.000000
1452143.000000
1452990.000000
1453853.000000
1454729.000000
1455592.000000
1456437.000000
1457290.000000
1458158.000000
1459018.000000
1459856.000000
1460689.000000
1461529.000000
1462386.000000
1463244.000000
1464103.000000
1464990.000000
1465898.000000
1466801.000000
1467697.000000
1468581.000000
1469463.000000
1470381.000000
1471270.000000
1472141.000000
1473017.000000
1473911.000000
1474806.000000
1475669.000000
1476518.000000
1477397.000000
1478319.000000
1479216.000000
1480094.000000
1480994.000000
1481929.000000
1482834.000000
1483729.000000
1484613.000000
1485500.000000
1486389.000000
1487282.000000
1488152.000000
1489002.000000
1489841.000000
1490684.000000
1491529.000000
1492370.000000
1493205.000000
1494053.000000
1494920.000000
1495779.000000
1496647.000000
1497521.000000
1498436.000000
1499369.000000
1500265.000000
1501141.000000
1502037.000000
1502933.000000
1503800.000000
1504657.000000
1505524.000000
1506382.000000
1507226.000000
1508069.000000
1508931.000000
1509852.000000
1510768.000000
1511673.000000
1512576.000000
1513479.000000
1514350.000000
1515213.000000
1516091.000000
1516983.000000
1517858.000000
1518713.000000
1519569.000000
1520440.000000
1521298.000000
1522143.000000
1522995.000000
1523862.000000
1524714.000000
1525559.000000
1526398.000000
1527246.000000
1528095.000000
1528938.000000
1529777.000000
1530621.000000
1531469.000000
1532313.000000
1533168.000000
1534044.000000
1534950.000000
1535848.000000
1536713.000000
1537587.000000
1538507.000000
1539448.000000
1540343.000000
1541222.000000
1542092.000000
1542976.000000
1543855.000000
1544703.000000
1545537.000000
1546369.000000
1547221.000000
1548083.000000
1548929.000000
1549784.000000
1550660.000000
1551551.000000
1552432.000000
1553290.000000
1554145.000000
1555007.000000
1555863.000000
1556720.000000
1557595.000000
1558492.000000
1559392.000000
1560265.000000
1561142.000000
1562034.000000
1562918.000000
1563788.000000
1564717.000000
1565714.000000
1566707.000000
1567666.000000
1568578.000000
1569498.000000
1570386.000000
1571241.000000
1572083.000000
1572927.000000
1573777.000000
1574650.000000
1575523.000000
1576374.000000
1577234.000000
1578106.000000
1578979.000000
1579841.000000
1580713.000000
1581586.000000
1582462.000000
1583324.000000
1584168.000000
1585013.000000
1585866.000000
1586713.000000
1587554.000000
1588393.000000
1589255.000000
1590130.000000
1590989.000000
1591839.000000
1592695.000000
1593569.000000
1594439.000000
1595293.000000
1596143.000000
1597007.000000
1597882.000000
1598754.000000
1599586.000000
1600399.000000
1601215.000000
1602040.000000
1602862.000000
1603695.000000
1604545.000000
1605413.000000
1606278.000000
1607143.000000
1608046.000000
1608970.000000
1609854.000000
1610730.000000
1611606.000000
1612488.000000
1613358.000000
1614206.000000
1615054.000000
1615906.000000
1616752.000000
1617584.000000
1618410.000000
1619244.000000
1620071.000000
1620892.000000
1621713.000000
1622551.000000
1623403.000000
1624259.000000
1625129.000000
1626014.000000
1626903.000000
1627762.000000
1628609.000000
1629467.000000
1630344.000000
1631281.000000
1632245.000000
1633160.000000
1634045.000000
1634926.000000
1635806.000000
1636659.000000
1637488.000000
1638294.000000
1639095.000000
1639917.000000
1640760.000000
1641614.000000
1642466.000000
1643328.000000
1644244.000000
1645196.000000
1646168.000000
1647121.000000
1648045.000000
1648956.000000
1649864.000000
1650764.000000
1651623.000000
1652446.000000
1653247.000000
1654047.000000
1654856.000000
1655668.000000
1656480.000000
1657291.000000
1658125.000000
1659000.000000
1659896.000000
1660799.000000
1661687.000000
1662602.000000
1663537.000000
1664473.000000
1665376.000000
1666277.000000
1667238.000000
1668231.000000
1669179.000000
1670103.000000
1671004.000000
1671877.000000
1672733.000000
1673588.000000
1674462.000000
1675335.000000
1676203.000000
1677088.000000
1678002.000000
1678887.000000
1679753.000000
1680620.000000
1681497.000000
1682363.000000
1683222.000000
1684095.000000
1684952.000000
1685796.000000
1686652.000000
1687518.000000
1688392.000000
1689252.000000
1690095.000000
1690941.000000
1691809.000000
1692675.000000
1693547.000000
1694463.000000
1695497.000000
1696445.000000
1697322.000000
1698191.000000
1699048.000000
1699894.000000
1700743.000000
1701614.000000
1702543.000000
1703476.000000
1704384.000000
1705294.000000
1706241.000000
1707167.000000
1708052.000000
1708936.000000
1709832.000000
1710711.000000
1711572.000000
1712442.000000
1713323.000000
1714201.000000
1715068.000000
1715936.000000
1716815.000000
1717703.000000
1718580.000000
1719456.000000
1720339.000000
1721237.000000
1722115.000000
1722977.000000
1723837.000000
1724698.000000
1725559.000000
1726404.000000
1727248.000000
1728102.000000
1728961.000000
1729806.000000
1730634.000000
1731457.000000
1732292.000000
1733134.000000
1733969.000000
1734800.000000
1735645.000000
1736526.000000
1737415.000000
1738280.000000
1739134.000000
1740006.000000
1740864.000000
1741716.000000
1742586.000000
1743487.000000
1744387.000000
1745306.000000
1746247.000000
1747140.000000
1748018.000000
1748863.000000
1749680.000000
1750497.000000
1751339.000000
1752171.000000
1753004.000000
1753870.000000
1754737.000000
1755591.000000
1756443.000000
1757293.000000
1758158.000000
1759018.000000
1759879.000000
1760756.000000
1761616.000000
1762460.000000
1763310.000000
1764191.000000
1765080.000000
1765944.000000
1766810.000000
1767690.000000
1768571.000000
1769446.000000
1770321.000000
1771211.000000
1772082.000000
1772940.000000
1773813.000000
1774702.000000
1775556.000000
1776401.000000
1777244.000000
1778128.000000
1779068.000000
1779948.000000
1780813.000000
1781702.000000
1782613.000000
1783487.000000
1784325.000000
1785171.000000
1786055.000000
1786975.000000
1787865.000000
1788755.000000
1789658.000000
1790553.000000
1791431.000000
1792295.000000
1793177.000000
1794110.000000
1795021.000000
1795905.000000
1796794.000000
1797684.000000
1798598.000000
1799476.000000
1800336.000000
1801205.000000
1802081.000000
1802952.000000
1803791.000000
1804621.000000
1805465.000000
1806338.000000
1807214.000000
1808067.000000
1808914.000000
1809772.000000
1810645.000000
1811523.000000
1812431.000000
1813368.000000
1814326.000000
1815249.000000
1816151.000000
1817052.000000
1817934.000000
1818788.000000
1819642.000000
1820502.000000
1821350.000000
1822179.000000
1822995.000000
1823817.000000
1824640.000000
1825458.000000
1826276.000000
1827108.000000
1827953.000000
1828791.000000
1829615.000000
1830439.000000
1831271.000000
1832100.000000
1832911.000000
1833709.000000
1834515.000000
1835338.000000
1836163.000000
1836991.000000
1837824.000000
1838677.000000
1839552.000000
1840422.000000
1841280.000000
1842137.000000
1843010.000000
1843924.000000
1844831.000000
1845713.000000
1846570.000000
1847406.000000
1848243.000000
1849080.000000
1849927.000000
1850789.000000
1851640.000000
1852483.000000
1853335.000000
1854196.000000
1855048.000000
1855895.000000
1856746.000000
1857587.000000
1858421.000000
1859251.000000
1860081.000000
1860910.000000
1861737.000000
1862569.000000
1863415.000000
1864248.000000
1865089.000000
1865941.000000
1866803.000000
1867656.000000
1868505.000000
1869363.000000
1870240.000000
1871111.000000
1871956.000000
1872793.000000
1873632.000000
1874457.000000
1875256.000000
1876042.000000
1876837.000000
1877628.000000
1878409.000000
1879192.000000
1879982.000000
1880795.000000
1881624.000000
1882456.000000
1883279.000000
1884095.000000
1884903.000000
1885716.000000
1886534.000000
1887348.000000
1888151.000000
1888942.000000
1889718.000000
1890485.000000
1891249.000000
1892021.000000
1892794.000000
1893561.000000
1894332.000000
1895140.000000
1895983.000000
