ECG (ms)
868.000000
1801.000000
2733.000000
3673.000000
4629.000000
5583.000000
6530.000000
7468.000000
8384.000000
9276.000000
10137.000000
10965.000000
11773.000000
12584.000000
13422.000000
14279.000000
15144.000000
16050.000000
16981.000000
17901.000000
18777.000000
19659.000000
20578.000000
21518.000000
22457.000000
23420.000000
24392.000000
25374.000000
26360.000000
27329.000000
28339.000000
29273.000000
30207.000000
31142.000000
32084.000000
33044.000000
34004.000000
34968.000000
35934.000000
36908.000000
37863.000000
38805.000000
39769.000000
40762.000000
41763.000000
42782.000000
43799.000000
44805.000000
45800.000000
46800.000000
47794.000000
48777.000000
49684.000000
50612.000000
51590.000000
52514.000000
53386.000000
54261.000000
55160.000000
56081.000000
57043.000000
58023.000000
59020.000000
60003.000000
60982.000000
61947.000000
62917.000000
63887.000000
64894.000000
65923.000000
66982.000000
68016.000000
69030.000000
70036.000000
71026.000000
72013.000000
73004.000000
73980.000000
74943.000000
75914.000000
76902.000000
77887.000000
78876.000000
79852.000000
80822.000000
81788.000000
82704.000000
83688.000000
84660.000000
85649.000000
86638.000000
87626.000000
88615.000000
89585.000000
90556.000000
91539.000000
92519.000000
93495.000000
94450.000000
95409.000000
96317.000000
97193.000000
98088.000000
99023.000000
99994.000000
100971.000000
101934.000000
102900.000000
103891.000000
104883.000000
105865.000000
106850.000000
107821.000000
108786.000000
109758.000000
110747.000000
111752.000000
112762.000000
113781.000000
114803.000000
115827.000000
116842.000000
117844.000000
118825.000000
119810.000000
120818.000000
121847.000000
122867.000000
123882.000000
124903.000000
125904.000000
126903.000000
127905.000000
128897.000000
129885.000000
130874.000000
131859.000000
132836.000000
133818.000000
134818.000000
135830.000000
136843.000000
137839.000000
138833.000000
139820.000000
140816.000000
141817.000000
142808.000000
143797.000000
144793.000000
145817.000000
146831.000000
147828.000000
148823.000000
149785.000000
150718.000000
151654.000000
152609.000000
153583.000000
154569.000000
155555.000000
156532.000000
157506.000000
158498.000000
159488.000000
160478.000000
161470.000000
162455.000000
163461.000000
164481.000000
165491.000000
166502.000000
167516.000000
168529.000000
169538.000000
170548.000000
171558.000000
172552.000000
173554.000000
174572.000000
175598.000000
176625.000000
177652.000000
178668.000000
179685.000000
180696.000000
181713.000000
182717.000000
183714.000000
184734.000000
185778.000000
186816.000000
187830.000000
188862.000000
189885.000000
190905.000000
191919.000000
192949.000000
194004.000000
195085.000000
196160.000000
197234.000000
198301.000000
199350.000000
200411.000000
201474.000000
202536.000000
203586.000000
204640.000000
205703.000000
206766.000000
207810.000000
208843.000000
209891.000000
210886.000000
211873.000000
212872.000000
213879.000000
214910.000000
215952.000000
217003.000000
218068.000000
219114.000000
220150.000000
221193.000000
222234.000000
223273.000000
224331.000000
225385.000000
226440.000000
227514.000000
228590.000000
229654.000000
230709.000000
231783.000000
232857.000000
233913.000000
234960.000000
236025.000000
237094.000000
238177.000000
239245.000000
240326.000000
241415.000000
242503.000000
243589.000000
244665.000000
245726.000000
246797.000000
247873.000000
248945.000000
250014.000000
251090.000000
252153.000000
253206.000000
254265.000000
255316.000000
256361.000000
257438.000000
258469.000000
259484.000000
260513.000000
261550.000000
262590.000000
263618.000000
264638.000000
265685.000000
266749.000000
267828.000000
268918.000000
269988.000000
271055.000000
272136.000000
273208.000000
274271.000000
275318.000000
276369.000000
277420.000000
278461.000000
279494.000000
280505.000000
281528.000000
282557.000000
283585.000000
284610.000000
285636.000000
286654.000000
287675.000000
288677.000000
289679.000000
290685.000000
291687.000000
292675.000000
293686.000000
294691.000000
295691.000000
296714.000000
297735.000000
298744.000000
299749.000000
300766.000000
301780.000000
302802.000000
303826.000000
304855.000000
305828.000000
306788.000000
307764.000000
308746.000000
309724.000000
310710.000000
311716.000000
312728.000000
313744.000000
314763.000000
315781.000000
316793.000000
317819.000000
318844.000000
319872.000000
320914.000000
321959.000000
323026.000000
324110.000000
325195.000000
326268.000000
327357.000000
328442.000000
329522.000000
330605.000000
331677.000000
332722.000000
333780.000000
334881.000000
335995.000000
337116.000000
338240.000000
339349.000000
340449.000000
341536.000000
342614.000000
343693.000000
344771.000000
345834.000000
346879.000000
347934.000000
349005.000000
350077.000000
351147.000000
352209.000000
353273.000000
354329.000000
355376.000000
356410.000000
357471.000000
358551.000000
359639.000000
360732.000000
361836.000000
362936.000000
364032.000000
365139.000000
366232.000000
367305.000000
368388.000000
369480.000000
370566.000000
371597.000000
372616.000000
373652.000000
374630.000000
375699.000000
376765.000000
377834.000000
378912.000000
379992.000000
381076.000000
382158.000000
383247.000000
384324.000000
385428.000000
386539.000000
387653.000000
388768.000000
389878.000000
390973.000000
392070.000000
393164.000000
394182.000000
395285.000000
396381.000000
397494.000000
398611.000000
399735.000000
400846.000000
401940.000000
403041.000000
404130.000000
405223.000000
406315.000000
407411.000000
408494.000000
409562.000000
410644.000000
411739.000000
412840.000000
413946.000000
415051.000000
416150.000000
417249.000000
418331.000000
419402.000000
420486.000000
421582.000000
422671.000000
423778.000000
424931.000000
426093.000000
427255.000000
428409.000000
429555.000000
430707.000000
431841.000000
432937.000000
434039.000000
435121.000000
436189.000000
437204.000000
438208.000000
439225.000000
440248.000000
441275.000000
442296.000000
443324.000000
444369.000000
445411.000000
446446.000000
447480.000000
448540.000000
449611.000000
450677.000000
451728.000000
452796.000000
453867.000000
454931.000000
455993.000000
457037.000000
458098.000000
459174.000000
460265.000000
461364.000000
462488.000000
463610.000000
464717.000000
465834.000000
466955.000000
468065.000000
469180.000000
470268.000000
471346.000000
472440.000000
473546.000000
474641.000000
475745.000000
476849.000000
477944.000000
479030.000000
480132.000000
481235.000000
482332.000000
483425.000000
484515.000000
485581.000000
486649.000000
487724.000000
488811.000000
489907.000000
490994.000000
492075.000000
493139.000000
494186.000000
495234.000000
496288.000000
497355.000000
498424.000000
499498.000000
500572.000000
501643.000000
502656.000000
503681.000000
504724.000000
505760.000000
506804.000000
507868.000000
508937.000000
509998.000000
511062.000000
512115.000000
513157.000000
514208.000000
515264.000000
516322.000000
517400.000000
518483.000000
519559.000000
520629.000000
521705.000000
522781.000000
523849.000000
524919.000000
525968.000000
526998.000000
528049.000000
529106.000000
530158.000000
531200.000000
532253.000000
533304.000000
534356.000000
535396.000000
536431.000000
537472.000000
538510.000000
539523.000000
540533.000000
541627.000000
542823.000000
544018.000000
545193.000000
546336.000000
547448.000000
548494.000000
549481.000000
550457.000000
551445.000000
552486.000000
553558.000000
554631.000000
555713.000000
556788.000000
557883.000000
558977.000000
560067.000000
561159.000000
562253.000000
563323.000000
564377.000000
565458.000000
566553.000000
567651.000000
568760.000000
569868.000000
570973.000000
572077.000000
573173.000000
574268.000000
575340.000000
576419.000000
577495.000000
578567.000000
579635.000000
580707.000000
581774.000000
582838.000000
583896.000000
584935.000000
585956.000000
587005.000000
588043.000000
589048.000000
590070.000000
591119.000000
592187.000000
593239.000000
594300.000000
595381.000000
596454.000000
597539.000000
598602.000000
599682.000000
600769.000000
601864.000000
602961.000000
604072.000000
605199.000000
606316.000000
607452.000000
608585.000000
609713.000000
610837.000000
611952.000000
613048.000000
614124.000000
615198.000000
616294.000000
617400.000000
618507.000000
619607.000000
620710.000000
621821.000000
622924.000000
624031.000000
625126.000000
626147.000000
627179.000000
628227.000000
629283.000000
630344.000000
631413.000000
632481.000000
633540.000000
634593.000000
635648.000000
636724.000000
637805.000000
638885.000000
639961.000000
641041.000000
642118.000000
643176.000000
644236.000000
645325.000000
646434.000000
647541.000000
648649.000000
649752.000000
650841.000000
651934.000000
653043.000000
654165.000000
655279.000000
656396.000000
657497.000000
658582.000000
659686.000000
660795.000000
661913.000000
663029.000000
664148.000000
665253.000000
666366.000000
667475.000000
668576.000000
669660.000000
670734.000000
671829.000000
672929.000000
674030.000000
675121.000000
676217.000000
677312.000000
678400.000000
679480.000000
680556.000000
681614.000000
682659.000000
683669.000000
684702.000000
685746.000000
686798.000000
687869.000000
688944.000000
690021.000000
691092.000000
692168.000000
693253.000000
694353.000000
695464.000000
696572.000000
697661.000000
698753.000000
699853.000000
700946.000000
702018.000000
703089.000000
704176.000000
705262.000000
706333.000000
707390.000000
708465.000000
709556.000000
710638.000000
711709.000000
712767.000000
713839.000000
714918.000000
715996.000000
717074.000000
718160.000000
719235.000000
720309.000000
721384.000000
722458.000000
723525.000000
724592.000000
725648.000000
726710.000000
727780.000000
728852.000000
729921.000000
731001.000000
732075.000000
733142.000000
734213.000000
735302.000000
736398.000000
737486.000000
738574.000000
739667.000000
740759.000000
741845.000000
742914.000000
743985.000000
745066.000000
746151.000000
747234.000000
748306.000000
749394.000000
750471.000000
751542.000000
752616.000000
753693.000000
754759.000000
755814.000000
756819.000000
757837.000000
758866.000000
759888.000000
760905.000000
761952.000000
762999.000000
764046.000000
765103.000000
766149.000000
767201.000000
768264.000000
769324.000000
770376.000000
771420.000000
772481.000000
773546.000000
774613.000000
775690.000000
776747.000000
777814.000000
778891.000000
779971.000000
781056.000000
782142.000000
783240.000000
784331.000000
785410.000000
786495.000000
787592.000000
788678.000000
789753.000000
790824.000000
791901.000000
792986.000000
794054.000000
795095.000000
796108.000000
797145.000000
798181.000000
799237.000000
800303.000000
801372.000000
802447.000000
803515.000000
804600.000000
805680.000000
806764.000000
807828.000000
808892.000000
809972.000000
811062.000000
812170.000000
813280.000000
814396.000000
815502.000000
816618.000000
817733.000000
818839.000000
819938.000000
821010.000000
822083.000000
823162.000000
824234.000000
825288.000000
826359.000000
827435.000000
828517.000000
829577.000000
830642.000000
831735.000000
832836.000000
833930.000000
835037.000000
836174.000000
837312.000000
838443.000000
839571.000000
840677.000000
841766.000000
842879.000000
844001.000000
845125.000000
846248.000000
847351.000000
848450.000000
849492.000000
850549.000000
851612.000000
852688.000000
853766.000000
854837.000000
855928.000000
857024.000000
858118.000000
859190.000000
860278.000000
861372.000000
862482.000000
863577.000000
864676.000000
865794.000000
866901.000000
868016.000000
869120.000000
870210.000000
871321.000000
872437.000000
873553.000000
874674.000000
875799.000000
876910.000000
878027.000000
879146.000000
880259.000000
881368.000000
882480.000000
883586.000000
884684.000000
885800.000000
886923.000000
888049.000000
889167.000000
890269.000000
891382.000000
892495.000000
893602.000000
894688.000000
895784.000000
896906.000000
898028.000000
899145.000000
900265.000000
901377.000000
902471.000000
903583.000000
904696.000000
905797.000000
906872.000000
907947.000000
909023.000000
910114.000000
911215.000000
912327.000000
913445.000000
914538.000000
915619.000000
916707.000000
917790.000000
918864.000000
919943.000000
921002.000000
922057.000000
923127.000000
924198.000000
925269.000000
926328.000000
927401.000000
928473.000000
929540.000000
930607.000000
931680.000000
932753.000000
933820.000000
934883.000000
935956.000000
937037.000000
938114.000000
939176.000000
940239.000000
941308.000000
942376.000000
943440.000000
944494.000000
945555.000000
946613.000000
947668.000000
948708.000000
949753.000000
950794.000000
951846.000000
952906.000000
953958.000000
955016.000000
956029.000000
957036.000000
958059.000000
959071.000000
960097.000000
961131.000000
962154.000000
963184.000000
964217.000000
965261.000000
966306.000000
967378.000000
968474.000000
969581.000000
970694.000000
971802.000000
972930.000000
974061.000000
975175.000000
976299.000000
977424.000000
978547.000000
979655.000000
980760.000000
981868.000000
982969.000000
984054.000000
985148.000000
986261.000000
987392.000000
988519.000000
989643.000000
990777.000000
991916.000000
993042.000000
994169.000000
995278.000000
996391.000000
997512.000000
998619.000000
999722.000000
1000814.000000
1001837.000000
1002864.000000
1003877.000000
1004881.000000
1005908.000000
1006953.000000
1007996.000000
1009052.000000
1010123.000000
1011199.000000
1012261.000000
1013330.000000
1014405.000000
1015488.000000
1016578.000000
1017674.000000
1018776.000000
1019885.000000
1020989.000000
1022089.000000
1023192.000000
1024289.000000
1025390.000000
1026496.000000
1027606.000000
1028705.000000
1029793.000000
1030844.000000
1031911.000000
1033008.000000
1034120.000000
1035232.000000
1036327.000000
1037434.000000
1038544.000000
1039630.000000
1040726.000000
1041819.000000
1042894.000000
1043980.000000
1045067.000000
1046158.000000
1047235.000000
1048317.000000
1049400.000000
1050486.000000
1051565.000000
1052630.000000
1053694.000000
1054747.000000
1055794.000000
1056865.000000
1057927.000000
1058987.000000
1060051.000000
1061109.000000
1062167.000000
1063237.000000
1064315.000000
1065384.000000
1066446.000000
1067490.000000
1068492.000000
1069517.000000
1070535.000000
1071560.000000
1072617.000000
1073684.000000
1074758.000000
1075813.000000
1076878.000000
1077962.000000
1079049.000000
1080135.000000
1081220.000000
1082315.000000
1083409.000000
1084494.000000
1085596.000000
1086698.000000
1087791.000000
1088887.000000
1089993.000000
1091093.000000
1092182.000000
1093270.000000
1094354.000000
1095428.000000
1096510.000000
1097586.000000
1098652.000000
1099739.000000
1100830.000000
1101932.000000
1103035.000000
1104135.000000
1105223.000000
1106319.000000
1107420.000000
1108515.000000
1109600.000000
1110699.000000
1111803.000000
1112908.000000
1114009.000000
1115087.000000
1116155.000000
1117216.000000
1118225.000000
1119236.000000
1120255.000000
1121300.000000
1122365.000000
1123440.000000
1124503.000000
1125590.000000
1126679.000000
1127763.000000
1128840.000000
1129945.000000
1131048.000000
1132144.000000
1133241.000000
1134353.000000
1135458.000000
1136560.000000
1137661.000000
1138761.000000
1139880.000000
1141002.000000
1142103.000000
1143213.000000
1144326.000000
1145437.000000
1146548.000000
1147637.000000
1148728.000000
1149821.000000
1150923.000000
1152016.000000
1153097.000000
1154190.000000
1155287.000000
1156378.000000
1157448.000000
1158504.000000
1159578.000000
1160657.000000
1161738.000000
1162825.000000
1163908.000000
1164976.000000
1166057.000000
1167138.000000
1168223.000000
1169319.000000
1170424.000000
1171511.000000
1172586.000000
1173684.000000
1174782.000000
1175890.000000
1176971.000000
1178065.000000
1179163.000000
1180257.000000
1181344.000000
1182419.000000
1183510.000000
1184604.000000
1185693.000000
1186776.000000
1187862.000000
1188951.000000
1190011.000000
1191061.000000
1192118.000000
1193175.000000
1194227.000000
1195285.000000
1196345.000000
1197413.000000
1198496.000000
1199580.000000
1200647.000000
1201687.000000
1202766.000000
1203845.000000
1204885.000000
1205901.000000
1206942.000000
1207961.000000
1209009.000000
1210074.000000
1211155.000000
1212244.000000
1213349.000000
1214463.000000
1215576.000000
1216705.000000
1217833.000000
1218960.000000
1220072.000000
1221180.000000
1222296.000000
1223413.000000
1224508.000000
1225589.000000
1226679.000000
1227779.000000
1228856.000000
1229948.000000
