ECG (ms)
497.000000
1380.000000
2281.000000
3168.000000
4059.000000
4933.000000
5759.000000
6545.000000
7361.000000
8161.000000
8976.000000
9814.000000
10664.000000
11499.000000
12353.000000
13198.000000
14021.000000
14852.000000
15671.000000
16475.000000
17318.000000
18214.000000
19158.000000
20115.000000
21022.000000
21918.000000
22803.000000
23666.000000
24534.000000
25398.000000
26221.000000
27029.000000
27875.000000
28871.000000
29910.000000
30919.000000
31886.000000
32825.000000
33706.000000
34507.000000
35265.000000
35996.000000
36768.000000
37761.000000
38801.000000
39838.000000
40853.000000
41797.000000
42669.000000
43521.000000
44387.000000
45283.000000
46196.000000
47097.000000
47996.000000
48835.000000
49636.000000
50433.000000
51257.000000
52158.000000
53119.000000
54056.000000
54969.000000
55826.000000
56633.000000
57423.000000
58223.000000
59082.000000
60001.000000
60956.000000
61906.000000
62853.000000
63751.000000
64583.000000
65389.000000
66198.000000
67077.000000
68016.000000
68975.000000
69944.000000
70908.000000
71845.000000
72711.000000
73530.000000
74356.000000
75249.000000
76249.000000
77256.000000
78189.000000
79051.000000
79895.000000
80730.000000
81549.000000
82367.000000
83215.000000
84086.000000
84975.000000
85866.000000
86753.000000
87633.000000
88513.000000
89400.000000
90287.000000
91116.000000
91925.000000
92751.000000
93635.000000
94575.000000
95554.000000
96508.000000
97434.000000
98335.000000
99208.000000
100046.000000
100867.000000
101701.000000
102591.000000
103527.000000
104466.000000
105376.000000
106288.000000
107156.000000
107990.000000
108828.000000
109696.000000
110605.000000
111548.000000
112471.000000
113381.000000
114258.000000
115093.000000
115910.000000
116740.000000
117630.000000
118556.000000
119480.000000
120411.000000
121316.000000
122172.000000
123023.000000
123887.000000
124775.000000
125655.000000
126538.000000
127389.000000
128258.000000
129146.000000
130063.000000
130978.000000
131908.000000
132809.000000
133656.000000
134486.000000
135326.000000
136199.000000
137092.000000
137981.000000
138877.000000
139728.000000
140546.000000
141373.000000
142223.000000
143101.000000
143978.000000
144880.000000
145777.000000
146630.000000
147465.000000
148316.000000
149173.000000
150013.000000
150858.000000
151704.000000
152548.000000
153381.000000
154208.000000
155063.000000
155968.000000
156889.000000
157793.000000
158688.000000
159585.000000
160446.000000
161270.000000
162105.000000
162980.000000
163911.000000
164831.000000
165713.000000
166598.000000
167497.000000
168400.000000
169266.000000
170112.000000
171000.000000
171926.000000
172853.000000
173751.000000
174683.000000
175613.000000
176502.000000
177373.000000
178244.000000
179123.000000
179974.000000
180807.000000
181651.000000
182524.000000
183411.000000
184303.000000
185193.000000
186144.000000
187122.000000
188065.000000
188954.000000
189797.000000
190636.000000
191491.000000
192363.000000
193235.000000
194105.000000
194967.000000
195842.000000
196771.000000
197747.000000
198715.000000
199621.000000
200476.000000
201295.000000
202118.000000
202973.000000
203862.000000
204764.000000
205676.000000
206575.000000
207456.000000
208312.000000
209140.000000
209979.000000
210877.000000
211820.000000
212769.000000
213702.000000
214623.000000
215487.000000
216312.000000
217129.000000
217970.000000
218848.000000
219742.000000
220628.000000
221492.000000
222327.000000
223168.000000
224031.000000
224925.000000
225830.000000
226713.000000
227567.000000
228396.000000
229229.000000
230092.000000
230994.000000
231908.000000
232821.000000
233696.000000
234535.000000
235374.000000
236238.000000
237111.000000
237988.000000
238866.000000
239724.000000
240602.000000
241515.000000
242428.000000
243327.000000
244191.000000
245044.000000
245918.000000
246810.000000
247736.000000
248646.000000
249575.000000
250477.000000
251336.000000
252188.000000
253081.000000
254003.000000
254902.000000
255766.000000
256599.000000
257440.000000
258310.000000
259202.000000
260078.000000
260927.000000
261780.000000
262681.000000
263618.000000
264571.000000
265484.000000
266353.000000
267221.000000
268103.000000
268988.000000
269862.000000
270726.000000
271565.000000
272371.000000
273170.000000
274011.000000
274933.000000
275892.000000
276829.000000
277710.000000
278545.000000
279383.000000
280258.000000
281155.000000
282059.000000
282963.000000
283815.000000
284658.000000
285521.000000
286420.000000
287350.000000
288276.000000
289200.000000
290114.000000
290976.000000
291815.000000
292654.000000
293494.000000
294347.000000
295215.000000
296071.000000
296926.000000
297814.000000
298709.000000
299596.000000
300439.000000
301291.000000
302135.000000
302975.000000
303822.000000
304727.000000
305705.000000
306684.000000
307600.000000
308521.000000
309433.000000
310294.000000
311139.000000
312000.000000
312871.000000
313733.000000
314600.000000
315500.000000
316391.000000
317260.000000
318158.000000
319070.000000
319950.000000
320811.000000
321701.000000
322605.000000
323500.000000
324362.000000
325227.000000
326105.000000
326984.000000
327851.000000
328746.000000
329630.000000
330482.000000
331327.000000
332193.000000
333080.000000
333953.000000
334855.000000
335759.000000
336631.000000
337483.000000
338372.000000
339291.000000
340189.000000
341078.000000
341987.000000
342893.000000
343767.000000
344646.000000
345550.000000
346451.000000
347318.000000
348200.000000
349085.000000
349928.000000
350769.000000
351634.000000
352512.000000
353361.000000
354210.000000
355115.000000
356051.000000
356963.000000
357844.000000
358728.000000
359601.000000
360408.000000
361161.000000
361904.000000
362652.000000
363442.000000
364289.000000
365137.000000
365986.000000
366848.000000
367712.000000
368546.000000
369400.000000
370280.000000
371157.000000
372007.000000
372882.000000
373773.000000
374657.000000
375527.000000
376444.000000
377375.000000
378281.000000
379205.000000
380107.000000
380962.000000
381823.000000
382697.000000
383571.000000
384430.000000
385329.000000
386267.000000
387174.000000
388071.000000
388990.000000
389893.000000
390749.000000
391622.000000
392511.000000
393384.000000
394248.000000
395145.000000
396022.000000
396882.000000
397726.000000
398617.000000
399543.000000
400482.000000
401391.000000
402256.000000
403128.000000
404039.000000
404963.000000
405880.000000
406752.000000
407626.000000
408501.000000
409401.000000
410293.000000
411160.000000
412030.000000
412937.000000
413882.000000
414817.000000
415730.000000
416602.000000
417482.000000
418373.000000
419263.000000
420150.000000
421036.000000
421949.000000
422875.000000
423782.000000
424657.000000
425534.000000
426423.000000
427325.000000
428195.000000
429047.000000
429910.000000
430826.000000
431752.000000
432642.000000
433547.000000
434475.000000
435392.000000
436271.000000
437163.000000
438049.000000
438928.000000
439780.000000
440612.000000
441476.000000
442402.000000
443352.000000
444286.000000
445179.000000
446081.000000
446985.000000
447868.000000
448710.000000
449537.000000
450379.000000
451240.000000
452102.000000
452960.000000
453856.000000
454774.000000
455672.000000
456551.000000
457439.000000
458328.000000
459189.000000
460037.000000
460899.000000
461774.000000
462633.000000
463523.000000
464415.000000
465309.000000
466177.000000
467036.000000
467926.000000
468841.000000
469752.000000
470635.000000
471487.000000
472355.000000
473235.000000
474130.000000
475019.000000
475884.000000
476759.000000
477668.000000
478582.000000
479467.000000
480379.000000
481287.000000
482154.000000
483014.000000
483891.000000
484775.000000
485650.000000
486582.000000
487519.000000
488422.000000
489308.000000
490189.000000
491063.000000
491914.000000
492791.000000
493692.000000
494589.000000
495442.000000
496303.000000
497196.000000
498098.000000
498980.000000
499843.000000
500707.000000
501561.000000
502397.000000
503242.000000
504111.000000
505011.000000
505896.000000
506776.000000
507684.000000
508598.000000
509474.000000
510326.000000
511203.000000
512103.000000
512988.000000
513873.000000
514782.000000
515692.000000
516551.000000
517417.000000
518290.000000
519176.000000
520025.000000
520898.000000
521816.000000
522732.000000
523636.000000
524543.000000
525447.000000
526309.000000
527182.000000
528034.000000
528866.000000
529714.000000
530591.000000
531486.000000
532355.000000
533202.000000
534080.000000
534979.000000
535874.000000
536748.000000
537641.000000
538559.000000
539443.000000
540303.000000
541200.000000
542084.000000
542931.000000
543770.000000
544635.000000
545506.000000
546370.000000
547252.000000
548173.000000
549077.000000
549933.000000
550801.000000
551681.000000
552544.000000
553404.000000
554298.000000
555205.000000
556086.000000
556983.000000
557925.000000
558846.000000
559734.000000
560644.000000
561577.000000
562488.000000
563375.000000
564271.000000
565169.000000
566039.000000
566946.000000
567863.000000
568776.000000
569663.000000
570540.000000
571454.000000
572374.000000
573249.000000
574129.000000
575006.000000
575876.000000
576740.000000
577642.000000
578611.000000
579554.000000
580472.000000
581332.000000
582183.000000
583080.000000
584018.000000
584956.000000
585860.000000
586772.000000
587699.000000
588584.000000
589494.000000
590419.000000
591354.000000
592269.000000
593229.000000
594219.000000
595174.000000
596093.000000
597036.000000
597982.000000
598883.000000
599753.000000
600660.000000
601620.000000
602617.000000
603565.000000
604504.000000
605459.000000
606405.000000
607309.000000
608216.000000
609167.000000
610141.000000
611085.000000
612013.000000
612968.000000
613894.000000
614789.000000
615676.000000
616576.000000
617463.000000
618339.000000
619276.000000
620238.000000
621140.000000
621974.000000
622785.000000
623600.000000
624382.000000
625155.000000
625896.000000
626612.000000
627445.000000
628377.000000
629335.000000
630237.000000
631090.000000
631937.000000
632805.000000
633684.000000
634559.000000
635430.000000
636281.000000
637099.000000
637930.000000
638819.000000
639782.000000
640770.000000
641753.000000
642731.000000
643651.000000
644505.000000
645347.000000
646231.000000
647161.000000
648136.000000
649077.000000
649981.000000
650892.000000
651836.000000
652799.000000
653777.000000
654712.000000
655605.000000
656497.000000
657435.000000
658401.000000
659384.000000
660312.000000
661212.000000
662132.000000
663082.000000
664028.000000
664955.000000
665853.000000
666761.000000
667704.000000
668673.000000
669621.000000
670525.000000
671435.000000
672339.000000
673239.000000
674119.000000
674981.000000
675885.000000
676816.000000
677760.000000
678671.000000
679604.000000
680536.000000
681440.000000
682356.000000
683294.000000
684223.000000
685120.000000
686000.000000
686914.000000
687855.000000
688772.000000
689667.000000
690621.000000
691605.000000
692547.000000
693484.000000
694419.000000
695334.000000
696218.000000
697126.000000
698032.000000
698924.000000
699814.000000
700746.000000
701699.000000
702632.000000
703588.000000
704505.000000
705374.000000
706249.000000
707136.000000
708002.000000
708879.000000
709827.000000
710832.000000
711782.000000
712731.000000
713687.000000
714603.000000
715468.000000
716315.000000
717181.000000
718094.000000
719006.000000
719893.000000
720739.000000
721600.000000
722486.000000
723390.000000
724314.000000
725237.000000
726116.000000
726981.000000
727879.000000
728798.000000
729695.000000
730600.000000
731523.000000
732447.000000
733330.000000
734218.000000
735131.000000
736037.000000
736923.000000
737836.000000
738758.000000
739640.000000
740519.000000
741398.000000
742289.000000
743166.000000
744073.000000
745002.000000
745933.000000
746829.000000
747724.000000
748624.000000
749510.000000
750378.000000
751264.000000
752154.000000
753014.000000
753870.000000
754724.000000
755560.000000
756374.000000
757209.000000
758067.000000
758946.000000
759820.000000
760700.000000
761630.000000
762548.000000
763433.000000
764323.000000
765230.000000
766109.000000
766963.000000
767761.000000
768540.000000
769401.000000
770447.000000
771472.000000
772475.000000
773387.000000
774267.000000
775152.000000
776081.000000
777014.000000
777947.000000
778847.000000
779776.000000
780754.000000
781742.000000
782717.000000
783624.000000
784560.000000
785510.000000
786447.000000
787367.000000
788302.000000
789264.000000
790200.000000
791098.000000
791998.000000
792905.000000
793787.000000
794687.000000
795599.000000
796510.000000
797429.000000
798363.000000
799286.000000
800178.000000
801067.000000
801948.000000
802808.000000
803688.000000
804572.000000
805439.000000
806358.000000
807297.000000
808184.000000
809057.000000
809923.000000
810770.000000
811607.000000
812481.000000
813378.000000
814260.000000
815171.000000
816064.000000
816919.000000
817797.000000
818679.000000
819536.000000
820396.000000
821263.000000
822110.000000
822976.000000
823874.000000
824744.000000
825608.000000
826510.000000
827421.000000
828299.000000
829147.000000
829967.000000
830802.000000
831683.000000
832600.000000
833518.000000
834436.000000
835321.000000
836184.000000
837100.000000
838058.000000
839014.000000
839921.000000
840815.000000
841725.000000
842643.000000
843536.000000
844418.000000
845311.000000
846257.000000
847228.000000
848184.000000
849118.000000
850044.000000
850985.000000
851915.000000
852806.000000
853710.000000
854650.000000
855616.000000
856543.000000
857477.000000
858448.000000
859408.000000
860317.000000
861249.000000
862195.000000
863138.000000
864060.000000
865007.000000
865981.000000
866950.000000
867890.000000
868881.000000
869854.000000
870769.000000
871706.000000
872638.000000
873529.000000
874463.000000
875460.000000
876454.000000
877496.000000
878532.000000
879472.000000
880404.000000
881345.000000
882257.000000
883161.000000
884104.000000
885084.000000
886060.000000
887062.000000
888078.000000
889011.000000
889918.000000
890843.000000
891776.000000
892685.000000
893607.000000
894585.000000
895561.000000
896535.000000
897528.000000
898479.000000
899397.000000
900323.000000
901250.000000
902155.000000
903096.000000
904054.000000
904979.000000
905892.000000
906869.000000
907885.000000
908862.000000
