ECG (ms)
764.000000
1592.000000
2572.000000
3591.000000
4628.000000
5681.000000
6733.000000
7759.000000
8591.000000
9359.000000
10114.000000
10898.000000
11752.000000
12740.000000
13763.000000
14801.000000
15833.000000
16852.000000
17842.000000
18800.000000
19639.000000
20408.000000
21149.000000
21886.000000
22692.000000
23623.000000
24568.000000
25511.000000
26459.000000
27409.000000
28296.000000
29109.000000
29897.000000
30698.000000
31584.000000
32580.000000
33586.000000
34580.000000
35557.000000
36520.000000
37440.000000
38285.000000
39094.000000
39900.000000
40783.000000
41801.000000
42828.000000
43873.000000
44899.000000
45815.000000
46599.000000
47321.000000
48084.000000
48915.000000
49965.000000
51001.000000
52055.000000
53110.000000
54137.000000
55136.000000
56012.000000
56836.000000
57675.000000
58628.000000
59715.000000
60788.000000
61830.000000
62844.000000
63780.000000
64655.000000
65526.000000
66466.000000
67504.000000
68563.000000
69593.000000
70594.000000
71524.000000
72383.000000
73239.000000
74140.000000
75178.000000
76221.000000
77258.000000
78250.000000
79171.000000
80070.000000
81000.000000
82009.000000
83022.000000
84029.000000
85010.000000
85898.000000
86747.000000
87604.000000
88625.000000
89753.000000
90883.000000
91956.000000
92989.000000
93925.000000
94865.000000
95884.000000
96836.000000
97693.000000
98494.000000
99309.000000
100208.000000
101208.000000
102260.000000
103356.000000
104425.000000
105494.000000
106472.000000
107376.000000
108298.000000
109340.000000
110426.000000
111487.000000
112539.000000
113494.000000
114439.000000
115421.000000
116470.000000
117546.000000
118596.000000
119588.000000
120603.000000
121646.000000
122675.000000
123699.000000
124707.000000
125627.000000
126551.000000
127569.000000
128597.000000
129651.000000
130698.000000
131732.000000
132765.000000
133787.000000
134805.000000
135816.000000
136796.000000
137772.000000
138772.000000
139779.000000
140800.000000
141788.000000
142717.000000
143665.000000
144694.000000
145779.000000
146837.000000
147866.000000
148899.000000
149931.000000
150923.000000
151884.000000
152747.000000
153605.000000
154588.000000
155637.000000
156701.000000
157737.000000
158729.000000
159783.000000
160831.000000
161885.000000
162918.000000
163933.000000
164936.000000
165920.000000
166874.000000
167875.000000
168909.000000
169918.000000
170788.000000
171655.000000
172595.000000
173456.000000
174352.000000
175398.000000
176503.000000
177631.000000
178726.000000
179801.000000
180848.000000
181863.000000
182853.000000
183737.000000
184609.000000
185561.000000
186597.000000
187658.000000
188711.000000
189756.000000
190782.000000
191774.000000
192751.000000
193725.000000
194710.000000
195725.000000
196741.000000
197764.000000
198790.000000
199810.000000
200799.000000
201664.000000
202480.000000
203336.000000
204405.000000
205515.000000
206619.000000
207707.000000
208756.000000
209675.000000
210518.000000
211373.000000
212335.000000
213386.000000
214433.000000
215503.000000
216497.000000
217484.000000
218536.000000
219582.000000
220607.000000
221647.000000
222685.000000
223643.000000
224592.000000
225596.000000
226591.000000
227591.000000
228575.000000
229455.000000
230425.000000
231441.000000
232482.000000
233456.000000
234344.000000
235285.000000
236244.000000
237164.000000
238032.000000
238985.000000
239974.000000
240937.000000
241801.000000
242754.000000
243717.000000
244649.000000
245484.000000
246390.000000
247353.000000
248285.000000
249158.000000
250127.000000
251119.000000
252097.000000
252985.000000
253914.000000
254879.000000
255841.000000
256817.000000
257717.000000
258604.000000
259598.000000
260463.000000
261291.000000
262178.000000
263123.000000
264096.000000
264999.000000
266046.000000
267138.000000
268216.000000
269306.000000
270366.000000
271330.000000
272376.000000
273454.000000
274516.000000
275527.000000
276417.000000
277343.000000
278404.000000
279498.000000
280576.000000
281568.000000
282616.000000
283684.000000
284748.000000
285786.000000
286750.000000
287682.000000
288671.000000
289661.000000
290660.000000
291603.000000
292581.000000
293613.000000
294651.000000
295609.000000
296557.000000
297554.000000
298545.000000
299441.000000
300370.000000
301372.000000
302354.000000
303266.000000
304273.000000
305295.000000
306279.000000
307248.000000
308254.000000
309278.000000
310232.000000
311204.000000
312203.000000
313200.000000
314138.000000
315086.000000
316113.000000
317126.000000
318085.000000
319101.000000
320118.000000
321118.000000
322040.000000
323066.000000
324107.000000
325079.000000
325966.000000
326895.000000
327949.000000
329018.000000
330033.000000
330954.000000
331900.000000
332916.000000
333958.000000
334963.000000
335924.000000
336960.000000
338005.000000
339042.000000
339993.000000
341017.000000
342046.000000
343062.000000
343999.000000
344962.000000
345977.000000
347000.000000
348033.000000
348975.000000
349995.000000
351003.000000
352012.000000
353001.000000
353936.000000
354942.000000
355950.000000
356916.000000
357807.000000
358692.000000
359518.000000
360337.000000
361249.000000
362139.000000
363092.000000
364149.000000
365227.000000
366234.000000
367183.000000
368228.000000
369270.000000
370217.000000
371215.000000
372293.000000
373373.000000
374377.000000
375414.000000
376488.000000
377554.000000
378544.000000
379572.000000
380630.000000
381681.000000
382647.000000
383708.000000
384752.000000
385785.000000
386755.000000
387806.000000
388872.000000
389858.000000
390894.000000
391953.000000
392950.000000
393940.000000
394975.000000
395999.000000
396984.000000
398036.000000
399083.000000
400065.000000
401087.000000
402130.000000
403144.000000
404072.000000
405075.000000
406090.000000
407069.000000
408030.000000
409063.000000
410090.000000
411057.000000
412099.000000
413137.000000
414131.000000
415091.000000
416129.000000
417180.000000
418136.000000
419174.000000
420257.000000
421317.000000
422285.000000
423260.000000
424273.000000
425264.000000
426186.000000
427236.000000
428279.000000
429257.000000
430313.000000
431396.000000
432411.000000
433471.000000
434546.000000
435568.000000
436517.000000
437566.000000
438644.000000
439567.000000
440419.000000
441293.000000
442352.000000
443494.000000
444604.000000
445662.000000
446747.000000
447832.000000
448903.000000
449974.000000
450996.000000
452076.000000
453142.000000
454202.000000
455175.000000
456234.000000
457295.000000
458319.000000
459275.000000
460295.000000
461339.000000
462368.000000
463318.000000
464267.000000
465271.000000
466300.000000
467260.000000
468308.000000
469418.000000
470473.000000
471492.000000
472558.000000
473608.000000
474591.000000
475529.000000
476556.000000
477602.000000
478583.000000
479570.000000
480622.000000
481670.000000
482670.000000
483760.000000
484834.000000
485821.000000
486820.000000
487838.000000
488848.000000
489755.000000
490739.000000
491814.000000
492862.000000
493862.000000
494953.000000
496051.000000
497027.000000
498009.000000
499029.000000
500058.000000
501055.000000
502074.000000
503189.000000
504293.000000
505339.000000
506456.000000
507555.000000
508562.000000
509629.000000
510695.000000
511688.000000
512695.000000
513718.000000
514702.000000
515670.000000
516702.000000
517753.000000
518755.000000
519776.000000
520818.000000
521811.000000
522759.000000
523764.000000
524780.000000
525713.000000
526690.000000
527704.000000
528734.000000
529674.000000
530639.000000
531629.000000
532578.000000
533425.000000
534256.000000
535053.000000
535871.000000
536916.000000
537856.000000
538850.000000
539876.000000
540903.000000
541914.000000
542834.000000
543763.000000
544769.000000
545797.000000
546779.000000
547820.000000
548910.000000
550004.000000
551031.000000
552130.000000
553217.000000
554262.000000
555201.000000
556227.000000
557289.000000
558287.000000
559299.000000
560362.000000
561373.000000
562355.000000
563420.000000
564488.000000
565462.000000
566495.000000
567521.000000
568473.000000
569516.000000
570598.000000
571616.000000
572615.000000
573673.000000
574717.000000
575696.000000
576758.000000
577825.000000
578821.000000
579896.000000
580988.000000
581973.000000
582949.000000
583983.000000
585012.000000
585982.000000
587037.000000
588089.000000
589063.000000
590097.000000
591164.000000
592190.000000
593159.000000
594186.000000
595225.000000
596200.000000
597242.000000
598288.000000
599305.000000
600224.000000
601226.000000
602339.000000
603444.000000
604445.000000
605557.000000
606645.000000
607642.000000
608753.000000
609899.000000
610956.000000
612100.000000
613226.000000
614253.000000
615339.000000
616455.000000
617491.000000
618503.000000
619592.000000
620681.000000
621672.000000
622708.000000
623767.000000
624798.000000
625793.000000
626853.000000
627916.000000
628933.000000
629879.000000
630911.000000
631959.000000
632928.000000
633871.000000
634850.000000
635797.000000
636640.000000
637480.000000
638457.000000
639534.000000
640479.000000
641338.000000
642266.000000
643207.000000
644111.000000
645108.000000
646107.000000
647086.000000
647988.000000
648968.000000
649974.000000
650940.000000
651896.000000
652906.000000
653909.000000
654852.000000
655824.000000
656850.000000
657874.000000
658819.000000
659816.000000
660805.000000
661779.000000
662743.000000
663768.000000
664791.000000
665765.000000
666795.000000
667840.000000
668860.000000
669777.000000
670733.000000
671716.000000
672624.000000
673485.000000
674474.000000
675555.000000
676657.000000
677684.000000
678695.000000
679755.000000
680839.000000
681867.000000
682833.000000
683867.000000
684903.000000
685857.000000
686878.000000
687896.000000
688903.000000
689818.000000
690765.000000
691718.000000
692682.000000
693585.000000
694590.000000
695609.000000
696565.000000
697534.000000
698538.000000
699539.000000
700461.000000
701467.000000
702517.000000
703544.000000
704491.000000
705433.000000
706407.000000
707409.000000
708352.000000
709409.000000
710467.000000
711430.000000
712414.000000
713463.000000
714468.000000
715409.000000
716447.000000
717500.000000
718500.000000
719395.000000
720353.000000
721390.000000
722364.000000
723351.000000
724467.000000
725579.000000
726625.000000
727719.000000
728824.000000
729886.000000
730892.000000
731919.000000
732934.000000
733800.000000
734572.000000
735359.000000
736445.000000
737591.000000
738730.000000
739759.000000
740824.000000
741923.000000
743021.000000
744024.000000
745067.000000
746110.000000
747146.000000
748084.000000
749086.000000
750106.000000
751064.000000
752076.000000
753115.000000
754153.000000
755109.000000
756116.000000
757137.000000
758153.000000
759109.000000
760087.000000
761104.000000
762113.000000
763049.000000
763991.000000
765027.000000
766054.000000
767019.000000
768016.000000
769056.000000
770022.000000
770970.000000
772042.000000
773111.000000
774059.000000
775112.000000
776204.000000
777273.000000
778241.000000
779280.000000
780324.000000
781308.000000
782277.000000
783346.000000
784409.000000
785396.000000
786378.000000
787455.000000
788510.000000
789503.000000
790554.000000
791636.000000
792700.000000
793666.000000
794635.000000
795644.000000
796669.000000
797679.000000
798607.000000
799616.000000
800639.000000
801560.000000
802441.000000
803409.000000
804385.000000
805294.000000
806285.000000
807258.000000
808230.000000
809118.000000
809954.000000
810757.000000
811554.000000
812412.000000
813234.000000
814189.000000
815190.000000
816093.000000
816938.000000
817781.000000
818622.000000
819586.000000
820612.000000
821648.000000
822656.000000
823610.000000
824475.000000
825413.000000
826413.000000
827435.000000
828419.000000
829450.000000
830495.000000
831534.000000
832532.000000
833546.000000
834533.000000
835511.000000
836473.000000
837450.000000
838432.000000
839416.000000
840430.000000
841427.000000
842440.000000
843451.000000
844447.000000
845394.000000
846341.000000
847354.000000
848373.000000
849320.000000
850190.000000
851179.000000
852227.000000
853181.000000
854193.000000
855251.000000
856252.000000
857194.000000
858216.000000
859225.000000
860162.000000
861175.000000
862188.000000
863181.000000
864132.000000
865101.000000
866100.000000
867094.000000
868090.000000
869035.000000
870003.000000
871001.000000
872005.000000
872939.000000
873962.000000
874997.000000
875917.000000
876805.000000
877775.000000
878716.000000
879573.000000
880542.000000
881514.000000
882400.000000
883207.000000
884022.000000
884925.000000
885874.000000
886859.000000
887792.000000
888728.000000
889728.000000
890717.000000
891673.000000
892549.000000
893527.000000
894516.000000
895487.000000
896433.000000
897460.000000
898490.000000
899436.000000
900435.000000
901434.000000
902382.000000
903345.000000
904344.000000
905326.000000
906228.000000
907212.000000
908213.000000
909208.000000
910162.000000
911184.000000
912210.000000
913218.000000
914199.000000
915230.000000
