ECG (ms)
97.000000
1247.000000
2291.000000
3189.000000
4185.000000
5236.000000
6165.000000
7338.000000
8413.000000
9349.000000
10197.000000
11330.000000
12470.000000
13547.000000
14469.000000
15558.000000
16665.000000
17724.000000
18658.000000
19600.000000
20712.000000
21788.000000
22764.000000
23663.000000
24859.000000
25940.000000
26898.000000
27853.000000
28989.000000
30020.000000
30936.000000
31831.000000
32923.000000
34008.000000
35038.000000
35974.000000
37015.000000
38094.000000
39057.000000
39968.000000
40950.000000
42006.000000
43001.000000
43903.000000
44980.000000
46061.000000
47108.000000
48055.000000
49058.000000
50158.000000
51263.000000
52249.000000
53158.000000
54223.000000
55301.000000
56260.000000
57200.000000
58356.000000
59468.000000
60437.000000
61327.000000
62465.000000
63556.000000
64495.000000
65492.000000
66665.000000
67739.000000
68641.000000
69739.000000
70845.000000
71861.000000
72799.000000
73958.000000
75057.000000
75947.000000
76856.000000
77993.000000
79112.000000
80034.000000
81063.000000
82175.000000
83201.000000
84179.000000
85274.000000
86371.000000
87336.000000
88251.000000
89240.000000
90255.000000
91152.000000
92041.000000
93051.000000
94110.000000
95073.000000
96068.000000
97163.000000
98192.000000
99080.000000
100001.000000
101106.000000
102161.000000
103125.000000
104165.000000
105229.000000
106249.000000
107257.000000
108183.000000
109059.000000
110062.000000
111145.000000
112207.000000
113147.000000
114144.000000
115202.000000
116196.000000
117084.000000
118066.000000
119205.000000
120251.000000
121203.000000
122272.000000
123375.000000
124431.000000
125346.000000
126271.000000
127346.000000
128359.000000
129239.000000
130261.000000
131396.000000
132379.000000
133268.000000
134383.000000
135468.000000
136402.000000
137367.000000
138442.000000
139467.000000
140374.000000
141456.000000
142525.000000
143532.000000
144427.000000
145425.000000
146452.000000
147487.000000
148399.000000
149330.000000
150474.000000
151488.000000
152367.000000
153321.000000
154413.000000
155378.000000
156227.000000
157272.000000
158354.000000
159318.000000
160170.000000
161192.000000
162321.000000
163271.000000
164255.000000
165331.000000
166302.000000
167182.000000
168250.000000
169350.000000
170309.000000
171230.000000
172298.000000
173380.000000
174334.000000
175347.000000
176431.000000
177487.000000
178373.000000
179432.000000
180560.000000
181541.000000
182495.000000
183644.000000
184696.000000
185684.000000
186564.000000
187741.000000
188920.000000
189964.000000
190977.000000
192054.000000
193113.000000
194038.000000
194963.000000
196016.000000
197001.000000
197852.000000
198709.000000
199727.000000
200734.000000
201623.000000
202581.000000
203679.000000
204667.000000
205548.000000
206475.000000
207486.000000
208446.000000
209307.000000
210220.000000
211286.000000
212333.000000
213254.000000
214175.000000
215214.000000
216235.000000
217157.000000
218136.000000
219184.000000
220175.000000
221056.000000
221999.000000
223040.000000
223983.000000
224819.000000
225822.000000
226895.000000
227888.000000
228777.000000
229864.000000
230927.000000
231892.000000
232762.000000
233829.000000
234912.000000
235917.000000
236816.000000
237765.000000
238807.000000
239745.000000
240620.000000
241673.000000
242782.000000
243747.000000
244606.000000
245544.000000
246606.000000
247631.000000
248535.000000
249462.000000
250523.000000
251595.000000
252550.000000
253434.000000
254423.000000
255428.000000
256457.000000
257304.000000
258243.000000
259295.000000
260274.000000
261133.000000
262050.000000
262874.000000
263594.000000
264314.000000
265464.000000
266530.000000
267519.000000
268363.000000
269241.000000
270219.000000
271243.000000
272185.000000
273100.000000
274180.000000
275264.000000
276205.000000
277132.000000
278184.000000
279249.000000
280269.000000
281167.000000
282249.000000
283324.000000
284350.000000
285255.000000
286275.000000
287349.000000
288357.000000
289264.000000
290326.000000
291478.000000
292539.000000
293434.000000
294341.000000
295608.000000
296784.000000
297808.000000
298845.000000
299946.000000
300990.000000
301845.000000
302751.000000
303830.000000
304866.000000
305768.000000
306853.000000
308012.000000
308992.000000
309935.000000
310999.000000
312114.000000
313085.000000
314016.000000
315128.000000
316223.000000
317219.000000
318161.000000
319208.000000
320279.000000
321238.000000
322145.000000
323182.000000
324254.000000
325228.000000
326120.000000
327142.000000
328218.000000
329264.000000
330153.000000
331152.000000
332228.000000
333177.000000
334117.000000
335201.000000
336261.000000
337206.000000
338222.000000
339331.000000
340349.000000
341284.000000
342368.000000
343456.000000
344436.000000
345336.000000
346516.000000
347662.000000
348645.000000
349511.000000
350646.000000
351792.000000
352805.000000
353889.000000
355019.000000
356062.000000
356995.000000
358078.000000
359196.000000
360213.000000
361111.000000
362267.000000
363412.000000
364428.000000
365436.000000
366617.000000
367732.000000
368703.000000
369744.000000
370893.000000
372003.000000
373000.000000
374126.000000
375255.000000
376287.000000
377175.000000
378082.000000
379096.000000
380171.000000
381114.000000
382162.000000
383287.000000
384366.000000
385292.000000
386253.000000
387337.000000
388480.000000
389447.000000
390482.000000
391647.000000
392732.000000
393690.000000
394546.000000
395572.000000
396779.000000
397845.000000
398735.000000
399823.000000
400937.000000
401957.000000
402850.000000
403768.000000
404913.000000
405972.000000
406887.000000
407809.000000
408886.000000
409889.000000
410814.000000
411993.000000
413079.000000
414103.000000
415009.000000
416004.000000
417044.000000
418100.000000
419145.000000
420091.000000
421015.000000
422233.000000
423377.000000
424375.000000
425189.000000
426200.000000
427399.000000
428473.000000
429356.000000
430327.000000
431422.000000
432474.000000
433405.000000
434539.000000
435710.000000
436815.000000
437799.000000
438729.000000
439842.000000
440931.000000
441848.000000
442913.000000
443994.000000
445014.000000
445897.000000
446785.000000
447932.000000
449038.000000
450109.000000
451030.000000
452007.000000
453072.000000
454042.000000
454893.000000
455931.000000
456935.000000
457893.000000
458749.000000
459684.000000
460794.000000
461779.000000
462678.000000
463675.000000
464667.000000
465566.000000
466360.000000
467175.000000
468369.000000
469395.000000
470285.000000
471264.000000
472378.000000
473427.000000
474304.000000
475175.000000
476256.000000
477273.000000
478163.000000
479153.000000
480190.000000
481183.000000
482062.000000
483043.000000
484166.000000
485133.000000
485946.000000
486830.000000
487696.000000
488460.000000
489179.000000
490177.000000
491357.000000
492451.000000
493405.000000
494226.000000
495191.000000
496230.000000
497226.000000
498082.000000
499089.000000
500207.000000
501161.000000
502029.000000
503034.000000
504065.000000
504960.000000
505867.000000
507005.000000
507990.000000
508918.000000
509972.000000
510987.000000
511939.000000
512873.000000
514010.000000
515093.000000
516120.000000
517012.000000
518051.000000
519113.000000
520131.000000
521048.000000
521947.000000
523123.000000
524211.000000
525189.000000
526192.000000
527290.000000
528359.000000
529412.000000
530425.000000
531355.000000
532545.000000
533708.000000
534797.000000
535764.000000
536894.000000
538016.000000
538996.000000
539978.000000
541175.000000
542309.000000
543329.000000
544348.000000
545569.000000
546528.000000
547306.000000
548089.000000
549433.000000
550618.000000
551625.000000
552480.000000
553687.000000
554812.000000
555803.000000
556764.000000
557826.000000
558844.000000
559892.000000
560901.000000
561947.000000
563024.000000
564069.000000
565120.000000
566116.000000
567006.000000
568092.000000
569234.000000
570247.000000
571284.000000
572299.000000
573296.000000
574299.000000
575199.000000
576225.000000
577311.000000
578344.000000
579437.000000
580496.000000
581545.000000
582550.000000
583567.000000
584615.000000
585649.000000
586731.000000
587789.000000
588795.000000
589753.000000
590701.000000
591831.000000
593038.000000
594049.000000
595047.000000
596177.000000
597287.000000
598244.000000
599304.000000
600486.000000
601624.000000
602669.000000
603548.000000
604466.000000
605430.000000
606425.000000
607282.000000
608038.000000
608815.000000
610100.000000
611199.000000
612101.000000
612974.000000
614136.000000
615210.000000
616226.000000
617244.000000
618271.000000
619352.000000
620412.000000
621476.000000
622575.000000
623609.000000
624544.000000
625637.000000
626741.000000
627791.000000
628791.000000
629797.000000
630885.000000
631914.000000
632945.000000
633913.000000
634924.000000
636077.000000
637157.000000
638180.000000
639080.000000
639964.000000
641182.000000
642291.000000
643244.000000
644218.000000
645287.000000
646286.000000
647195.000000
648237.000000
649247.000000
650238.000000
651129.000000
652073.000000
653241.000000
654334.000000
655314.000000
656440.000000
657493.000000
658505.000000
659429.000000
660429.000000
661539.000000
662634.000000
663613.000000
664622.000000
665704.000000
666760.000000
667719.000000
668740.000000
669743.000000
670708.000000
671575.000000
672502.000000
673633.000000
674684.000000
675619.000000
676538.000000
677566.000000
678572.000000
679537.000000
680609.000000
681690.000000
682752.000000
683792.000000
684791.000000
685692.000000
686739.000000
687862.000000
688725.000000
689467.000000
690191.000000
690903.000000
691669.000000
692966.000000
694104.000000
695180.000000
696075.000000
696906.000000
697986.000000
698928.000000
699750.000000
700675.000000
701843.000000
702808.000000
703678.000000
704780.000000
705833.000000
706823.000000
707775.000000
708717.000000
709645.000000
710587.000000
711493.000000
712468.000000
713435.000000
714433.000000
715439.000000
716390.000000
717319.000000
718303.000000
719365.000000
720402.000000
721402.000000
722373.000000
723314.000000
724413.000000
725578.000000
726669.000000
727726.000000
728691.000000
729855.000000
730991.000000
732049.000000
732974.000000
733895.000000
735153.000000
736356.000000
737361.000000
738553.000000
739723.000000
740727.000000
741569.000000
742449.000000
743627.000000
744516.000000
745643.000000
746778.000000
747842.000000
748859.000000
749997.000000
751078.000000
752028.000000
753164.000000
754265.000000
755327.000000
756292.000000
757428.000000
758577.000000
759669.000000
760703.000000
761725.000000
762668.000000
763643.000000
764865.000000
765961.000000
766862.000000
767938.000000
768963.000000
769975.000000
770868.000000
771782.000000
772601.000000
773357.000000
774070.000000
774803.000000
776031.000000
777158.000000
778239.000000
779300.000000
780343.000000
781316.000000
782247.000000
783294.000000
784209.000000
785063.000000
786228.000000
787357.000000
788414.000000
789394.000000
790505.000000
791616.000000
792711.000000
793777.000000
794777.000000
795931.000000
797107.000000
798226.000000
799230.000000
800338.000000
801381.000000
802307.000000
803154.000000
804371.000000
805503.000000
806573.000000
807698.000000
808819.000000
809860.000000
810884.000000
811852.000000
812919.000000
814217.000000
815395.000000
816404.000000
817566.000000
818709.000000
819817.000000
820792.000000
821826.000000
823021.000000
824131.000000
825096.000000
826347.000000
827511.000000
828635.000000
829664.000000
830725.000000
831784.000000
832737.000000
833898.000000
835055.000000
836108.000000
837102.000000
838012.000000
839227.000000
840448.000000
841566.000000
842598.000000
843553.000000
844633.000000
845693.000000
846660.000000
847630.000000
848836.000000
849981.000000
851051.000000
852087.000000
852980.000000
853970.000000
855159.000000
856154.000000
857142.000000
858289.000000
859329.000000
860222.000000
861362.000000
862337.000000
863339.000000
