ECG (ms)
418.000000
1235.000000
2646.000000
3896.000000
5038.000000
6039.000000
6945.000000
7819.000000
8685.000000
9488.000000
10272.000000
11049.000000
11932.000000
13331.000000
14549.000000
15655.000000
16641.000000
17574.000000
18484.000000
19367.000000
20220.000000
21041.000000
21911.000000
22829.000000
23788.000000
24654.000000
25480.000000
26322.000000
27239.000000
28179.000000
29111.000000
30012.000000
30859.000000
31683.000000
32507.000000
33359.000000
34312.000000
35362.000000
36403.000000
37360.000000
38206.000000
39033.000000
39875.000000
40784.000000
41710.000000
42669.000000
43545.000000
44379.000000
45203.000000
46058.000000
47020.000000
48068.000000
49095.000000
50043.000000
50895.000000
51730.000000
52574.000000
53477.000000
54423.000000
55385.000000
56349.000000
57202.000000
58017.000000
58823.000000
59624.000000
60537.000000
61689.000000
62701.000000
63657.000000
64519.000000
65353.000000
66196.000000
67066.000000
68037.000000
69085.000000
70082.000000
71033.000000
71959.000000
72804.000000
73622.000000
74455.000000
75317.000000
76300.000000
77292.000000
78259.000000
79157.000000
79983.000000
80786.000000
81567.000000
82359.000000
83609.000000
84701.000000
85689.000000
86610.000000
87453.000000
88275.000000
89108.000000
89995.000000
90904.000000
91848.000000
92715.000000
93541.000000
94372.000000
95253.000000
96207.000000
97149.000000
98085.000000
98989.000000
99844.000000
100686.000000
101569.000000
102559.000000
103724.000000
104721.000000
105578.000000
106392.000000
107178.000000
108014.000000
109274.000000
110329.000000
111307.000000
112182.000000
113014.000000
113835.000000
114663.000000
115542.000000
116686.000000
117744.000000
118711.000000
119604.000000
120446.000000
121273.000000
122111.000000
122962.000000
123840.000000
124889.000000
125865.000000
126777.000000
127624.000000
128448.000000
129265.000000
130061.000000
130945.000000
132183.000000
133306.000000
134270.000000
135156.000000
135952.000000
136709.000000
137467.000000
138255.000000
139097.000000
140336.000000
141386.000000
142299.000000
143155.000000
143968.000000
144777.000000
145561.000000
146450.000000
147505.000000
148428.000000
149307.000000
150097.000000
150859.000000
151619.000000
152499.000000
153715.000000
154689.000000
155589.000000
156433.000000
157264.000000
158102.000000
158925.000000
159764.000000
160712.000000
161639.000000
162552.000000
163444.000000
164286.000000
165103.000000
165917.000000
166727.000000
167637.000000
168548.000000
169466.000000
170400.000000
171333.000000
172176.000000
172987.000000
173799.000000
174635.000000
175560.000000
176619.000000
177647.000000
178610.000000
179454.000000
180268.000000
181078.000000
181886.000000
182870.000000
184084.000000
185182.000000
186211.000000
187166.000000
188097.000000
189013.000000
189940.000000
190877.000000
191767.000000
192613.000000
193433.000000
194266.000000
195172.000000
196339.000000
197334.000000
198234.000000
199061.000000
199882.000000
200729.000000
201646.000000
202587.000000
203553.000000
204465.000000
205330.000000
206180.000000
207043.000000
208014.000000
208928.000000
209829.000000
210721.000000
211570.000000
212406.000000
213234.000000
214070.000000
214951.000000
216000.000000
217026.000000
217982.000000
218892.000000
219757.000000
220569.000000
221373.000000
222162.000000
222980.000000
223998.000000
225212.000000
226276.000000
227227.000000
228106.000000
228968.000000
229836.000000
230683.000000
231513.000000
232333.000000
233157.000000
234021.000000
234922.000000
235865.000000
236877.000000
237996.000000
239047.000000
239971.000000
240869.000000
241745.000000
242592.000000
243412.000000
244223.000000
245006.000000
245823.000000
246696.000000
247937.000000
249019.000000
249956.000000
250860.000000
251730.000000
252564.000000
253379.000000
254172.000000
254954.000000
255832.000000
257075.000000
258109.000000
259049.000000
259955.000000
260798.000000
261612.000000
262416.000000
263194.000000
263992.000000
264850.000000
265846.000000
266898.000000
268098.000000
269134.000000
270012.000000
270849.000000
271681.000000
272464.000000
273227.000000
273983.000000
274767.000000
275726.000000
276989.000000
278082.000000
279012.000000
279872.000000
280694.000000
281500.000000
282256.000000
283068.000000
284327.000000
285441.000000
286459.000000
287366.000000
288229.000000
289056.000000
289876.000000
290700.000000
291541.000000
292514.000000
293473.000000
294418.000000
295387.000000
296362.000000
297289.000000
298137.000000
298962.000000
299786.000000
300607.000000
301521.000000
302765.000000
303854.000000
304878.000000
305811.000000
306714.000000
307590.000000
308471.000000
309362.000000
310230.000000
311067.000000
311889.000000
312716.000000
313568.000000
314493.000000
315355.000000
316194.000000
317018.000000
317813.000000
318613.000000
319413.000000
320232.000000
321033.000000
321816.000000
322577.000000
323340.000000
324115.000000
324983.000000
325934.000000
326825.000000
327696.000000
328546.000000
329379.000000
330200.000000
331026.000000
331872.000000
332656.000000
333422.000000
334169.000000
334949.000000
335792.000000
336670.000000
337534.000000
338367.000000
339194.000000
340010.000000
340817.000000
341620.000000
342435.000000
343258.000000
344091.000000
344889.000000
345669.000000
346423.000000
347224.000000
348064.000000
348951.000000
349815.000000
350628.000000
351408.000000
352172.000000
352919.000000
353667.000000
354401.000000
355123.000000
355882.000000
356679.000000
357495.000000
358300.000000
359059.000000
359808.000000
360574.000000
361530.000000
362444.000000
363329.000000
364201.000000
365113.000000
365953.000000
366755.000000
367555.000000
368445.000000
369397.000000
370390.000000
371226.000000
372010.000000
372800.000000
373683.000000
374961.000000
376055.000000
377087.000000
378011.000000
378863.000000
379689.000000
380514.000000
381362.000000
382397.000000
383494.000000
384477.000000
385429.000000
386324.000000
387190.000000
388030.000000
388879.000000
389767.000000
390861.000000
391938.000000
392911.000000
393816.000000
394673.000000
395506.000000
396335.000000
397185.000000
398093.000000
399202.000000
400338.000000
401366.000000
402335.000000
403264.000000
404177.000000
405075.000000
405975.000000
406832.000000
407673.000000
408505.000000
409342.000000
410237.000000
411338.000000
412305.000000
413238.000000
414142.000000
414983.000000
415840.000000
416683.000000
417530.000000
418377.000000
419189.000000
419972.000000
420725.000000
421527.000000
422500.000000
423421.000000
424286.000000
425124.000000
425940.000000
426760.000000
427574.000000
428386.000000
429172.000000
429989.000000
430803.000000
431629.000000
432427.000000
433217.000000
434040.000000
434869.000000
435712.000000
436542.000000
437375.000000
438212.000000
439043.000000
439861.000000
440674.000000
441512.000000
442315.000000
443081.000000
443829.000000
444639.000000
445492.000000
446379.000000
447252.000000
448079.000000
448884.000000
449720.000000
450566.000000
451415.000000
452253.000000
453054.000000
453849.000000
454667.000000
455521.000000
456371.000000
457219.000000
458013.000000
458788.000000
459567.000000
460392.000000
461232.000000
462083.000000
462933.000000
463820.000000
464698.000000
465579.000000
466469.000000
467310.000000
468110.000000
468893.000000
469752.000000
471049.000000
472159.000000
473152.000000
474078.000000
474951.000000
475797.000000
476633.000000
477489.000000
478410.000000
479458.000000
480434.000000
481392.000000
482283.000000
483114.000000
483949.000000
484837.000000
485746.000000
486680.000000
487650.000000
488565.000000
489440.000000
490308.000000
491162.000000
492024.000000
492975.000000
493916.000000
494859.000000
495797.000000
496672.000000
497519.000000
498397.000000
499299.000000
500207.000000
501085.000000
501942.000000
502840.000000
503801.000000
504781.000000
505735.000000
506617.000000
507478.000000
508332.000000
509191.000000
510114.000000
511130.000000
512070.000000
512983.000000
513860.000000
514721.000000
515574.000000
516434.000000
517302.000000
518274.000000
519395.000000
520443.000000
521419.000000
522355.000000
523255.000000
524110.000000
524945.000000
525790.000000
526706.000000
527843.000000
528992.000000
530045.000000
531009.000000
531938.000000
532858.000000
533762.000000
534652.000000
535510.000000
536372.000000
537278.000000
538360.000000
539433.000000
540442.000000
541391.000000
542302.000000
543218.000000
544138.000000
545072.000000
546020.000000
546922.000000
547792.000000
548671.000000
549613.000000
550562.000000
551506.000000
552436.000000
553297.000000
554122.000000
554951.000000
555836.000000
556781.000000
557843.000000
558869.000000
559928.000000
560852.000000
561719.000000
562559.000000
563428.000000
564397.000000
565429.000000
566460.000000
567405.000000
568346.000000
569280.000000
570197.000000
571105.000000
572022.000000
572945.000000
573885.000000
574839.000000
575826.000000
576816.000000
577781.000000
578727.000000
579651.000000
580585.000000
581487.000000
582336.000000
583166.000000
584025.000000
585000.000000
586021.000000
586994.000000
587909.000000
588778.000000
589595.000000
590431.000000
591299.000000
592213.000000
593126.000000
594045.000000
594971.000000
595851.000000
596707.000000
597581.000000
598452.000000
599308.000000
600108.000000
600899.000000
601737.000000
602719.000000
603823.000000
604795.000000
605737.000000
606664.000000
607596.000000
608512.000000
609415.000000
610358.000000
611299.000000
612248.000000
613182.000000
614047.000000
614837.000000
615608.000000
616424.000000
617326.000000
618242.000000
619126.000000
620020.000000
620862.000000
621673.000000
622486.000000
623471.000000
624493.000000
625420.000000
626327.000000
627229.000000
628103.000000
629006.000000
629916.000000
630851.000000
631772.000000
632679.000000
633570.000000
634439.000000
635334.000000
636232.000000
637120.000000
637971.000000
638790.000000
639601.000000
640522.000000
641620.000000
642695.000000
643625.000000
644543.000000
645403.000000
646223.000000
646992.000000
647749.000000
648509.000000
649395.000000
650714.000000
651790.000000
652735.000000
653589.000000
654429.000000
655260.000000
656155.000000
657133.000000
658162.000000
659253.000000
660258.000000
661221.000000
662163.000000
663076.000000
663943.000000
664800.000000
665649.000000
666545.000000
667657.000000
668772.000000
669798.000000
670765.000000
671690.000000
672620.000000
673556.000000
674500.000000
675445.000000
676314.000000
677156.000000
678004.000000
678941.000000
680079.000000
681170.000000
682135.000000
683096.000000
684026.000000
684892.000000
685758.000000
686672.000000
687645.000000
688622.000000
689619.000000
690557.000000
691446.000000
692319.000000
693187.000000
694137.000000
695162.000000
696189.000000
697184.000000
698160.000000
699116.000000
700063.000000
701004.000000
701930.000000
702854.000000
703822.000000
704780.000000
705735.000000
706702.000000
707692.000000
708604.000000
709458.000000
710286.000000
711117.000000
712037.000000
712983.000000
713909.000000
714793.000000
715687.000000
716557.000000
717365.000000
718135.000000
718873.000000
719626.000000
720510.000000
721806.000000
722911.000000
723956.000000
724924.000000
725831.000000
726729.000000
727647.000000
728603.000000
729570.000000
730571.000000
731530.000000
732439.000000
733340.000000
734373.000000
735392.000000
736366.000000
737302.000000
738172.000000
739015.000000
739859.000000
740789.000000
741782.000000
742828.000000
743876.000000
744855.000000
745801.000000
746746.000000
747665.000000
748578.000000
749443.000000
750290.000000
751153.000000
752104.000000
753167.000000
754234.000000
755234.000000
756194.000000
757121.000000
758040.000000
758951.000000
759858.000000
760722.000000
761570.000000
762470.000000
763823.000000
764970.000000
765999.000000
766929.000000
767829.000000
768741.000000
769639.000000
770557.000000
771517.000000
772466.000000
773356.000000
774201.000000
775036.000000
775879.000000
776901.000000
777885.000000
778969.000000
779964.000000
780884.000000
781763.000000
782614.000000
783477.000000
784471.000000
785739.000000
786849.000000
787849.000000
788788.000000
789701.000000
790583.000000
791418.000000
792254.000000
793145.000000
794050.000000
794976.000000
795915.000000
796764.000000
797613.000000
798479.000000
799336.000000
800206.000000
801084.000000
801971.000000
802866.000000
803764.000000
804671.000000
805566.000000
806437.000000
807337.000000
808216.000000
809138.000000
810046.000000
810957.000000
811867.000000
812738.000000
813545.000000
814314.000000
815061.000000
815867.000000
816769.000000
817739.000000
818642.000000
819464.000000
820297.000000
821157.000000
822057.000000
822959.000000
823834.000000
824723.000000
825623.000000
826548.000000
827450.000000
828355.000000
829278.000000
830226.000000
831182.000000
832144.000000
833044.000000
833866.000000
834675.000000
835506.000000
836836.000000
837891.000000
838815.000000
839654.000000
840483.000000
841297.000000
842182.000000
843091.000000
844016.000000
844948.000000
845852.000000
846750.000000
847680.000000
848636.000000
849571.000000
850519.000000
851448.000000
852379.000000
853276.000000
854170.000000
855066.000000
855961.000000
856780.000000
857579.000000
858374.000000
859332.000000
860443.000000
861475.000000
862362.000000
863265.000000
864146.000000
865026.000000
865913.000000
866841.000000
867768.000000
868825.000000
869895.000000
870830.000000
871638.000000
872428.000000
873214.000000
874209.000000
875582.000000
876745.000000
877806.000000
878827.000000
879834.000000
880756.000000
881638.000000
882474.000000
883309.000000
884150.000000
885145.000000
886495.000000
887620.000000
888713.000000
889709.000000
890662.000000
891566.000000
892474.000000
893377.000000
894235.000000
895086.000000
896028.000000
897107.000000
898191.000000
899217.000000
900209.000000
901146.000000
902036.000000
902944.000000
903877.000000
904875.000000
905903.000000
906954.000000
907873.000000
908816.000000
909801.000000
910938.000000
911965.000000
912857.000000
913688.000000
914509.000000
915343.000000
916350.000000
917685.000000
918700.000000
919678.000000
920521.000000
