ECG (ms)
395.000000
1170.000000
1913.000000
2628.000000
3390.000000
4198.000000
5003.000000
5819.000000
6621.000000
7433.000000
8205.000000
8939.000000
9710.000000
10498.000000
11318.000000
12116.000000
12875.000000
13638.000000
14441.000000
15242.000000
16032.000000
16773.000000
17509.000000
18247.000000
19027.000000
19802.000000
20580.000000
21384.000000
22165.000000
22904.000000
23645.000000
24408.000000
25154.000000
25876.000000
26608.000000
27351.000000
28127.000000
28905.000000
29712.000000
30536.000000
31353.000000
32120.000000
32886.000000
33646.000000
34419.000000
35164.000000
35897.000000
36665.000000
37433.000000
38182.000000
38922.000000
39693.000000
40470.000000
41258.000000
42040.000000
42823.000000
43618.000000
44405.000000
45162.000000
45920.000000
46713.000000
47537.000000
48365.000000
49177.000000
49991.000000
50804.000000
51599.000000
52435.000000
53279.000000
54118.000000
54896.000000
55633.000000
56405.000000
57245.000000
58111.000000
58930.000000
59751.000000
60625.000000
61501.000000
62351.000000
63221.000000
64140.000000
65081.000000
65993.000000
66862.000000
67723.000000
68578.000000
69446.000000
70276.000000
71159.000000
72047.000000
72920.000000
73734.000000
74538.000000
75369.000000
76196.000000
76988.000000
77797.000000
78673.000000
79564.000000
80379.000000
81152.000000
81985.000000
82857.000000
83713.000000
84527.000000
85365.000000
86213.000000
87043.000000
87834.000000
88634.000000
89486.000000
90371.000000
91308.000000
92185.000000
93053.000000
93926.000000
94781.000000
95589.000000
96418.000000
97304.000000
98212.000000
99122.000000
99989.000000
100846.000000
101728.000000
102611.000000
103477.000000
104351.000000
105290.000000
106241.000000
107181.000000
108106.000000
108995.000000
109851.000000
110712.000000
111620.000000
112527.000000
113400.000000
114276.000000
115166.000000
116019.000000
116788.000000
117586.000000
118435.000000
119331.000000
120235.000000
121161.000000
122083.000000
122980.000000
123818.000000
124624.000000
125438.000000
126287.000000
127145.000000
127963.000000
128753.000000
129582.000000
130452.000000
131280.000000
132107.000000
132987.000000
133883.000000
134727.000000
135527.000000
136364.000000
137258.000000
138180.000000
139061.000000
139886.000000
140736.000000
141594.000000
142446.000000
143241.000000
144036.000000
144882.000000
145740.000000
146586.000000
147465.000000
148349.000000
149211.000000
150011.000000
150827.000000
151671.000000
152533.000000
153373.000000
154267.000000
155158.000000
156040.000000
156833.000000
157635.000000
158450.000000
159292.000000
160108.000000
160955.000000
161842.000000
162750.000000
163634.000000
164476.000000
165339.000000
166204.000000
167069.000000
167905.000000
168743.000000
169609.000000
170483.000000
171362.000000
172191.000000
173034.000000
173892.000000
174746.000000
175562.000000
176377.000000
177228.000000
178043.000000
178816.000000
179627.000000
180484.000000
181361.000000
182167.000000
182971.000000
183822.000000
184722.000000
185585.000000
186435.000000
187303.000000
188194.000000
189084.000000
189936.000000
190771.000000
191653.000000
192556.000000
193405.000000
194181.000000
194960.000000
195761.000000
196588.000000
197388.000000
198214.000000
199083.000000
199976.000000
200805.000000
201629.000000
202470.000000
203354.000000
204222.000000
205035.000000
205856.000000
206718.000000
207581.000000
208378.000000
209140.000000
209925.000000
210742.000000
211540.000000
212321.000000
213109.000000
213920.000000
214739.000000
215506.000000
216283.000000
217072.000000
217871.000000
218632.000000
219384.000000
220177.000000
220997.000000
221829.000000
222630.000000
223455.000000
224283.000000
225106.000000
225883.000000
226637.000000
227426.000000
228265.000000
229129.000000
229955.000000
230775.000000
231627.000000
232458.000000
233225.000000
233986.000000
234791.000000
235624.000000
236454.000000
237257.000000
238091.000000
238933.000000
239762.000000
240538.000000
241316.000000
242158.000000
243036.000000
243883.000000
244684.000000
245466.000000
246255.000000
247081.000000
247854.000000
248656.000000
249544.000000
250471.000000
251406.000000
252254.000000
253079.000000
253925.000000
254779.000000
255633.000000
256425.000000
257212.000000
258026.000000
258862.000000
259699.000000
260547.000000
261421.000000
262333.000000
263248.000000
264094.000000
264929.000000
265778.000000
266664.000000
267517.000000
268359.000000
269245.000000
270154.000000
271063.000000
271932.000000
272744.000000
273626.000000
274574.000000
275528.000000
276444.000000
277264.000000
278054.000000
278850.000000
279677.000000
280453.000000
281209.000000
282003.000000
282883.000000
283751.000000
284547.000000
285363.000000
286221.000000
287139.000000
287974.000000
288794.000000
289647.000000
290497.000000
291319.000000
292115.000000
292960.000000
293857.000000
294744.000000
295567.000000
296371.000000
297191.000000
298056.000000
298893.000000
299762.000000
300664.000000
301535.000000
302362.000000
303206.000000
304078.000000
304984.000000
305885.000000
306722.000000
307556.000000
308374.000000
309210.000000
310025.000000
310804.000000
311634.000000
312470.000000
313257.000000
314039.000000
314856.000000
315691.000000
316505.000000
317333.000000
318198.000000
319099.000000
319935.000000
320686.000000
321457.000000
322265.000000
323147.000000
324023.000000
324909.000000
325830.000000
326723.000000
327588.000000
328395.000000
329203.000000
330038.000000
330879.000000
331704.000000
332539.000000
333403.000000
334297.000000
335128.000000
335941.000000
336804.000000
337742.000000
338674.000000
339571.000000
340377.000000
341170.000000
342008.000000
342894.000000
343811.000000
344663.000000
345507.000000
346379.000000
347261.000000
348118.000000
348925.000000
349740.000000
350594.000000
351461.000000
352274.000000
353076.000000
353919.000000
354808.000000
355716.000000
356539.000000
357331.000000
358148.000000
359046.000000
359952.000000
360783.000000
361611.000000
362503.000000
363455.000000
364347.000000
365161.000000
365985.000000
366836.000000
367681.000000
368468.000000
369273.000000
370135.000000
371027.000000
371866.000000
372713.000000
373624.000000
374513.000000
375375.000000
376196.000000
377041.000000
377918.000000
378827.000000
379734.000000
380680.000000
381583.000000
382453.000000
383280.000000
384129.000000
384995.000000
385847.000000
386648.000000
387478.000000
388328.000000
389197.000000
390007.000000
390823.000000
391696.000000
392578.000000
393442.000000
394298.000000
395222.000000
396131.000000
396994.000000
397816.000000
398640.000000
399490.000000
400374.000000
401269.000000
402153.000000
402961.000000
403760.000000
404618.000000
405500.000000
406319.000000
407112.000000
407912.000000
408733.000000
409582.000000
410391.000000
411213.000000
412083.000000
412969.000000
413829.000000
414602.000000
415359.000000
416141.000000
416958.000000
417782.000000
418685.000000
419611.000000
420520.000000
421323.000000
422092.000000
422889.000000
423732.000000
424554.000000
425404.000000
426340.000000
427270.000000
428162.000000
428998.000000
429851.000000
430737.000000
431627.000000
432443.000000
433227.000000
434042.000000
434903.000000
435766.000000
436589.000000
437399.000000
438231.000000
439084.000000
439912.000000
440707.000000
441530.000000
442366.000000
443231.000000
444042.000000
444845.000000
445645.000000
446481.000000
447287.000000
448121.000000
449021.000000
449955.000000
450893.000000
451780.000000
452597.000000
453402.000000
454229.000000
455122.000000
455984.000000
456809.000000
457671.000000
458568.000000
459424.000000
460211.000000
461021.000000
461885.000000
462782.000000
463634.000000
464526.000000
465461.000000
466389.000000
467265.000000
468097.000000
468975.000000
469858.000000
470744.000000
471547.000000
472357.000000
473224.000000
474161.000000
475060.000000
475893.000000
476777.000000
477707.000000
478655.000000
479587.000000
480457.000000
481302.000000
482147.000000
483019.000000
483863.000000
484721.000000
485648.000000
486571.000000
487480.000000
488335.000000
489190.000000
490074.000000
490972.000000
491808.000000
492622.000000
493459.000000
494331.000000
495191.000000
495990.000000
496811.000000
497660.000000
498551.000000
499389.000000
500217.000000
501088.000000
502000.000000
502922.000000
503779.000000
504627.000000
505494.000000
506353.000000
507163.000000
507976.000000
508829.000000
509696.000000
510584.000000
511489.000000
512401.000000
513303.000000
514147.000000
515004.000000
515864.000000
516695.000000
517494.000000
518352.000000
519251.000000
520159.000000
521011.000000
521845.000000
522712.000000
523630.000000
524509.000000
525324.000000
526166.000000
527049.000000
527923.000000
528747.000000
529570.000000
530388.000000
531176.000000
531975.000000
532837.000000
533725.000000
534560.000000
535387.000000
536228.000000
537090.000000
537909.000000
538710.000000
539554.000000
540443.000000
541317.000000
542114.000000
542886.000000
543685.000000
544507.000000
545335.000000
546185.000000
547104.000000
548012.000000
548875.000000
549757.000000
550655.000000
551540.000000
552334.000000
553118.000000
553930.000000
554763.000000
555583.000000
556416.000000
557279.000000
558138.000000
558953.000000
559808.000000
560692.000000
561527.000000
562329.000000
563145.000000
563969.000000
564825.000000
565647.000000
566445.000000
567288.000000
568175.000000
569080.000000
569915.000000
570708.000000
571521.000000
572397.000000
573287.000000
574143.000000
574992.000000
575890.000000
576794.000000
577642.000000
578471.000000
579353.000000
580248.000000
581084.000000
581882.000000
582742.000000
583632.000000
584482.000000
585290.000000
586154.000000
587039.000000
587902.000000
588717.000000
589574.000000
590511.000000
591433.000000
592293.000000
593141.000000
594042.000000
594953.000000
595812.000000
596654.000000
597527.000000
598436.000000
599349.000000
600183.000000
601012.000000
601879.000000
602765.000000
603580.000000
604410.000000
605280.000000
606185.000000
607030.000000
607848.000000
608702.000000
609568.000000
610397.000000
611213.000000
612064.000000
612992.000000
613988.000000
614883.000000
615773.000000
616666.000000
617535.000000
618349.000000
619193.000000
620069.000000
620960.000000
621793.000000
622636.000000
623523.000000
624434.000000
625300.000000
626144.000000
627032.000000
627923.000000
628769.000000
629547.000000
630337.000000
631165.000000
632021.000000
632879.000000
633761.000000
634692.000000
635607.000000
636449.000000
637268.000000
638108.000000
638967.000000
639790.000000
640591.000000
641416.000000
642247.000000
643037.000000
643816.000000
644655.000000
645531.000000
646446.000000
647307.000000
648146.000000
649018.000000
649900.000000
650743.000000
651576.000000
652478.000000
653385.000000
654296.000000
655134.000000
655947.000000
656789.000000
657665.000000
658544.000000
659348.000000
660173.000000
661048.000000
661930.000000
662812.000000
663702.000000
664621.000000
665533.000000
666380.000000
667183.000000
668010.000000
668883.000000
669771.000000
670608.000000
671475.000000
672376.000000
673288.000000
674131.000000
674985.000000
675883.000000
676745.000000
677568.000000
678433.000000
679315.000000
680146.000000
680974.000000
681850.000000
682774.000000
683618.000000
684488.000000
685379.000000
686298.000000
687167.000000
687988.000000
688837.000000
689716.000000
690528.000000
691337.000000
692210.000000
693104.000000
693994.000000
694817.000000
695656.000000
696534.000000
697389.000000
698216.000000
699047.000000
699871.000000
700693.000000
701487.000000
702305.000000
703166.000000
704065.000000
704933.000000
705797.000000
706708.000000
707629.000000
708474.000000
709297.000000
710130.000000
710944.000000
711747.000000
712613.000000
713677.000000
714721.000000
715645.000000
716533.000000
717431.000000
718301.000000
719112.000000
719916.000000
720763.000000
721654.000000
722563.000000
723424.000000
724224.000000
725065.000000
725942.000000
726820.000000
727656.000000
728494.000000
729373.000000
730240.000000
731066.000000
731910.000000
732804.000000
733695.000000
734591.000000
735443.000000
736268.000000
737126.000000
738012.000000
738861.000000
739671.000000
740527.000000
741422.000000
742320.000000
743191.000000
744017.000000
744870.000000
745754.000000
746633.000000
747550.000000
748494.000000
749431.000000
750327.000000
751213.000000
752103.000000
753027.000000
753936.000000
754777.000000
755608.000000
756480.000000
757399.000000
758280.000000
759150.000000
760053.000000
760933.000000
761724.000000
762489.000000
763295.000000
764153.000000
765053.000000
765894.000000
766744.000000
767619.000000
768504.000000
769333.000000
770148.000000
770994.000000
771886.000000
772802.000000
773688.000000
774506.000000
775313.000000
776139.000000
776995.000000
777871.000000
778731.000000
779616.000000
780498.000000
781359.000000
782160.000000
782975.000000
783815.000000
784641.000000
785442.000000
786292.000000
787172.000000
788080.000000
788939.000000
789796.000000
790640.000000
791469.000000
792264.000000
793061.000000
793900.000000
794822.000000
795767.000000
796643.000000
797513.000000
798378.000000
799216.000000
800007.000000
800813.000000
801679.000000
802624.000000
803501.000000
804352.000000
805234.000000
806130.000000
806958.000000
807788.000000
808670.000000
809582.000000
810436.000000
811243.000000
812051.000000
812894.000000
813786.000000
814658.000000
815584.000000
816505.000000
817384.000000
818214.000000
819056.000000
819992.000000
820888.000000
821727.000000
822588.000000
823470.000000
824347.000000
825170.000000
825999.000000
826871.000000
827763.000000
828629.000000
829473.000000
830343.000000
831260.000000
832116.000000
832969.000000
833848.000000
834756.000000
835676.000000
836516.000000
837366.000000
838257.000000
839179.000000
840034.000000
840857.000000
841746.000000
842646.000000
843504.000000
844391.000000
845314.000000
846178.000000
847009.000000
847886.000000
848774.000000
849603.000000
850423.000000
851293.000000
852173.000000
853043.000000
853878.000000
854731.000000
855603.000000
856459.000000
857287.000000
858173.000000
859096.000000
860020.000000
860886.000000
861747.000000
862636.000000
863523.000000
864350.000000
865161.000000
866022.000000
866928.000000
867867.000000
868747.000000
869651.000000
870581.000000
871510.000000
872378.000000
873242.000000
874117.000000
874991.000000
875814.000000
876661.000000
877563.000000
878470.000000
879321.000000
880178.000000
881082.000000
881995.000000
882811.000000
883626.000000
884483.000000
885396.000000
886280.000000
887150.000000
888069.000000
889001.000000
889893.000000
890750.000000
891611.000000
892522.000000
893441.000000
894362.000000
895207.000000
896083.000000
897005.000000
897947.000000
898841.000000
899743.000000
900625.000000
901536.000000
902431.000000
903257.000000
904105.000000
905010.000000
905921.000000
906800.000000
907649.000000
908558.000000
909480.000000
910386.000000
911264.000000
912174.000000
913069.000000
913923.000000
914745.000000
915585.000000
916472.000000
917395.000000
918256.000000
919125.000000
920028.000000
920925.000000
921765.000000
922629.000000
923530.000000
924463.000000
