ECG (ms)
479.000000
1212.000000
1947.000000
2718.000000
3462.000000
4195.000000
4949.000000
5701.000000
6454.000000
7213.000000
7941.000000
8631.000000
9353.000000
10084.000000
10829.000000
11578.000000
12348.000000
13133.000000
13912.000000
14697.000000
15484.000000
16241.000000
17012.000000
17777.000000
18541.000000
19333.000000
20125.000000
20905.000000
21687.000000
22462.000000
23198.000000
23950.000000
24718.000000
25458.000000
26220.000000
26970.000000
27691.000000
28353.000000
29037.000000
29777.000000
30548.000000
31326.000000
32103.000000
32842.000000
33521.000000
34208.000000
34952.000000
35713.000000
36450.000000
37196.000000
37967.000000
38767.000000
39566.000000
40343.000000
41109.000000
41915.000000
42741.000000
43575.000000
44376.000000
45186.000000
46004.000000
46810.000000
47590.000000
48387.000000
49186.000000
49951.000000
50714.000000
51444.000000
52189.000000
52951.000000
53749.000000
54557.000000
55336.000000
56122.000000
56915.000000
57712.000000
58483.000000
59258.000000
60048.000000
60830.000000
61615.000000
62391.000000
63130.000000
63816.000000
64495.000000
65147.000000
65842.000000
66591.000000
67345.000000
68137.000000
68962.000000
69771.000000
70573.000000
71368.000000
72149.000000
72904.000000
73673.000000
74453.000000
75219.000000
76022.000000
76846.000000
77654.000000
78476.000000
79310.000000
80119.000000
80935.000000
81746.000000
82516.000000
83304.000000
84090.000000
84839.000000
85596.000000
86361.000000
87124.000000
87846.000000
88591.000000
89365.000000
90143.000000
90904.000000
91703.000000
92503.000000
93282.000000
94076.000000
94891.000000
95671.000000
96463.000000
97279.000000
98105.000000
98884.000000
99693.000000
100523.000000
101337.000000
102138.000000
102973.000000
103860.000000
104705.000000
105536.000000
106363.000000
107186.000000
107989.000000
108807.000000
109632.000000
110437.000000
111269.000000
112142.000000
113001.000000
113820.000000
114637.000000
115451.000000
116225.000000
117038.000000
117862.000000
118657.000000
119442.000000
120190.000000
120936.000000
121624.000000
122337.000000
123068.000000
123819.000000
124605.000000
125423.000000
126233.000000
127071.000000
127924.000000
128725.000000
129525.000000
130301.000000
131023.000000
131769.000000
132521.000000
133242.000000
133937.000000
134622.000000
135318.000000
136001.000000
136881.000000
137802.000000
138699.000000
139576.000000
140429.000000
141266.000000
142095.000000
142918.000000
143726.000000
144537.000000
145342.000000
146142.000000
146926.000000
147718.000000
148513.000000
149284.000000
150070.000000
150859.000000
151645.000000
152413.000000
153185.000000
153957.000000
154703.000000
155454.000000
156230.000000
157001.000000
157800.000000
158613.000000
159407.000000
160211.000000
160995.000000
161789.000000
162554.000000
163292.000000
164023.000000
164741.000000
165407.000000
166125.000000
166819.000000
167542.000000
168280.000000
169029.000000
169776.000000
170550.000000
171318.000000
172071.000000
172836.000000
173605.000000
174352.000000
175102.000000
175853.000000
176586.000000
177333.000000
178088.000000
178852.000000
179644.000000
180423.000000
181181.000000
181941.000000
182685.000000
183441.000000
184218.000000
184977.000000
185720.000000
186479.000000
187218.000000
187946.000000
188678.000000
189415.000000
190135.000000
190866.000000
191630.000000
192369.000000
193120.000000
193865.000000
194591.000000
195309.000000
196044.000000
196795.000000
197534.000000
198276.000000
199027.000000
199767.000000
200497.000000
201241.000000
201962.000000
202678.000000
203379.000000
204033.000000
204713.000000
205423.000000
206141.000000
206895.000000
207678.000000
208445.000000
209211.000000
209979.000000
210728.000000
211466.000000
212215.000000
212977.000000
213718.000000
214473.000000
215230.000000
215964.000000
216720.000000
217513.000000
218286.000000
219074.000000
219870.000000
220634.000000
221397.000000
222148.000000
222860.000000
223601.000000
224352.000000
225124.000000
225868.000000
226627.000000
227400.000000
228158.000000
228921.000000
229689.000000
230469.000000
231225.000000
231981.000000
232745.000000
233500.000000
234217.000000
234952.000000
235703.000000
236413.000000
237091.000000
237756.000000
238419.000000
239088.000000
239723.000000
240389.000000
241096.000000
241838.000000
242569.000000
243245.000000
243931.000000
244636.000000
245359.000000
246078.000000
246804.000000
247550.000000
248313.000000
249056.000000
249783.000000
250509.000000
251246.000000
251966.000000
252686.000000
253427.000000
254183.000000
254928.000000
255690.000000
256463.000000
257226.000000
257992.000000
258758.000000
259519.000000
260271.000000
261024.000000
261781.000000
262520.000000
263279.000000
264034.000000
264787.000000
265520.000000
266230.000000
266905.000000
267558.000000
268242.000000
268914.000000
269614.000000
270344.000000
271116.000000
271884.000000
272640.000000
273407.000000
274178.000000
274923.000000
275690.000000
276466.000000
277224.000000
277993.000000
278765.000000
279533.000000
280281.000000
281036.000000
281804.000000
282560.000000
283320.000000
284098.000000
284917.000000
285712.000000
286498.000000
287269.000000
288031.000000
288808.000000
289584.000000
290354.000000
291124.000000
291909.000000
292694.000000
293455.000000
294226.000000
295001.000000
295752.000000
296506.000000
297263.000000
297991.000000
298686.000000
299410.000000
300138.000000
300857.000000
301560.000000
302291.000000
303043.000000
303785.000000
304549.000000
305314.000000
306064.000000
306825.000000
307585.000000
308326.000000
309077.000000
309836.000000
310589.000000
311353.000000
312120.000000
312874.000000
313639.000000
314398.000000
315135.000000
315894.000000
316654.000000
317394.000000
318163.000000
318951.000000
319708.000000
320480.000000
321225.000000
321930.000000
322598.000000
323292.000000
323978.000000
324711.000000
325474.000000
326234.000000
326993.000000
327779.000000
328568.000000
329339.000000
330120.000000
330916.000000
331672.000000
332434.000000
333213.000000
333980.000000
334759.000000
335561.000000
336371.000000
337171.000000
337981.000000
338792.000000
339578.000000
340392.000000
341213.000000
341999.000000
342792.000000
343583.000000
344349.000000
345139.000000
345918.000000
346667.000000
347417.000000
348170.000000
348918.000000
349662.000000
350448.000000
351257.000000
352051.000000
352860.000000
353669.000000
354458.000000
355237.000000
356036.000000
356849.000000
357624.000000
358414.000000
359199.000000
359950.000000
360727.000000
361525.000000
362303.000000
363096.000000
363900.000000
364699.000000
365487.000000
366272.000000
367050.000000
367765.000000
368471.000000
369183.000000
369856.000000
370511.000000
371173.000000
371865.000000
372592.000000
373359.000000
374127.000000
374891.000000
375679.000000
376471.000000
377228.000000
377999.000000
378777.000000
379531.000000
380293.000000
381067.000000
381852.000000
382624.000000
383416.000000
384215.000000
384987.000000
385782.000000
386567.000000
387333.000000
388110.000000
388896.000000
389665.000000
390439.000000
391212.000000
391972.000000
392731.000000
393509.000000
394294.000000
395051.000000
395825.000000
396604.000000
397356.000000
398119.000000
398902.000000
399670.000000
400412.000000
401174.000000
401944.000000
402704.000000
403467.000000
404231.000000
405010.000000
405771.000000
406542.000000
407320.000000
408070.000000
408831.000000
409599.000000
410348.000000
411099.000000
411867.000000
412647.000000
413404.000000
414166.000000
414942.000000
415712.000000
416477.000000
417260.000000
418058.000000
418830.000000
419622.000000
420408.000000
421162.000000
421923.000000
422691.000000
423443.000000
424204.000000
424951.000000
425648.000000
426345.000000
427027.000000
427692.000000
428427.000000
429188.000000
429945.000000
430726.000000
431522.000000
432286.000000
433054.000000
433840.000000
434611.000000
435366.000000
436138.000000
436919.000000
437686.000000
438492.000000
439308.000000
440100.000000
440888.000000
441664.000000
442408.000000
443116.000000
443801.000000
444496.000000
445431.000000
446354.000000
447263.000000
448174.000000
449067.000000
449905.000000
450738.000000
451558.000000
452363.000000
453162.000000
453941.000000
454745.000000
455574.000000
456424.000000
457274.000000
458129.000000
458971.000000
459784.000000
460587.000000
461384.000000
462168.000000
462930.000000
463696.000000
464481.000000
465236.000000
465996.000000
466773.000000
467566.000000
468328.000000
469097.000000
469883.000000
470673.000000
471440.000000
472215.000000
473014.000000
473780.000000
474571.000000
475377.000000
476166.000000
476970.000000
477772.000000
478549.000000
479326.000000
480105.000000
480884.000000
481646.000000
482431.000000
483214.000000
483980.000000
484760.000000
485543.000000
486304.000000
487066.000000
487843.000000
488629.000000
489391.000000
490166.000000
490917.000000
491621.000000
492342.000000
493049.000000
493714.000000
494438.000000
495169.000000
495913.000000
496693.000000
497488.000000
498249.000000
499037.000000
499847.000000
500657.000000
501431.000000
502220.000000
503015.000000
503776.000000
504498.000000
505181.000000
505847.000000
506528.000000
507178.000000
507812.000000
508441.000000
509089.000000
509820.000000
510664.000000
511516.000000
512352.000000
513149.000000
513869.000000
514619.000000
515395.000000
516153.000000
516923.000000
517726.000000
518614.000000
519436.000000
520229.000000
521033.000000
521812.000000
522557.000000
523311.000000
524068.000000
524794.000000
525459.000000
526169.000000
526916.000000
527666.000000
528470.000000
529266.000000
530063.000000
530827.000000
531606.000000
532394.000000
533164.000000
533952.000000
534746.000000
535545.000000
536331.000000
537111.000000
537911.000000
538681.000000
539475.000000
540270.000000
541055.000000
541828.000000
542627.000000
543390.000000
544122.000000
544859.000000
545626.000000
546419.000000
547179.000000
547958.000000
548755.000000
549557.000000
550339.000000
551154.000000
551986.000000
552757.000000
553536.000000
554327.000000
555104.000000
555868.000000
556603.000000
557290.000000
558054.000000
558838.000000
559696.000000
560601.000000
561477.000000
562354.000000
563237.000000
564078.000000
564867.000000
565688.000000
566497.000000
567274.000000
568059.000000
568862.000000
569633.000000
570429.000000
571253.000000
572059.000000
572856.000000
573666.000000
574472.000000
575241.000000
576031.000000
576835.000000
577604.000000
578396.000000
579201.000000
579984.000000
580757.000000
581537.000000
582319.000000
583072.000000
583850.000000
584628.000000
585390.000000
586154.000000
586929.000000
587701.000000
588460.000000
589224.000000
589987.000000
590726.000000
591498.000000
592277.000000
593028.000000
593783.000000
594555.000000
595316.000000
596067.000000
596831.000000
597589.000000
598333.000000
599092.000000
599878.000000
600629.000000
601372.000000
602111.000000
602857.000000
603532.000000
604230.000000
604945.000000
605674.000000
606446.000000
607246.000000
608023.000000
608827.000000
609645.000000
610420.000000
611204.000000
612007.000000
612802.000000
613575.000000
614362.000000
615148.000000
615916.000000
616720.000000
617568.000000
618391.000000
619237.000000
620080.000000
620859.000000
621661.000000
622477.000000
623281.000000
624061.000000
624846.000000
625634.000000
626408.000000
627211.000000
628037.000000
628840.000000
629655.000000
630460.000000
631247.000000
632035.000000
632828.000000
633596.000000
634375.000000
635174.000000
635943.000000
636723.000000
637497.000000
638254.000000
639002.000000
639773.000000
640560.000000
641315.000000
642085.000000
642864.000000
643631.000000
644387.000000
645159.000000
645933.000000
646675.000000
647432.000000
648199.000000
648957.000000
649728.000000
650511.000000
651290.000000
652059.000000
652833.000000
653601.000000
654347.000000
655107.000000
655874.000000
656617.000000
657374.000000
658142.000000
658887.000000
659657.000000
660449.000000
661225.000000
661995.000000
662765.000000
663509.000000
664233.000000
664939.000000
665611.000000
666271.000000
666959.000000
667665.000000
668431.000000
669213.000000
669986.000000
670800.000000
671590.000000
672357.000000
673149.000000
673912.000000
674660.000000
675418.000000
676193.000000
676954.000000
677731.000000
678546.000000
679342.000000
680177.000000
681037.000000
681849.000000
682674.000000
683505.000000
684310.000000
685102.000000
685895.000000
686690.000000
687460.000000
688241.000000
689032.000000
689789.000000
690552.000000
691347.000000
692118.000000
692897.000000
693671.000000
694444.000000
695210.000000
695992.000000
696763.000000
697512.000000
698261.000000
699005.000000
699752.000000
700510.000000
701284.000000
702039.000000
702776.000000
703513.000000
704269.000000
705047.000000
705818.000000
706576.000000
707281.000000
707999.000000
708726.000000
709481.000000
710197.000000
710893.000000
711596.000000
712314.000000
713050.000000
713792.000000
714534.000000
715260.000000
715944.000000
716641.000000
717313.000000
717956.000000
718594.000000
719264.000000
719972.000000
720743.000000
721526.000000
722317.000000
723099.000000
723864.000000
724598.000000
725291.000000
726014.000000
726745.000000
727484.000000
728240.000000
729020.000000
729769.000000
730515.000000
731270.000000
732025.000000
732766.000000
733512.000000
734274.000000
735046.000000
735814.000000
736552.000000
737251.000000
737955.000000
738647.000000
739384.000000
740156.000000
740946.000000
741748.000000
742548.000000
743367.000000
744171.000000
744968.000000
745767.000000
746562.000000
747316.000000
748074.000000
748829.000000
749582.000000
750359.000000
751124.000000
751885.000000
752696.000000
753554.000000
754416.000000
755286.000000
756137.000000
756944.000000
757782.000000
758615.000000
759467.000000
760325.000000
761172.000000
762001.000000
762800.000000
763550.000000
764310.000000
765094.000000
765904.000000
766771.000000
767602.000000
768392.000000
769198.000000
769988.000000
770737.000000
771511.000000
772330.000000
773130.000000
773974.000000
774852.000000
775685.000000
776498.000000
777251.000000
777991.000000
778702.000000
779378.000000
780072.000000
780800.000000
781548.000000
782349.000000
783157.000000
783922.000000
784681.000000
785475.000000
786271.000000
787052.000000
787878.000000
788711.000000
789515.000000
790308.000000
791100.000000
791870.000000
792648.000000
793460.000000
794296.000000
795098.000000
795904.000000
796693.000000
797446.000000
798220.000000
799009.000000
799816.000000
800617.000000
801440.000000
802236.000000
802986.000000
803736.000000
804487.000000
805221.000000
805977.000000
806752.000000
807513.000000
808285.000000
809069.000000
809842.000000
810588.000000
811353.000000
812119.000000
812865.000000
813623.000000
814397.000000
815165.000000
815925.000000
816682.000000
817392.000000
818089.000000
818801.000000
819471.000000
820168.000000
820934.000000
821726.000000
822487.000000
823290.000000
824100.000000
824899.000000
825674.000000
826461.000000
827271.000000
828048.000000
828820.000000
829624.000000
830444.000000
831239.000000
832031.000000
832835.000000
833643.000000
834430.000000
835229.000000
836041.000000
836840.000000
837628.000000
838440.000000
839260.000000
840050.000000
840855.000000
841661.000000
842455.000000
843218.000000
843998.000000
844784.000000
845568.000000
846326.000000
847102.000000
847893.000000
848667.000000
849451.000000
850254.000000
851061.000000
851830.000000
852608.000000
853414.000000
854227.000000
855048.000000
855885.000000
856701.000000
857497.000000
858307.000000
859126.000000
859904.000000
860698.000000
861484.000000
862276.000000
863038.000000
863811.000000
864594.000000
865370.000000
866147.000000
866945.000000
867757.000000
868533.000000
869340.000000
870165.000000
870961.000000
871758.000000
872584.000000
873419.000000
874227.000000
875014.000000
875806.000000
876632.000000
877466.000000
878272.000000
879099.000000
879928.000000
880716.000000
881522.000000
882337.000000
883150.000000
883936.000000
884734.000000
885531.000000
885982.000000
887065.000000
887768.000000
888429.000000
889078.000000
889760.000000
890491.000000
891410.000000
892322.000000
893207.000000
894149.000000
895098.000000
895981.000000
896895.000000
897800.000000
898663.000000
899540.000000
900414.000000
901202.000000
902074.000000
902903.000000
903733.000000
