ECG (ms)
492.000000
1067.000000
1644.000000
2235.000000
2833.000000
3434.000000
4035.000000
4623.000000
5201.000000
5780.000000
6371.000000
6967.000000
7555.000000
8137.000000
8713.000000
9289.000000
9871.000000
10466.000000
11057.000000
11640.000000
12222.000000
12811.000000
13412.000000
14013.000000
14621.000000
15230.000000
15846.000000
16467.000000
17084.000000
17683.000000
18277.000000
18875.000000
19487.000000
20098.000000
20701.000000
21302.000000
21902.000000
22509.000000
23121.000000
23739.000000
24348.000000
24948.000000
25543.000000
26135.000000
26717.000000
27288.000000
27856.000000
28431.000000
29026.000000
29630.000000
30234.000000
30838.000000
31438.000000
32010.000000
32582.000000
33161.000000
33755.000000
34348.000000
34934.000000
35504.000000
36077.000000
36659.000000
37250.000000
37861.000000
38477.000000
39091.000000
39696.000000
40300.000000
40911.000000
41523.000000
42129.000000
42722.000000
43303.000000
43872.000000
44444.000000
45020.000000
45600.000000
46178.000000
46770.000000
47381.000000
48008.000000
48627.000000
49239.000000
49844.000000
50451.000000
51070.000000
51687.000000
52296.000000
52900.000000
53491.000000
54079.000000
54668.000000
55250.000000
55822.000000
56391.000000
56969.000000
57557.000000
58151.000000
58753.000000
59355.000000
59955.000000
60551.000000
61118.000000
61677.000000
62237.000000
62798.000000
63357.000000
63923.000000
64496.000000
65075.000000
65660.000000
66249.000000
66845.000000
67447.000000
68043.000000
68632.000000
69220.000000
69810.000000
70404.000000
70999.000000
71591.000000
72177.000000
72757.000000
73336.000000
73913.000000
74494.000000
75087.000000
75696.000000
76327.000000
76948.000000
77561.000000
78168.000000
78776.000000
79387.000000
80003.000000
80607.000000
81197.000000
81781.000000
82364.000000
82949.000000
83525.000000
84081.000000
84640.000000
85204.000000
85775.000000
86352.000000
86939.000000
87544.000000
88155.000000
88763.000000
89360.000000
89945.000000
90522.000000
91099.000000
91677.000000
92260.000000
92844.000000
93435.000000
94037.000000
94641.000000
95246.000000
95855.000000
96467.000000
97089.000000
97703.000000
98315.000000
98928.000000
99540.000000
100159.000000
100775.000000
101376.000000
101968.000000
102551.000000
103134.000000
103722.000000
104312.000000
104896.000000
105470.000000
106038.000000
106618.000000
107212.000000
107827.000000
108452.000000
109068.000000
109674.000000
110272.000000
110877.000000
111489.000000
112101.000000
112711.000000
113311.000000
113909.000000
114518.000000
115136.000000
115759.000000
116370.000000
116975.000000
117572.000000
118172.000000
118776.000000
119382.000000
119985.000000
120593.000000
121196.000000
121797.000000
122392.000000
122983.000000
123571.000000
124158.000000
124750.000000
125344.000000
125913.000000
126475.000000
127041.000000
127613.000000
128183.000000
128760.000000
129343.000000
129938.000000
130534.000000
131127.000000
131725.000000
132319.000000
132916.000000
133504.000000
134095.000000
134687.000000
135278.000000
135872.000000
136468.000000
137064.000000
137662.000000
138266.000000
138869.000000
139475.000000
140094.000000
140722.000000
141364.000000
142001.000000
142630.000000
143244.000000
143853.000000
144468.000000
145083.000000
145697.000000
146302.000000
146906.000000
147494.000000
148075.000000
148660.000000
149264.000000
149884.000000
150518.000000
151150.000000
151772.000000
152382.000000
152998.000000
153622.000000
154235.000000
154847.000000
155449.000000
156039.000000
156628.000000
157220.000000
157824.000000
158427.000000
159029.000000
159631.000000
160232.000000
160835.000000
161443.000000
162051.000000
162654.000000
163260.000000
163864.000000
164471.000000
165075.000000
165685.000000
166294.000000
166907.000000
167535.000000
168151.000000
168766.000000
169378.000000
169989.000000
170594.000000
171196.000000
171792.000000
172377.000000
172961.000000
173546.000000
174139.000000
174729.000000
175325.000000
175922.000000
176535.000000
177160.000000
177787.000000
178398.000000
179000.000000
179601.000000
180202.000000
180795.000000
181390.000000
181979.000000
182568.000000
183132.000000
183690.000000
184257.000000
184835.000000
185419.000000
186002.000000
186589.000000
187187.000000
187785.000000
188375.000000
188954.000000
189533.000000
190117.000000
190709.000000
191299.000000
191889.000000
192486.000000
193089.000000
193702.000000
194312.000000
194918.000000
195515.000000
196112.000000
196711.000000
197314.000000
197912.000000
198503.000000
199088.000000
199676.000000
200266.000000
200854.000000
201440.000000
202019.000000
202581.000000
203138.000000
203700.000000
204273.000000
204861.000000
205456.000000
206051.000000
206617.000000
207177.000000
207741.000000
208319.000000
208909.000000
209515.000000
210112.000000
210694.000000
211274.000000
211855.000000
212443.000000
213030.000000
213617.000000
214202.000000
214791.000000
215386.000000
215990.000000
216590.000000
217193.000000
217799.000000
218411.000000
219034.000000
219655.000000
220268.000000
220876.000000
221480.000000
222091.000000
222700.000000
223306.000000
223910.000000
224513.000000
225122.000000
225729.000000
226336.000000
226948.000000
227571.000000
228196.000000
228812.000000
229421.000000
230023.000000
230624.000000
231227.000000
231830.000000
232437.000000
233048.000000
233669.000000
234293.000000
234909.000000
235523.000000
236132.000000
236747.000000
237367.000000
237987.000000
238599.000000
239205.000000
239813.000000
240424.000000
241043.000000
241661.000000
242276.000000
242891.000000
243501.000000
244109.000000
244714.000000
245320.000000
245934.000000
246566.000000
247198.000000
247823.000000
248444.000000
249059.000000
249672.000000
250281.000000
250885.000000
251486.000000
252099.000000
252731.000000
253364.000000
253989.000000
254603.000000
255210.000000
255803.000000
256373.000000
256941.000000
257514.000000
258087.000000
258662.000000
259242.000000
259822.000000
260407.000000
260988.000000
261565.000000
262144.000000
262738.000000
263344.000000
263956.000000
264569.000000
265186.000000
265802.000000
266415.000000
267018.000000
267611.000000
268211.000000
268821.000000
269434.000000
270043.000000
270637.000000
271233.000000
271826.000000
272427.000000
273035.000000
273637.000000
274244.000000
274855.000000
275463.000000
276073.000000
276683.000000
277301.000000
277930.000000
278548.000000
279159.000000
279760.000000
280361.000000
280962.000000
281558.000000
282155.000000
282755.000000
283366.000000
283989.000000
284623.000000
285241.000000
285849.000000
286448.000000
287042.000000
287642.000000
288247.000000
288855.000000
289468.000000
290095.000000
290737.000000
291389.000000
292044.000000
292698.000000
293337.000000
293965.000000
294591.000000
295216.000000
295836.000000
296451.000000
297063.000000
297666.000000
298265.000000
298872.000000
299482.000000
300095.000000
300710.000000
301328.000000
301953.000000
302577.000000
303204.000000
303834.000000
304467.000000
305090.000000
305699.000000
306300.000000
306897.000000
307501.000000
308109.000000
308714.000000
309318.000000
309931.000000
310550.000000
311169.000000
311794.000000
312433.000000
313067.000000
313692.000000
314311.000000
314922.000000
315528.000000
316142.000000
316749.000000
317349.000000
317950.000000
318555.000000
319174.000000
319800.000000
320428.000000
321048.000000
321672.000000
322301.000000
322922.000000
323543.000000
324165.000000
324794.000000
325425.000000
326044.000000
326650.000000
327249.000000
327848.000000
328451.000000
329057.000000
329676.000000
330300.000000
330933.000000
331568.000000
332194.000000
332812.000000
333423.000000
334036.000000
334645.000000
335253.000000
335863.000000
336479.000000
337091.000000
337701.000000
338300.000000
338890.000000
339480.000000
340080.000000
340687.000000
341305.000000
341922.000000
342536.000000
343145.000000
343758.000000
344369.000000
344976.000000
345580.000000
346175.000000
346770.000000
347360.000000
347942.000000
348530.000000
349124.000000
349713.000000
350294.000000
350872.000000
351455.000000
352038.000000
352622.000000
353207.000000
353797.000000
354394.000000
354993.000000
355590.000000
356188.000000
356789.000000
357403.000000
358009.000000
358603.000000
359190.000000
359773.000000
360355.000000
360931.000000
361509.000000
362082.000000
362663.000000
363258.000000
363849.000000
364417.000000
364987.000000
365566.000000
366150.000000
366734.000000
367322.000000
367915.000000
368509.000000
369107.000000
369701.000000
370290.000000
370879.000000
371464.000000
372054.000000
372648.000000
373243.000000
373833.000000
374429.000000
375032.000000
375634.000000
376233.000000
376833.000000
377434.000000
378046.000000
378651.000000
379252.000000
379845.000000
380437.000000
381035.000000
381625.000000
382190.000000
382756.000000
383328.000000
383901.000000
384475.000000
385057.000000
385651.000000
386259.000000
386872.000000
387490.000000
388109.000000
388726.000000
389342.000000
389954.000000
390565.000000
391168.000000
391765.000000
392371.000000
392993.000000
393626.000000
394258.000000
394887.000000
395516.000000
396146.000000
396780.000000
397414.000000
398049.000000
398701.000000
399361.000000
400010.000000
400642.000000
401261.000000
401877.000000
402507.000000
403143.000000
403777.000000
404422.000000
405075.000000
405733.000000
406391.000000
407038.000000
407676.000000
408301.000000
408923.000000
409549.000000
410173.000000
410793.000000
411422.000000
412062.000000
412713.000000
413364.000000
414022.000000
414675.000000
415330.000000
415974.000000
416610.000000
417237.000000
417865.000000
418506.000000
419145.000000
419789.000000
420445.000000
421106.000000
421763.000000
422409.000000
423046.000000
423680.000000
424315.000000
424954.000000
425587.000000
426213.000000
426832.000000
427454.000000
428073.000000
428691.000000
429314.000000
429944.000000
430592.000000
431256.000000
431911.000000
432556.000000
433199.000000
433845.000000
434487.000000
435116.000000
435740.000000
436358.000000
436986.000000
437614.000000
438239.000000
438854.000000
439473.000000
440097.000000
440720.000000
441341.000000
441960.000000
442580.000000
443211.000000
443838.000000
444453.000000
445055.000000
445665.000000
446279.000000
446902.000000
447532.000000
448172.000000
448806.000000
449431.000000
450054.000000
450671.000000
451289.000000
451904.000000
452508.000000
453086.000000
453658.000000
454236.000000
454840.000000
455454.000000
456074.000000
456703.000000
457335.000000
457973.000000
458599.000000
459224.000000
459849.000000
460472.000000
461094.000000
461709.000000
462325.000000
462946.000000
463584.000000
464228.000000
464864.000000
465493.000000
466128.000000
466785.000000
467449.000000
468112.000000
468769.000000
469421.000000
470069.000000
470711.000000
471335.000000
471949.000000
472567.000000
473184.000000
473812.000000
474444.000000
475072.000000
475704.000000
476342.000000
476987.000000
477622.000000
478260.000000
478892.000000
479527.000000
480155.000000
480790.000000
481429.000000
482072.000000
482726.000000
483385.000000
484035.000000
484689.000000
485338.000000
485988.000000
486624.000000
487255.000000
487890.000000
488535.000000
489189.000000
489830.000000
490470.000000
491110.000000
491752.000000
492398.000000
493039.000000
493673.000000
494309.000000
494949.000000
495581.000000
496205.000000
496825.000000
497449.000000
498081.000000
498713.000000
499336.000000
499945.000000
500550.000000
501161.000000
501776.000000
502389.000000
502996.000000
503605.000000
504219.000000
504833.000000
505455.000000
506086.000000
506725.000000
507368.000000
508005.000000
508638.000000
509277.000000
509921.000000
510566.000000
511202.000000
511818.000000
512421.000000
513023.000000
513625.000000
514230.000000
514836.000000
515455.000000
516092.000000
516736.000000
517395.000000
518057.000000
518714.000000
519373.000000
520021.000000
520660.000000
521305.000000
521965.000000
522619.000000
523257.000000
523881.000000
524489.000000
525092.000000
525694.000000
526296.000000
526901.000000
527505.000000
528101.000000
528676.000000
529253.000000
529845.000000
530453.000000
531074.000000
531691.000000
532291.000000
532886.000000
533486.000000
534086.000000
534693.000000
535307.000000
535927.000000
536547.000000
537164.000000
537765.000000
538359.000000
538955.000000
539551.000000
540156.000000
540768.000000
541389.000000
542026.000000
542680.000000
543323.000000
543958.000000
544582.000000
545188.000000
545795.000000
546407.000000
547024.000000
547644.000000
548269.000000
548900.000000
549535.000000
550175.000000
550809.000000
551440.000000
552062.000000
552665.000000
553246.000000
553828.000000
554409.000000
554999.000000
555591.000000
556198.000000
556815.000000
557441.000000
558065.000000
558689.000000
559313.000000
559944.000000
560571.000000
561190.000000
561808.000000
562421.000000
563038.000000
563651.000000
564259.000000
564875.000000
565506.000000
566143.000000
566778.000000
567413.000000
568049.000000
568692.000000
569331.000000
569957.000000
570568.000000
571173.000000
571776.000000
572382.000000
572991.000000
573603.000000
574221.000000
574864.000000
575534.000000
576194.000000
576849.000000
577498.000000
578152.000000
578801.000000
579444.000000
580075.000000
580692.000000
581308.000000
581923.000000
582531.000000
583131.000000
583732.000000
584345.000000
584968.000000
585597.000000
586226.000000
586856.000000
587487.000000
588119.000000
588746.000000
589367.000000
589978.000000
590590.000000
591206.000000
591835.000000
592466.000000
593098.000000
593737.000000
594373.000000
595005.000000
595636.000000
596267.000000
596901.000000
597541.000000
598177.000000
598803.000000
599426.000000
600062.000000
600717.000000
601369.000000
602015.000000
602657.000000
603302.000000
603948.000000
604591.000000
605237.000000
605887.000000
606540.000000
607194.000000
607834.000000
608472.000000
609113.000000
609762.000000
610410.000000
611053.000000
611696.000000
612339.000000
612986.000000
613631.000000
614272.000000
614914.000000
615556.000000
616195.000000
616832.000000
617464.000000
618097.000000
618741.000000
619380.000000
620013.000000
620643.000000
621276.000000
621908.000000
622541.000000
623181.000000
623828.000000
624484.000000
625134.000000
625792.000000
626463.000000
627135.000000
627805.000000
628463.000000
629113.000000
629759.000000
630405.000000
631052.000000
631692.000000
632321.000000
632942.000000
633549.000000
634135.000000
634727.000000
635342.000000
635985.000000
636642.000000
637294.000000
637953.000000
638623.000000
639292.000000
639954.000000
640599.000000
641229.000000
641857.000000
642479.000000
643093.000000
643709.000000
644325.000000
644961.000000
645615.000000
646277.000000
646947.000000
647615.000000
648287.000000
648945.000000
649593.000000
650238.000000
650878.000000
651513.000000
652131.000000
652744.000000
653356.000000
653984.000000
654632.000000
655278.000000
655920.000000
656555.000000
657192.000000
657826.000000
658452.000000
659069.000000
659689.000000
660327.000000
660974.000000
661621.000000
662260.000000
662886.000000
663509.000000
664138.000000
664753.000000
665358.000000
665948.000000
666515.000000
667081.000000
667661.000000
668262.000000
668876.000000
669501.000000
670129.000000
670764.000000
671410.000000
672065.000000
672712.000000
673354.000000
673989.000000
674626.000000
675267.000000
675909.000000
676553.000000
677206.000000
677854.000000
678496.000000
679138.000000
679779.000000
680425.000000
681082.000000
681747.000000
682409.000000
683073.000000
683740.000000
684417.000000
685085.000000
685726.000000
686353.000000
686972.000000
687600.000000
688242.000000
688889.000000
689544.000000
690204.000000
690871.000000
691558.000000
692230.000000
692884.000000
693520.000000
694150.000000
694792.000000
695437.000000
696085.000000
696734.000000
697384.000000
698042.000000
698698.000000
699356.000000
700017.000000
700678.000000
701325.000000
701972.000000
702619.000000
703268.000000
703907.000000
704547.000000
705182.000000
705821.000000
706472.000000
707112.000000
707742.000000
708357.000000
708975.000000
709611.000000
710251.000000
710890.000000
711530.000000
712168.000000
712809.000000
713447.000000
714083.000000
714723.000000
715364.000000
716021.000000
716688.000000
717356.000000
718023.000000
718685.000000
719339.000000
719981.000000
720614.000000
721236.000000
721855.000000
722484.000000
723131.000000
723791.000000
724456.000000
725120.000000
725774.000000
726432.000000
727102.000000
727765.000000
728418.000000
729061.000000
729715.000000
730375.000000
731045.000000
731703.000000
732358.000000
733003.000000
733640.000000
734279.000000
734921.000000
735566.000000
736207.000000
736855.000000
737514.000000
738181.000000
738859.000000
739530.000000
740203.000000
740866.000000
741510.000000
742136.000000
742751.000000
743371.000000
744006.000000
744646.000000
745289.000000
745934.000000
746592.000000
747260.000000
747933.000000
748589.000000
749236.000000
749882.000000
750529.000000
751177.000000
751821.000000
752462.000000
753102.000000
753760.000000
754430.000000
755095.000000
755761.000000
756428.000000
757105.000000
757789.000000
758472.000000
759153.000000
759831.000000
760494.000000
761137.000000
761769.000000
762389.000000
763016.000000
763653.000000
764296.000000
764943.000000
765593.000000
766258.000000
766932.000000
767608.000000
768281.000000
768942.000000
769591.000000
770235.000000
770882.000000
771522.000000
772165.000000
772813.000000
773487.000000
774177.000000
774871.000000
775547.000000
776214.000000
776869.000000
777514.000000
778159.000000
778806.000000
779458.000000
780120.000000
780780.000000
781442.000000
782106.000000
782777.000000
783442.000000
784091.000000
784722.000000
785336.000000
785951.000000
786561.000000
787149.000000
787746.000000
788367.000000
789009.000000
789657.000000
790312.000000
790974.000000
791642.000000
792310.000000
792961.000000
793598.000000
794225.000000
794857.000000
795496.000000
796137.000000
796783.000000
797427.000000
798075.000000
798727.000000
799383.000000
800049.000000
800712.000000
801385.000000
802043.000000
802696.000000
803353.000000
804013.000000
804677.000000
805326.000000
805971.000000
806620.000000
807275.000000
807926.000000
808571.000000
809203.000000
809817.000000
810407.000000
810980.000000
811562.000000
812158.000000
812769.000000
813376.000000
813996.000000
814620.000000
815227.000000
815812.000000
816402.000000
816998.000000
817599.000000
818200.000000
818798.000000
819403.000000
820017.000000
820635.000000
821259.000000
821898.000000
822532.000000
823161.000000
823792.000000
824425.000000
825058.000000
825696.000000
826351.000000
827004.000000
827652.000000
828295.000000
828930.000000
829561.000000
830199.000000
830839.000000
831474.000000
832110.000000
832731.000000
833336.000000
833921.000000
834491.000000
835069.000000
835668.000000
836300.000000
836947.000000
837600.000000
838249.000000
838907.000000
839572.000000
840234.000000
840889.000000
841549.000000
842202.000000
842859.000000
843514.000000
844165.000000
844812.000000
845450.000000
846096.000000
846741.000000
847388.000000
848027.000000
848677.000000
849345.000000
850016.000000
850672.000000
851304.000000
851905.000000
852484.000000
853049.000000
853617.000000
854204.000000
854828.000000
855496.000000
856195.000000
856896.000000
857617.000000
858325.000000
859011.000000
859671.000000
860314.000000
860959.000000
861609.000000
862263.000000
862925.000000
863572.000000
864217.000000
864861.000000
865503.000000
866157.000000
866821.000000
867482.000000
868139.000000
868791.000000
869430.000000
870065.000000
870706.000000
871352.000000
872002.000000
872658.000000
873325.000000
873992.000000
874659.000000
875327.000000
875983.000000
876641.000000
877298.000000
877960.000000
878632.000000
879279.000000
879915.000000
880538.000000
881160.000000
881775.000000
882373.000000
882947.000000
883522.000000
884110.000000
884720.000000
885336.000000
885979.000000
886647.000000
887312.000000
887968.000000
888621.000000
889274.000000
889938.000000
890596.000000
891253.000000
891902.000000
892547.000000
893198.000000
893838.000000
894481.000000
895132.000000
895805.000000
896486.000000
897161.000000
897840.000000
898508.000000
899172.000000
899821.000000
900461.000000
901101.000000
901748.000000
902436.000000
903147.000000
903860.000000
904569.000000
905261.000000
905950.000000
906637.000000
907319.000000
907988.000000
908654.000000
909315.000000
909975.000000
910630.000000
911275.000000
911910.000000
912546.000000
913195.000000
913869.000000
914537.000000
915199.000000
915856.000000
916532.000000
917211.000000
917901.000000
918569.000000
919228.000000
919876.000000
920522.000000
921171.000000
921812.000000
922438.000000
923050.000000
923659.000000
924279.000000
924912.000000
925548.000000
926186.000000
926834.000000
927492.000000
928163.000000
928819.000000
929461.000000
930094.000000
930736.000000
931382.000000
932027.000000
932671.000000
933308.000000
933928.000000
934523.000000
935123.000000
935749.000000
936395.000000
937054.000000
937721.000000
938396.000000
939057.000000
939711.000000
940361.000000
941008.000000
941662.000000
942317.000000
942969.000000
943620.000000
944276.000000
944940.000000
945596.000000
946258.000000
946927.000000
947600.000000
948271.000000
948925.000000
949563.000000
950192.000000
950826.000000
951470.000000
952117.000000
952758.000000
953405.000000
954053.000000
954693.000000
955335.000000
955981.000000
956627.000000
957255.000000
957850.000000
958438.000000
959030.000000
959627.000000
960217.000000
960810.000000
961427.000000
962063.000000
962714.000000
963379.000000
964043.000000
964695.000000
965340.000000
965988.000000
966651.000000
967315.000000
967990.000000
968673.000000
969362.000000
970046.000000
970718.000000
971384.000000
972053.000000
972729.000000
973398.000000
974053.000000
974700.000000
975345.000000
976001.000000
976657.000000
977318.000000
977994.000000
978692.000000
979388.000000
980069.000000
980745.000000
981413.000000
982092.000000
982782.000000
983452.000000
984107.000000
984748.000000
985391.000000
986039.000000
986692.000000
987354.000000
988007.000000
988673.000000
989341.000000
990013.000000
990685.000000
991354.000000
992014.000000
992671.000000
993329.000000
993980.000000
994627.000000
995259.000000
995895.000000
996554.000000
997232.000000
997930.000000
998610.000000
999284.000000
999952.000000
1000619.000000
1001287.000000
1001944.000000
1002599.000000
1003253.000000
1003909.000000
1004577.000000
1005229.000000
1005866.000000
1006494.000000
1007126.000000
1007767.000000
1008418.000000
1009073.000000
1009744.000000
1010437.000000
1011122.000000
1011798.000000
1012466.000000
1013135.000000
1013810.000000
1014484.000000
1015154.000000
1015829.000000
1016484.000000
1017115.000000
1017714.000000
1018304.000000
1018901.000000
1019513.000000
1020138.000000
1020777.000000
1021444.000000
1022122.000000
1022807.000000
1023493.000000
1024167.000000
1024825.000000
1025458.000000
1026088.000000
1026722.000000
1027372.000000
1028039.000000
1028717.000000
1029404.000000
1030075.000000
1030722.000000
1031368.000000
1032029.000000
1032696.000000
1033376.000000
1034066.000000
1034746.000000
1035413.000000
1036059.000000
1036688.000000
1037322.000000
1037979.000000
1038656.000000
1039334.000000
1040004.000000
1040681.000000
1041359.000000
1042040.000000
1042720.000000
1043374.000000
1044012.000000
1044647.000000
1045285.000000
1045925.000000
1046571.000000
1047229.000000
1047889.000000
1048562.000000
1049232.000000
1049900.000000
1050579.000000
1051259.000000
1051944.000000
1052621.000000
1053290.000000
1053954.000000
1054621.000000
1055280.000000
1055923.000000
1056540.000000
1057128.000000
1057721.000000
1058340.000000
1058994.000000
1059669.000000
1060345.000000
1061020.000000
1061690.000000
1062371.000000
1063057.000000
1063737.000000
1064406.000000
1065075.000000
1065753.000000
1066445.000000
1067128.000000
1067802.000000
1068471.000000
1069152.000000
1069839.000000
1070515.000000
1071189.000000
1071866.000000
1072547.000000
1073231.000000
1073910.000000
1074586.000000
1075261.000000
1075948.000000
1076644.000000
1077328.000000
1078011.000000
1078694.000000
1079377.000000
1080068.000000
1080766.000000
1081468.000000
1082160.000000
1082836.000000
1083510.000000
1084176.000000
1084842.000000
1085522.000000
1086208.000000
1086898.000000
1087575.000000
1088249.000000
1088929.000000
1089621.000000
1090325.000000
1091017.000000
1091703.000000
1092382.000000
1093051.000000
1093708.000000
1094368.000000
1095040.000000
1095739.000000
1096457.000000
1097161.000000
1097856.000000
1098536.000000
1099197.000000
1099821.000000
1100444.000000
1101083.000000
1101741.000000
1102395.000000
1103048.000000
1103702.000000
1104355.000000
1105025.000000
1105694.000000
1106349.000000
1107002.000000
1107653.000000
1108307.000000
1108969.000000
1109634.000000
1110306.000000
1110976.000000
1111640.000000
1112302.000000
1112969.000000
1113648.000000
1114321.000000
1114979.000000
1115630.000000
1116288.000000
1116959.000000
1117628.000000
1118299.000000
1118971.000000
1119652.000000
1120341.000000
1121019.000000
1121675.000000
1122325.000000
1122976.000000
1123623.000000
1124268.000000
1124926.000000
1125603.000000
1126290.000000
1126982.000000
1127665.000000
1128352.000000
1129034.000000
1129706.000000
1130378.000000
1131047.000000
1131731.000000
1132408.000000
1133078.000000
1133732.000000
1134362.000000
1134959.000000
1135548.000000
1136146.000000
1136763.000000
1137388.000000
1137999.000000
1138598.000000
1139183.000000
1139777.000000
1140397.000000
1141067.000000
1141753.000000
1142450.000000
1143155.000000
1143857.000000
1144556.000000
1145248.000000
1145928.000000
1146590.000000
1147239.000000
1147869.000000
1148507.000000
1149173.000000
1149854.000000
1150543.000000
1151227.000000
1151914.000000
1152578.000000
1153236.000000
1153902.000000
1154577.000000
1155263.000000
1155944.000000
1156605.000000
1157262.000000
1157919.000000
1158588.000000
1159262.000000
1159933.000000
1160604.000000
1161271.000000
1161948.000000
1162633.000000
1163317.000000
1163990.000000
1164663.000000
1165333.000000
1166006.000000
1166668.000000
1167330.000000
1168004.000000
1168696.000000
1169390.000000
1170076.000000
1170748.000000
1171419.000000
1172089.000000
1172778.000000
1173480.000000
1174162.000000
1174840.000000
1175520.000000
1176201.000000
1176894.000000
1177585.000000
1178293.000000
1178999.000000
1179694.000000
1180376.000000
1181050.000000
1181721.000000
1182395.000000
1183075.000000
1183737.000000
1184383.000000
1185023.000000
1185675.000000
1186344.000000
1187008.000000
1187671.000000
1188339.000000
1189013.000000
1189701.000000
1190355.000000
1190995.000000
1191624.000000
1192247.000000
1192847.000000
1193446.000000
1194063.000000
1194713.000000
