ECG (ms)
128.000000
993.000000
1786.000000
2620.000000
3501.000000
4335.000000
5187.000000
6062.000000
6878.000000
7744.000000
8645.000000
9401.000000
10179.000000
11068.000000
12010.000000
12993.000000
13950.000000
14806.000000
15659.000000
16445.000000
17211.000000
18024.000000
18821.000000
19685.000000
20500.000000
21341.000000
22191.000000
23023.000000
23871.000000
24634.000000
25446.000000
26210.000000
26928.000000
27718.000000
28590.000000
29579.000000
30546.000000
31421.000000
32297.000000
33102.000000
33921.000000
34735.000000
35565.000000
36509.000000
37411.000000
38278.000000
39177.000000
40031.000000
40919.000000
41815.000000
42700.000000
43644.000000
44554.000000
45413.000000
46290.000000
47193.000000
48058.000000
48890.000000
49757.000000
50646.000000
51512.000000
52423.000000
53334.000000
54204.000000
55127.000000
56052.000000
56943.000000
57852.000000
58708.000000
59519.000000
60337.000000
61078.000000
61805.000000
62583.000000
63399.000000
64207.000000
65006.000000
65749.000000
66518.000000
67227.000000
67928.000000
68628.000000
69307.000000
69986.000000
70702.000000
71433.000000
72177.000000
73061.000000
74026.000000
74863.000000
75619.000000
76317.000000
77007.000000
77731.000000
78462.000000
79229.000000
79971.000000
80699.000000
81483.000000
82220.000000
82953.000000
83790.000000
84631.000000
85383.000000
86161.000000
86996.000000
87787.000000
88550.000000
89409.000000
90256.000000
91017.000000
91831.000000
92692.000000
93458.000000
94263.000000
95023.000000
95760.000000
96522.000000
97419.000000
98233.000000
99030.000000
99812.000000
100551.000000
101312.000000
102098.000000
102814.000000
103560.000000
104286.000000
104979.000000
105695.000000
106700.000000
107592.000000
108463.000000
109333.000000
110179.000000
111024.000000
111911.000000
112791.000000
113620.000000
114517.000000
115430.000000
116303.000000
117207.000000
118025.000000
118828.000000
119631.000000
120436.000000
121257.000000
122023.000000
122776.000000
123599.000000
124445.000000
125218.000000
126187.000000
127154.000000
128025.000000
128924.000000
129788.000000
130604.000000
131453.000000
132330.000000
133208.000000
134135.000000
135069.000000
135956.000000
136869.000000
137836.000000
138737.000000
139601.000000
140444.000000
141264.000000
142050.000000
142835.000000
143589.000000
144317.000000
145014.000000
145721.000000
146413.000000
147096.000000
147927.000000
148730.000000
149532.000000
150420.000000
151239.000000
151981.000000
152766.000000
153592.000000
154362.000000
155118.000000
155906.000000
156736.000000
157485.000000
158298.000000
159312.000000
160176.000000
161037.000000
161903.000000
162700.000000
163567.000000
164458.000000
165293.000000
166166.000000
167071.000000
167916.000000
168773.000000
169668.000000
170494.000000
171317.000000
172165.000000
173016.000000
173851.000000
174734.000000
175636.000000
176503.000000
177420.000000
178330.000000
179190.000000
180078.000000
180984.000000
181825.000000
182685.000000
183591.000000
184460.000000
185349.000000
186277.000000
187151.000000
187985.000000
188843.000000
189694.000000
190508.000000
191373.000000
192250.000000
193086.000000
193898.000000
194714.000000
195512.000000
196316.000000
197094.000000
197780.000000
198457.000000
199157.000000
199884.000000
200600.000000
201332.000000
202374.000000
203351.000000
204251.000000
205065.000000
205843.000000
206741.000000
207763.000000
208715.000000
209579.000000
210374.000000
211131.000000
212125.000000
213139.000000
214055.000000
214948.000000
215903.000000
216849.000000
217714.000000
218556.000000
219459.000000
220386.000000
221246.000000
222146.000000
223085.000000
223977.000000
224894.000000
225836.000000
226714.000000
227547.000000
228395.000000
229229.000000
230049.000000
230923.000000
231830.000000
232681.000000
233554.000000
234459.000000
235301.000000
236133.000000
236979.000000
237792.000000
238656.000000
239576.000000
240486.000000
241440.000000
242420.000000
243318.000000
244229.000000
245158.000000
245994.000000
246805.000000
247645.000000
248523.000000
249360.000000
250238.000000
251160.000000
252011.000000
252869.000000
253735.000000
254543.000000
255349.000000
256138.000000
256921.000000
257641.000000
258387.000000
259143.000000
259904.000000
260702.000000
261611.000000
262585.000000
263481.000000
264351.000000
265144.000000
265909.000000
266640.000000
267379.000000
268124.000000
268881.000000
269647.000000
270351.000000
271072.000000
271890.000000
272689.000000
273431.000000
274234.000000
275092.000000
275857.000000
276625.000000
277475.000000
278267.000000
279010.000000
279813.000000
280718.000000
281731.000000
282666.000000
283620.000000
284516.000000
285350.000000
286174.000000
287008.000000
287840.000000
288691.000000
289600.000000
290467.000000
291333.000000
292249.000000
293190.000000
294072.000000
294978.000000
295896.000000
296738.000000
297608.000000
298526.000000
299407.000000
300242.000000
301119.000000
301994.000000
302813.000000
303679.000000
304547.000000
305363.000000
306232.000000
307136.000000
307974.000000
308822.000000
309677.000000
310497.000000
311359.000000
312266.000000
313099.000000
313950.000000
314809.000000
315619.000000
316444.000000
317354.000000
318268.000000
319124.000000
320031.000000
320951.000000
321809.000000
322652.000000
323526.000000
324415.000000
325220.000000
326042.000000
326889.000000
327722.000000
328522.000000
329422.000000
330322.000000
331113.000000
331881.000000
332617.000000
333411.000000
334159.000000
334863.000000
335546.000000
336261.000000
336985.000000
337765.000000
338486.000000
339205.000000
339894.000000
340605.000000
341365.000000
342092.000000
342806.000000
343504.000000
344199.000000
344893.000000
345611.000000
346365.000000
347110.000000
347832.000000
348531.000000
349236.000000
349962.000000
350643.000000
351344.000000
352090.000000
352948.000000
353761.000000
354482.000000
355263.000000
356094.000000
356844.000000
357588.000000
358427.000000
359336.000000
360104.000000
360914.000000
361819.000000
362593.000000
363371.000000
364395.000000
365282.000000
366186.000000
367078.000000
367915.000000
368793.000000
369762.000000
370672.000000
371598.000000
372542.000000
373419.000000
374291.000000
375188.000000
376066.000000
376921.000000
377830.000000
378764.000000
379633.000000
380541.000000
381501.000000
382380.000000
383264.000000
384195.000000
385108.000000
385996.000000
386906.000000
387771.000000
388637.000000
389536.000000
390435.000000
391293.000000
392202.000000
393135.000000
394001.000000
394875.000000
395775.000000
396634.000000
397495.000000
398376.000000
399260.000000
400122.000000
401022.000000
401968.000000
402846.000000
403726.000000
404650.000000
405572.000000
406434.000000
407359.000000
408283.000000
409138.000000
410002.000000
410862.000000
411686.000000
412528.000000
413428.000000
414359.000000
415224.000000
416135.000000
417058.000000
417923.000000
418806.000000
419718.000000
420579.000000
421418.000000
422267.000000
423075.000000
423869.000000
424704.000000
425624.000000
426518.000000
427433.000000
428366.000000
429223.000000
430088.000000
430961.000000
431833.000000
432662.000000
433549.000000
434481.000000
435351.000000
436225.000000
437145.000000
438035.000000
438898.000000
439793.000000
440699.000000
441567.000000
442458.000000
443393.000000
444339.000000
445238.000000
446162.000000
447092.000000
447959.000000
448806.000000
449676.000000
450522.000000
451317.000000
452140.000000
452994.000000
453872.000000
454751.000000
455665.000000
456557.000000
457410.000000
458284.000000
459155.000000
459971.000000
460816.000000
461656.000000
462472.000000
463358.000000
464270.000000
465134.000000
466051.000000
466973.000000
467828.000000
468704.000000
469603.000000
470479.000000
471379.000000
472271.000000
473144.000000
474057.000000
475018.000000
475943.000000
476862.000000
477803.000000
478725.000000
479592.000000
480427.000000
481405.000000
482380.000000
483257.000000
484104.000000
484997.000000
485889.000000
486724.000000
487597.000000
488430.000000
489241.000000
490097.000000
490869.000000
491583.000000
492246.000000
492966.000000
494014.000000
494953.000000
495934.000000
496859.000000
497709.000000
498586.000000
499468.000000
500306.000000
501164.000000
502098.000000
502998.000000
503863.000000
504764.000000
505662.000000
506532.000000
507411.000000
508293.000000
509128.000000
510025.000000
510955.000000
511795.000000
512685.000000
513626.000000
514496.000000
515401.000000
516325.000000
517183.000000
518083.000000
519013.000000
519869.000000
520738.000000
521631.000000
522472.000000
523314.000000
524219.000000
525154.000000
526042.000000
526969.000000
527896.000000
528775.000000
529680.000000
530587.000000
531449.000000
532325.000000
533210.000000
534044.000000
534870.000000
535747.000000
536661.000000
537536.000000
538475.000000
539425.000000
540288.000000
541175.000000
542044.000000
542857.000000
543660.000000
544474.000000
545443.000000
546388.000000
547355.000000
548320.000000
549204.000000
550078.000000
550994.000000
551887.000000
552732.000000
553609.000000
554477.000000
555296.000000
556127.000000
557004.000000
557845.000000
558753.000000
559743.000000
560662.000000
561577.000000
562515.000000
563412.000000
564260.000000
565123.000000
566001.000000
566826.000000
567665.000000
568535.000000
569447.000000
570319.000000
571213.000000
572181.000000
573116.000000
574029.000000
574984.000000
575853.000000
576715.000000
577584.000000
578399.000000
579227.000000
580098.000000
580938.000000
581790.000000
582683.000000
583548.000000
584413.000000
585311.000000
586167.000000
587010.000000
587892.000000
588719.000000
589573.000000
590462.000000
591312.000000
592196.000000
593148.000000
594080.000000
595042.000000
595983.000000
596870.000000
597726.000000
598580.000000
599441.000000
600270.000000
601157.000000
602088.000000
602934.000000
603756.000000
604607.000000
605452.000000
606297.000000
607207.000000
608123.000000
609010.000000
609918.000000
610801.000000
611615.000000
612446.000000
613281.000000
614092.000000
614871.000000
615742.000000
616761.000000
617731.000000
618683.000000
619559.000000
620402.000000
621269.000000
622141.000000
622940.000000
623779.000000
624732.000000
625669.000000
626580.000000
627551.000000
628491.000000
629358.000000
630262.000000
631172.000000
632027.000000
632933.000000
633867.000000
634740.000000
635675.000000
636609.000000
637492.000000
638351.000000
639247.000000
640118.000000
640950.000000
641833.000000
642799.000000
643698.000000
644650.000000
645609.000000
646484.000000
647374.000000
648278.000000
649124.000000
649986.000000
650864.000000
651681.000000
652511.000000
653388.000000
654276.000000
655188.000000
656157.000000
657055.000000
657867.000000
658717.000000
659586.000000
660428.000000
661302.000000
662115.000000
662866.000000
663658.000000
664438.000000
665250.000000
666072.000000
666818.000000
667511.000000
668209.000000
669001.000000
669847.000000
670604.000000
671371.000000
672172.000000
672947.000000
673715.000000
674429.000000
675147.000000
675935.000000
676759.000000
677548.000000
678423.000000
679274.000000
680028.000000
680824.000000
681746.000000
682570.000000
683455.000000
684381.000000
685188.000000
686095.000000
687118.000000
688011.000000
688901.000000
689814.000000
690680.000000
691538.000000
692484.000000
693420.000000
694315.000000
695250.000000
696172.000000
697034.000000
697928.000000
698845.000000
699703.000000
700599.000000
701509.000000
702383.000000
703229.000000
704105.000000
705032.000000
705899.000000
706768.000000
707652.000000
708543.000000
709371.000000
710222.000000
711129.000000
712007.000000
712910.000000
713817.000000
714671.000000
715562.000000
716467.000000
717325.000000
718192.000000
719088.000000
719913.000000
720754.000000
721619.000000
722484.000000
723335.000000
724191.000000
724994.000000
725768.000000
726552.000000
727358.000000
728128.000000
728903.000000
729754.000000
730654.000000
731450.000000
732249.000000
733077.000000
733882.000000
734887.000000
735855.000000
736746.000000
737660.000000
738576.000000
739444.000000
740321.000000
741245.000000
742123.000000
743035.000000
743977.000000
744868.000000
745688.000000
746555.000000
747497.000000
748413.000000
749293.000000
750212.000000
751124.000000
751962.000000
752844.000000
753751.000000
754605.000000
755476.000000
756361.000000
757212.000000
758044.000000
758896.000000
759707.000000
760444.000000
761113.000000
761749.000000
762397.000000
763119.000000
763991.000000
764734.000000
765461.000000
766184.000000
766871.000000
767553.000000
768234.000000
768910.000000
769590.000000
770298.000000
770987.000000
771748.000000
772833.000000
773774.000000
774590.000000
775322.000000
776024.000000
777089.000000
778117.000000
779130.000000
780128.000000
781055.000000
782007.000000
782958.000000
783948.000000
784862.000000
785803.000000
786743.000000
787634.000000
788518.000000
789422.000000
790267.000000
791077.000000
791853.000000
792642.000000
793421.000000
794243.000000
795050.000000
795766.000000
796524.000000
797429.000000
798284.000000
799114.000000
799953.000000
800747.000000
801498.000000
802326.000000
803270.000000
804121.000000
804933.000000
805859.000000
806652.000000
807426.000000
808305.000000
809254.000000
810162.000000
811088.000000
811990.000000
812857.000000
813774.000000
814699.000000
815578.000000
816491.000000
817395.000000
818263.000000
819184.000000
820144.000000
821024.000000
821889.000000
822841.000000
823783.000000
824728.000000
825729.000000
826660.000000
827592.000000
828530.000000
829455.000000
830337.000000
831244.000000
832130.000000
832980.000000
833903.000000
834815.000000
835714.000000
836618.000000
837473.000000
838311.000000
839178.000000
840105.000000
840986.000000
841884.000000
842819.000000
843709.000000
844610.000000
845531.000000
846387.000000
847193.000000
848045.000000
849017.000000
850005.000000
850965.000000
851954.000000
852944.000000
853874.000000
854814.000000
855740.000000
856612.000000
857466.000000
858351.000000
859228.000000
860081.000000
861061.000000
862040.000000
862975.000000
863927.000000
864844.000000
865734.000000
866638.000000
867482.000000
868323.000000
869194.000000
870047.000000
870851.000000
871678.000000
872572.000000
873414.000000
874284.000000
875215.000000
876089.000000
876994.000000
877892.000000
878722.000000
879563.000000
880436.000000
881299.000000
882175.000000
883112.000000
884046.000000
884940.000000
885856.000000
886772.000000
887650.000000
888563.000000
889510.000000
890420.000000
891391.000000
892388.000000
893288.000000
894167.000000
895075.000000
895931.000000
896773.000000
897676.000000
898579.000000
899504.000000
900476.000000
901360.000000
902232.000000
903092.000000
903936.000000
904775.000000
905648.000000
906528.000000
907375.000000
908281.000000
909220.000000
910087.000000
910966.000000
911892.000000
912731.000000
913546.000000
914428.000000
915322.000000
916169.000000
917079.000000
917984.000000
918909.000000
919874.000000
920813.000000
921698.000000
922623.000000
923579.000000
924468.000000
925348.000000
926228.000000
927084.000000
927990.000000
928928.000000
929829.000000
930748.000000
931696.000000
932580.000000
933458.000000
934365.000000
935196.000000
936010.000000
936862.000000
937749.000000
938728.000000
939764.000000
940690.000000
941655.000000
942587.000000
943411.000000
944247.000000
945160.000000
946041.000000
946958.000000
947917.000000
948827.000000
949712.000000
950675.000000
951609.000000
952511.000000
953467.000000
954445.000000
955358.000000
956315.000000
957262.000000
958171.000000
959112.000000
960065.000000
960961.000000
961932.000000
962924.000000
963837.000000
964754.000000
965666.000000
966531.000000
967442.000000
968408.000000
969336.000000
970303.000000
971280.000000
972185.000000
973088.000000
973981.000000
974864.000000
975712.000000
976627.000000
977592.000000
978504.000000
979402.000000
980308.000000
981198.000000
982041.000000
982932.000000
983832.000000
984689.000000
985565.000000
986455.000000
987293.000000
988148.000000
989034.000000
989893.000000
990703.000000
991556.000000
992415.000000
993232.000000
994109.000000
995002.000000
995836.000000
996686.000000
997529.000000
998344.000000
999133.000000
999930.000000
1000788.000000
1001650.000000
1002552.000000
1003515.000000
1004390.000000
1005241.000000
1006152.000000
1007017.000000
1007903.000000
1008895.000000
1009824.000000
1010786.000000
1011750.000000
1012638.000000
1013555.000000
1014475.000000
1015343.000000
1016291.000000
1017229.000000
1018100.000000
1019026.000000
1019943.000000
1020819.000000
1021783.000000
1022740.000000
1023637.000000
1024575.000000
1025523.000000
1026489.000000
1027472.000000
1028385.000000
1029256.000000
1030149.000000
1031100.000000
1032038.000000
1032969.000000
1033945.000000
1034872.000000
1035802.000000
1036761.000000
1037669.000000
1038566.000000
1039497.000000
1040476.000000
1041346.000000
1042213.000000
1043124.000000
1044016.000000
1044945.000000
1045922.000000
1046832.000000
1047763.000000
1048701.000000
1049574.000000
1050413.000000
1051326.000000
1052253.000000
1053157.000000
1054083.000000
1055045.000000
1055965.000000
1056889.000000
1057843.000000
1058773.000000
1059662.000000
1060596.000000
1061571.000000
1062492.000000
1063362.000000
1064235.000000
1065097.000000
1065954.000000
1066944.000000
1067921.000000
1068863.000000
1069856.000000
1070822.000000
1071720.000000
1072632.000000
1073554.000000
1074437.000000
1075329.000000
1076269.000000
1077183.000000
1078079.000000
1079010.000000
1079935.000000
1080812.000000
1081689.000000
1082645.000000
1083572.000000
1084487.000000
1085434.000000
1086388.000000
1087277.000000
1088155.000000
1089088.000000
1089968.000000
1090826.000000
1091755.000000
1092657.000000
1093481.000000
1094337.000000
1095200.000000
1096024.000000
1096835.000000
1097648.000000
1098464.000000
1099241.000000
1100012.000000
1100831.000000
1101787.000000
1102711.000000
1103666.000000
1104566.000000
1105479.000000
1106487.000000
1107482.000000
1108393.000000
1109319.000000
1110279.000000
1111174.000000
1112087.000000
1113074.000000
1114025.000000
1114945.000000
1115889.000000
1116817.000000
1117683.000000
1118618.000000
1119615.000000
1120543.000000
1121534.000000
1122515.000000
1123411.000000
1124327.000000
1125273.000000
1126148.000000
1127076.000000
1128110.000000
1129051.000000
1129992.000000
1130949.000000
1131962.000000
1132861.000000
1133722.000000
1134667.000000
1135637.000000
1136552.000000
1137493.000000
1138426.000000
1139304.000000
1140247.000000
1141231.000000
1142171.000000
1143161.000000
1144092.000000
1145038.000000
1146013.000000
1146973.000000
1147927.000000
1148914.000000
1149843.000000
1150712.000000
1151607.000000
1152505.000000
1153447.000000
1154392.000000
1155389.000000
1156418.000000
1157414.000000
1158345.000000
1159232.000000
1159990.000000
1160669.000000
1161322.000000
1161977.000000
1162666.000000
1163687.000000
1164582.000000
1165509.000000
1166420.000000
1167235.000000
1167985.000000
1168666.000000
1169326.000000
1169979.000000
1170647.000000
1171314.000000
1172017.000000
1172787.000000
1173509.000000
1174282.000000
1175328.000000
1176278.000000
1177159.000000
1178052.000000
1178949.000000
1179790.000000
1180664.000000
1181618.000000
1182570.000000
1183475.000000
1184428.000000
1185399.000000
1186302.000000
1187220.000000
1188188.000000
1189131.000000
1190013.000000
1190980.000000
1191991.000000
1192943.000000
1193943.000000
1194943.000000
1195901.000000
1196889.000000
1197871.000000
1198766.000000
1199705.000000
1200697.000000
1201613.000000
1202576.000000
1203496.000000
1204354.000000
1205273.000000
1206226.000000
1207102.000000
1208047.000000
1209030.000000
1209941.000000
1210893.000000
1211888.000000
1212814.000000
1213772.000000
1214702.000000
1215588.000000
1216514.000000
1217501.000000
1218444.000000
1219386.000000
1220355.000000
1221297.000000
1222218.000000
1223194.000000
1224146.000000
1225063.000000
1226044.000000
1227012.000000
1227892.000000
1228819.000000
1229846.000000
1230836.000000
1231814.000000
1232802.000000
1233758.000000
1234649.000000
1235569.000000
1236497.000000
1237358.000000
1238203.000000
1239086.000000
1239962.000000
1240854.000000
1241791.000000
1242688.000000
1243592.000000
1244549.000000
1245470.000000
1246395.000000
1247351.000000
1248283.000000
1249213.000000
1250159.000000
1251153.000000
1252047.000000
1252985.000000
1253960.000000
1254860.000000
1255799.000000
1256765.000000
1257655.000000
1258573.000000
1259515.000000
1260401.000000
1261316.000000
1262248.000000
1263152.000000
1264035.000000
1264953.000000
1265885.000000
1266824.000000
1267841.000000
1268857.000000
1269819.000000
1270806.000000
1271811.000000
1272746.000000
1273745.000000
1274757.000000
1275711.000000
1276705.000000
1277691.000000
1278605.000000
1279580.000000
1280573.000000
1281552.000000
1282442.000000
1283406.000000
1284405.000000
1285339.000000
1286294.000000
1287263.000000
1288208.000000
1289249.000000
1290310.000000
1291280.000000
1292258.000000
1293207.000000
1294076.000000
1294941.000000
1295810.000000
1296647.000000
1297514.000000
1298474.000000
1299420.000000
1300345.000000
1301346.000000
1302319.000000
1303235.000000
1304208.000000
1305156.000000
1306054.000000
1307021.000000
1307998.000000
1308931.000000
1309925.000000
1310902.000000
1311811.000000
1312727.000000
1313607.000000
1314431.000000
1315323.000000
1316374.000000
1317383.000000
1318312.000000
1319328.000000
1320279.000000
1321222.000000
1322198.000000
1323073.000000
1323960.000000
1324878.000000
1325731.000000
1326524.000000
1327363.000000
1328197.000000
1328922.000000
1329668.000000
1330653.000000
1331605.000000
1332524.000000
1333422.000000
1334290.000000
1335094.000000
1335908.000000
1336764.000000
1337700.000000
1338633.000000
1339670.000000
1340705.000000
1341678.000000
1342698.000000
1343710.000000
1344657.000000
1345628.000000
1346625.000000
1347543.000000
1348425.000000
1349397.000000
1350340.000000
1351226.000000
1352155.000000
1353140.000000
1354062.000000
1355009.000000
1355984.000000
1356903.000000
1357791.000000
1358760.000000
1359752.000000
1360630.000000
1361542.000000
1362527.000000
1363411.000000
1364328.000000
1365293.000000
1366164.000000
1367035.000000
1367938.000000
1368785.000000
1369630.000000
1370599.000000
1371576.000000
1372481.000000
1373433.000000
1374379.000000
1375258.000000
1376195.000000
1377157.000000
1378043.000000
1378966.000000
1379929.000000
1380857.000000
1381803.000000
1382776.000000
1383687.000000
1384588.000000
1385532.000000
1386470.000000
1387394.000000
1388354.000000
1389271.000000
1390193.000000
1391162.000000
1392116.000000
1393028.000000
1394013.000000
1394961.000000
1395857.000000
1396837.000000
1397837.000000
1398782.000000
1399785.000000
1400783.000000
1401723.000000
1402666.000000
1403584.000000
1404448.000000
1405348.000000
1406262.000000
1407171.000000
1408088.000000
1409103.000000
1410065.000000
1410994.000000
1411957.000000
1412867.000000
1413734.000000
1414688.000000
1415720.000000
1416720.000000
1417673.000000
1418665.000000
1419600.000000
1420516.000000
1421475.000000
1422445.000000
1423360.000000
1424339.000000
1425315.000000
1426235.000000
1427178.000000
1428098.000000
1428965.000000
1429851.000000
1430697.000000
1431540.000000
1432486.000000
1433554.000000
1434546.000000
1435508.000000
1436473.000000
1437361.000000
1438193.000000
1439059.000000
1440071.000000
1441016.000000
1441945.000000
1442926.000000
1443832.000000
1444755.000000
1445713.000000
1446592.000000
1447458.000000
1448328.000000
1449162.000000
1449979.000000
1450851.000000
1451754.000000
1452591.000000
1453453.000000
1454331.000000
1455212.000000
1456103.000000
1457094.000000
1458058.000000
1459007.000000
1460019.000000
1461011.000000
1461957.000000
1462943.000000
1463914.000000
1464837.000000
1465814.000000
1466837.000000
1467762.000000
1468617.000000
1469533.000000
1470462.000000
1471351.000000
1472385.000000
1473390.000000
1474341.000000
1475298.000000
1476219.000000
1477076.000000
1477975.000000
1478878.000000
1479795.000000
1480789.000000
1481731.000000
1482660.000000
1483570.000000
1484408.000000
1485277.000000
1486202.000000
1487068.000000
1487951.000000
1488875.000000
1489740.000000
1490634.000000
1491596.000000
1492524.000000
1493482.000000
1494504.000000
1495451.000000
1496389.000000
1497361.000000
1498342.000000
1499247.000000
1500190.000000
1501202.000000
1502163.000000
1503081.000000
1504075.000000
1505057.000000
1505977.000000
1506940.000000
1507922.000000
1508846.000000
1509781.000000
1510721.000000
1511620.000000
1512579.000000
1513539.000000
1514426.000000
1515355.000000
1516376.000000
1517299.000000
1518163.000000
1518999.000000
1519759.000000
1520439.000000
1521090.000000
1521783.000000
1522611.000000
1523419.000000
1524235.000000
1524995.000000
1525699.000000
1526419.000000
1527193.000000
1527916.000000
1528613.000000
1529340.000000
1530131.000000
1530939.000000
1531652.000000
1532348.000000
1533165.000000
1534211.000000
1535155.000000
1536038.000000
1536900.000000
1537748.000000
1538559.000000
1539392.000000
1540293.000000
1541200.000000
1542149.000000
1543131.000000
1544033.000000
1544990.000000
1545998.000000
1546932.000000
1547916.000000
1548936.000000
1549948.000000
1550906.000000
1551894.000000
1552863.000000
1553768.000000
1554699.000000
1555654.000000
1556563.000000
1557589.000000
1558586.000000
1559521.000000
1560474.000000
1561419.000000
1562290.000000
1563237.000000
1564184.000000
1564993.000000
1565852.000000
1566780.000000
1567816.000000
1568910.000000
1569961.000000
1570968.000000
1571971.000000
1572943.000000
1573838.000000
1574796.000000
1575712.000000
1576642.000000
1577673.000000
1578654.000000
1579667.000000
1580713.000000
1581699.000000
1582695.000000
1583718.000000
1584682.000000
1585584.000000
1586516.000000
1587448.000000
1588364.000000
1589381.000000
1590406.000000
1591398.000000
1592410.000000
1593384.000000
1594306.000000
1595244.000000
1596184.000000
1597056.000000
1597981.000000
1598940.000000
1599840.000000
1600741.000000
1601732.000000
1602688.000000
1603628.000000
1604616.000000
1605585.000000
1606503.000000
1607474.000000
1608449.000000
1609359.000000
1610284.000000
1611222.000000
1612135.000000
1613073.000000
1614000.000000
1614898.000000
1615779.000000
1616752.000000
1617707.000000
1618618.000000
1619584.000000
1620537.000000
1621470.000000
1622435.000000
1623380.000000
1624251.000000
1625135.000000
1626042.000000
1626911.000000
1627846.000000
1628867.000000
1629868.000000
1630846.000000
1631814.000000
1632723.000000
1633639.000000
1634601.000000
1635527.000000
1636441.000000
1637436.000000
1638388.000000
1639289.000000
1640224.000000
1641177.000000
1642049.000000
1642936.000000
1643780.000000
1644621.000000
1645582.000000
1646582.000000
1647484.000000
1648456.000000
1649435.000000
1650368.000000
1651248.000000
1652172.000000
1653159.000000
1654076.000000
1655001.000000
1656013.000000
1656985.000000
1657897.000000
1658872.000000
1659833.000000
1660723.000000
1661652.000000
1662601.000000
1663512.000000
1664419.000000
1665360.000000
1666307.000000
1667194.000000
1668134.000000
1669081.000000
1669958.000000
1670907.000000
1671853.000000
1672775.000000
1673755.000000
1674751.000000
1675663.000000
1676597.000000
1677568.000000
1678493.000000
1679462.000000
1680469.000000
1681406.000000
1682273.000000
1683187.000000
1684179.000000
1685066.000000
1685994.000000
1686959.000000
1687830.000000
1688739.000000
1689678.000000
1690508.000000
1691375.000000
1692264.000000
1693090.000000
1693939.000000
1694837.000000
1695728.000000
1696577.000000
1697459.000000
1698344.000000
1699179.000000
1700066.000000
1701022.000000
1701923.000000
1702707.000000
1703404.000000
1704300.000000
1705515.000000
1706593.000000
1707620.000000
1708621.000000
1709567.000000
1710547.000000
1711526.000000
1712488.000000
1713476.000000
1714421.000000
1715406.000000
1716378.000000
1717293.000000
1718245.000000
1719178.000000
1720037.000000
1720935.000000
1721852.000000
1722725.000000
1723711.000000
1724689.000000
1725633.000000
1726617.000000
1727566.000000
1728445.000000
1729391.000000
1730322.000000
1731204.000000
1732148.000000
1733091.000000
1733994.000000
1734967.000000
1735891.000000
1736786.000000
1737719.000000
1738613.000000
1739506.000000
1740466.000000
1741398.000000
1742265.000000
1743218.000000
1744194.000000
1745156.000000
1746172.000000
1747168.000000
1748108.000000
1749053.000000
1749993.000000
1750861.000000
1751737.000000
1752658.000000
1753566.000000
1754447.000000
1755390.000000
1756335.000000
1757270.000000
1758241.000000
1759199.000000
1760096.000000
1761042.000000
1762005.000000
1762910.000000
1763855.000000
1764818.000000
1765736.000000
1766729.000000
1767735.000000
1768652.000000
1769584.000000
1770518.000000
1771394.000000
1772296.000000
1773237.000000
1774145.000000
1775026.000000
1775947.000000
1776872.000000
1777752.000000
1778700.000000
1779645.000000
1780544.000000
1781487.000000
1782448.000000
1783343.000000
1784269.000000
1785203.000000
1786094.000000
1787038.000000
1788008.000000
1788936.000000
1789903.000000
1790903.000000
1791816.000000
1792734.000000
1793687.000000
1794605.000000
1795566.000000
1796563.000000
1797527.000000
