ECG (ms)
585.000000
1464.000000
2365.000000
3240.000000
4066.000000
4905.000000
5760.000000
6626.000000
7455.000000
8282.000000
9117.000000
9982.000000
10822.000000
11656.000000
12517.000000
13384.000000
14207.000000
15033.000000
15877.000000
16736.000000
17564.000000
18400.000000
19228.000000
20049.000000
20900.000000
21783.000000
22634.000000
23499.000000
24342.000000
25121.000000
25919.000000
26708.000000
27485.000000
28261.000000
29031.000000
29837.000000
30703.000000
31610.000000
32507.000000
33404.000000
34309.000000
35218.000000
36123.000000
37002.000000
37842.000000
38693.000000
39574.000000
40467.000000
41370.000000
42236.000000
43135.000000
44078.000000
45030.000000
45946.000000
46813.000000
47696.000000
48597.000000
49501.000000
50358.000000
51227.000000
52115.000000
53029.000000
53924.000000
54790.000000
55692.000000
56617.000000
57539.000000
58408.000000
59265.000000
60147.000000
61047.000000
61918.000000
62754.000000
63607.000000
64478.000000
65366.000000
66205.000000
67026.000000
67872.000000
68754.000000
69644.000000
70492.000000
71344.000000
72243.000000
73166.000000
74072.000000
74922.000000
75787.000000
76659.000000
77534.000000
78368.000000
79212.000000
80106.000000
81044.000000
81970.000000
82841.000000
83743.000000
84666.000000
85595.000000
86467.000000
87323.000000
88199.000000
89109.000000
90026.000000
90945.000000
91852.000000
92719.000000
93570.000000
94464.000000
95369.000000
96272.000000
97147.000000
98011.000000
98911.000000
99852.000000
100820.000000
101766.000000
102653.000000
103550.000000
104485.000000
105395.000000
106245.000000
107080.000000
107953.000000
108862.000000
109788.000000
110656.000000
111518.000000
112404.000000
113301.000000
114165.000000
115003.000000
115864.000000
116727.000000
117576.000000
118393.000000
119229.000000
120079.000000
120948.000000
121778.000000
122595.000000
123442.000000
124346.000000
125255.000000
126145.000000
126996.000000
127826.000000
128665.000000
129530.000000
130426.000000
131318.000000
132223.000000
133074.000000
133913.000000
134769.000000
135640.000000
136506.000000
137315.000000
138116.000000
138939.000000
139793.000000
140640.000000
141444.000000
142258.000000
143048.000000
143801.000000
144533.000000
145285.000000
146081.000000
146878.000000
147684.000000
148541.000000
149445.000000
150375.000000
151301.000000
152168.000000
153002.000000
153846.000000
154725.000000
155616.000000
156473.000000
157328.000000
158238.000000
159200.000000
160166.000000
161070.000000
161920.000000
162789.000000
163686.000000
164604.000000
165534.000000
166428.000000
167288.000000
168166.000000
169067.000000
169981.000000
170865.000000
171706.000000
172566.000000
173453.000000
174345.000000
175254.000000
176116.000000
176935.000000
177762.000000
178630.000000
179542.000000
180497.000000
181457.000000
182380.000000
183308.000000
184260.000000
185205.000000
186103.000000
186951.000000
187829.000000
188738.000000
189650.000000
190553.000000
191453.000000
192320.000000
193146.000000
193994.000000
194879.000000
195797.000000
196701.000000
197611.000000
198499.000000
199343.000000
200192.000000
201075.000000
201968.000000
202877.000000
203763.000000
204611.000000
205503.000000
206445.000000
207404.000000
208326.000000
209179.000000
210037.000000
210903.000000
211784.000000
212657.000000
213531.000000
214372.000000
215196.000000
216047.000000
216954.000000
217871.000000
218763.000000
219635.000000
220448.000000
221256.000000
222090.000000
222960.000000
223848.000000
224722.000000
225553.000000
226407.000000
227293.000000
228198.000000
229095.000000
229943.000000
230754.000000
231571.000000
232419.000000
233305.000000
234193.000000
235027.000000
235850.000000
236700.000000
237560.000000
238404.000000
239226.000000
240021.000000
240832.000000
241643.000000
242457.000000
243263.000000
244039.000000
244831.000000
245625.000000
246423.000000
247190.000000
247942.000000
248708.000000
249492.000000
250296.000000
251087.000000
251858.000000
252648.000000
253460.000000
254280.000000
255100.000000
255922.000000
256715.000000
257494.000000
258299.000000
259127.000000
259985.000000
260843.000000
261662.000000
262460.000000
263286.000000
264129.000000
264972.000000
265790.000000
266588.000000
267382.000000
268207.000000
269061.000000
269939.000000
270768.000000
271564.000000
272364.000000
273183.000000
274007.000000
274812.000000
275599.000000
276417.000000
277277.000000
278157.000000
278999.000000
279809.000000
280634.000000
281469.000000
282300.000000
283118.000000
283893.000000
284668.000000
285449.000000
286262.000000
287102.000000
287963.000000
288796.000000
289655.000000
290546.000000
291445.000000
292314.000000
293139.000000
293946.000000
294755.000000
295562.000000
296370.000000
297160.000000
297955.000000
298797.000000
299678.000000
300562.000000
301439.000000
302287.000000
303138.000000
304001.000000
304868.000000
305718.000000
306537.000000
307363.000000
308205.000000
309070.000000
309931.000000
310760.000000
311598.000000
312442.000000
313282.000000
314104.000000
314904.000000
315722.000000
316560.000000
317426.000000
318292.000000
319125.000000
319938.000000
320764.000000
321601.000000
322461.000000
323318.000000
324154.000000
325010.000000
325909.000000
326823.000000
327722.000000
328563.000000
329400.000000
330265.000000
331142.000000
332013.000000
332839.000000
333663.000000
334521.000000
335405.000000
336305.000000
337161.000000
338025.000000
338913.000000
339826.000000
340734.000000
341589.000000
342447.000000
343340.000000
344246.000000
345147.000000
345985.000000
346810.000000
347674.000000
348582.000000
349508.000000
350393.000000
351247.000000
352134.000000
353037.000000
353941.000000
354815.000000
355637.000000
356458.000000
357313.000000
358209.000000
359143.000000
360099.000000
361015.000000
361932.000000
362905.000000
363872.000000
364825.000000
365746.000000
366640.000000
367536.000000
368430.000000
369345.000000
370286.000000
371173.000000
372070.000000
373003.000000
373968.000000
374884.000000
375778.000000
376714.000000
377666.000000
378594.000000
379463.000000
380338.000000
381253.000000
382208.000000
383158.000000
384042.000000
384943.000000
385867.000000
386785.000000
387685.000000
388532.000000
389363.000000
390226.000000
391134.000000
392059.000000
392944.000000
393797.000000
394678.000000
395583.000000
396477.000000
397344.000000
398179.000000
399026.000000
399906.000000
400790.000000
401650.000000
402482.000000
403322.000000
404187.000000
405067.000000
405951.000000
406786.000000
407615.000000
408461.000000
409332.000000
410198.000000
411032.000000
411866.000000
412752.000000
413655.000000
414554.000000
415390.000000
416214.000000
417069.000000
417960.000000
418872.000000
419743.000000
420592.000000
421451.000000
422335.000000
423242.000000
424087.000000
424931.000000
425805.000000
426699.000000
427588.000000
428430.000000
429273.000000
430145.000000
431027.000000
431919.000000
432766.000000
433593.000000
434446.000000
435316.000000
436203.000000
437054.000000
437894.000000
438771.000000
439693.000000
440630.000000
441526.000000
442374.000000
443237.000000
444127.000000
445006.000000
445844.000000
446714.000000
447620.000000
448546.000000
449434.000000
450302.000000
451211.000000
452142.000000
453081.000000
453974.000000
454835.000000
455710.000000
456605.000000
457517.000000
458418.000000
459262.000000
460126.000000
461029.000000
461952.000000
462841.000000
463698.000000
464583.000000
465481.000000
466369.000000
467199.000000
468032.000000
468902.000000
469814.000000
470742.000000
471613.000000
472497.000000
473431.000000
474369.000000
475253.000000
476092.000000
476935.000000
477776.000000
478618.000000
479460.000000
480274.000000
481077.000000
481910.000000
482780.000000
483663.000000
484532.000000
485382.000000
486260.000000
487152.000000
488024.000000
488850.000000
489670.000000
490506.000000
491381.000000
492269.000000
493132.000000
494042.000000
495013.000000
495992.000000
496960.000000
497867.000000
498778.000000
499688.000000
500597.000000
501500.000000
502375.000000
503287.000000
504229.000000
505165.000000
506087.000000
506973.000000
507866.000000
508772.000000
509680.000000
510566.000000
511407.000000
512264.000000
513149.000000
514054.000000
514938.000000
515805.000000
516696.000000
517580.000000
518464.000000
519310.000000
520149.000000
521005.000000
521871.000000
522715.000000
523531.000000
524371.000000
525239.000000
526125.000000
526956.000000
527779.000000
528623.000000
529498.000000
530384.000000
531225.000000
532077.000000
532975.000000
533892.000000
534781.000000
535632.000000
536490.000000
537364.000000
538248.000000
539127.000000
539971.000000
540842.000000
541796.000000
542785.000000
543729.000000
544610.000000
545500.000000
546402.000000
547294.000000
548180.000000
549025.000000
549869.000000
550744.000000
551652.000000
552567.000000
553425.000000
554261.000000
555117.000000
555983.000000
556860.000000
557711.000000
558537.000000
559398.000000
560283.000000
561188.000000
562042.000000
562891.000000
563762.000000
564651.000000
565518.000000
566339.000000
567176.000000
568041.000000
568937.000000
569799.000000
570649.000000
571520.000000
572418.000000
573303.000000
574138.000000
574983.000000
575868.000000
576792.000000
577706.000000
578564.000000
579393.000000
580232.000000
581094.000000
581976.000000
582834.000000
583716.000000
584658.000000
585631.000000
586558.000000
587468.000000
588399.000000
589342.000000
590240.000000
591093.000000
591975.000000
592886.000000
593804.000000
594667.000000
595506.000000
596362.000000
597236.000000
598109.000000
598950.000000
599807.000000
600687.000000
601563.000000
602388.000000
603217.000000
604068.000000
604942.000000
605794.000000
606652.000000
607555.000000
608489.000000
609419.000000
610316.000000
611251.000000
612202.000000
613147.000000
614040.000000
614877.000000
615726.000000
616608.000000
617544.000000
618478.000000
619422.000000
620400.000000
621375.000000
622294.000000
623178.000000
624062.000000
624936.000000
625797.000000
626639.000000
627515.000000
628424.000000
629355.000000
630257.000000
631151.000000
632073.000000
632999.000000
633921.000000
634799.000000
635642.000000
636492.000000
637363.000000
638263.000000
639184.000000
640069.000000
640967.000000
641908.000000
642874.000000
643799.000000
644696.000000
645597.000000
646483.000000
647370.000000
648231.000000
649073.000000
649927.000000
650813.000000
651741.000000
652668.000000
653544.000000
654388.000000
655257.000000
656151.000000
657052.000000
657907.000000
658741.000000
659593.000000
660460.000000
661340.000000
662182.000000
663033.000000
663922.000000
664838.000000
665743.000000
666596.000000
667461.000000
668369.000000
669294.000000
670232.000000
671102.000000
671963.000000
672836.000000
673710.000000
674570.000000
675395.000000
676241.000000
677144.000000
678082.000000
679012.000000
679885.000000
680776.000000
681679.000000
682582.000000
683502.000000
684401.000000
685244.000000
686086.000000
686954.000000
687830.000000
688704.000000
689543.000000
690367.000000
691198.000000
692039.000000
692894.000000
693715.000000
694507.000000
695309.000000
696133.000000
696990.000000
697868.000000
698706.000000
699522.000000
700360.000000
701221.000000
702091.000000
702925.000000
703751.000000
704602.000000
705469.000000
706346.000000
707171.000000
707980.000000
708820.000000
709689.000000
710573.000000
711455.000000
712307.000000
713184.000000
714106.000000
715045.000000
715987.000000
716892.000000
717745.000000
718600.000000
719492.000000
720399.000000
721327.000000
722256.000000
723128.000000
723984.000000
724865.000000
725765.000000
726699.000000
727602.000000
728484.000000
729412.000000
730388.000000
731333.000000
732230.000000
733157.000000
734088.000000
735046.000000
735963.000000
736843.000000
737740.000000
738684.000000
739641.000000
740544.000000
741405.000000
742293.000000
743221.000000
744152.000000
745041.000000
745901.000000
746806.000000
747756.000000
748735.000000
749662.000000
750547.000000
751466.000000
752406.000000
753349.000000
754242.000000
755115.000000
756042.000000
756988.000000
757969.000000
758893.000000
759777.000000
760698.000000
761634.000000
762569.000000
763468.000000
764328.000000
765214.000000
766132.000000
767064.000000
767944.000000
768849.000000
769804.000000
770764.000000
771665.000000
772542.000000
773434.000000
774348.000000
775270.000000
776157.000000
777089.000000
778085.000000
779121.000000
780090.000000
781007.000000
781947.000000
782894.000000
783839.000000
784759.000000
785665.000000
786647.000000
787677.000000
788698.000000
789667.000000
790622.000000
791604.000000
792602.000000
793612.000000
794570.000000
795542.000000
796524.000000
797502.000000
798422.000000
799332.000000
800256.000000
801186.000000
802130.000000
803059.000000
804047.000000
805045.000000
806061.000000
807017.000000
807988.000000
808976.000000
809957.000000
810910.000000
811835.000000
812728.000000
813636.000000
814581.000000
815558.000000
816538.000000
817478.000000
818437.000000
819413.000000
820372.000000
821308.000000
822196.000000
823099.000000
824026.000000
824981.000000
825931.000000
826852.000000
827824.000000
828825.000000
829822.000000
830797.000000
831714.000000
832639.000000
833564.000000
834496.000000
835428.000000
836324.000000
837254.000000
838211.000000
839181.000000
840154.000000
841063.000000
841933.000000
842818.000000
843727.000000
844659.000000
845612.000000
846580.000000
847507.000000
848428.000000
849367.000000
850310.000000
851241.000000
852157.000000
853044.000000
853937.000000
854835.000000
855741.000000
856647.000000
857526.000000
858413.000000
859337.000000
860295.000000
861241.000000
862128.000000
863005.000000
863894.000000
864785.000000
865649.000000
866498.000000
867406.000000
868380.000000
869328.000000
870239.000000
871193.000000
872161.000000
873110.000000
873992.000000
874889.000000
875810.000000
876738.000000
877633.000000
878494.000000
879387.000000
880314.000000
881271.000000
882195.000000
883072.000000
883958.000000
884857.000000
885772.000000
886672.000000
887544.000000
888453.000000
889401.000000
890344.000000
891254.000000
892108.000000
892979.000000
893903.000000
894873.000000
895875.000000
896821.000000
897773.000000
898746.000000
899702.000000
900620.000000
901490.000000
902398.000000
903362.000000
904345.000000
905286.000000
906218.000000
907175.000000
908137.000000
909083.000000
909967.000000
910853.000000
911761.000000
912697.000000
913624.000000
914532.000000
915490.000000
916485.000000
917480.000000
918421.000000
919353.000000
920292.000000
921233.000000
922159.000000
923046.000000
923968.000000
924926.000000
925903.000000
926849.000000
927788.000000
928733.000000
929670.000000
930537.000000
931350.000000
932194.000000
933080.000000
933993.000000
934869.000000
935772.000000
936693.000000
937618.000000
938513.000000
939350.000000
940177.000000
941012.000000
941853.000000
942707.000000
943532.000000
944377.000000
945263.000000
946168.000000
947046.000000
947878.000000
948719.000000
949570.000000
950430.000000
951257.000000
952076.000000
952909.000000
953748.000000
954581.000000
955390.000000
956218.000000
957083.000000
957961.000000
958821.000000
959637.000000
960467.000000
961315.000000
962180.000000
963034.000000
963867.000000
964715.000000
965593.000000
966490.000000
967370.000000
968202.000000
969032.000000
969871.000000
970746.000000
971610.000000
972472.000000
973402.000000
974388.000000
975368.000000
976283.000000
977203.000000
978136.000000
979047.000000
979909.000000
980784.000000
981698.000000
982634.000000
983529.000000
984381.000000
985262.000000
986163.000000
987091.000000
987964.000000
988815.000000
989694.000000
990580.000000
991450.000000
992281.000000
993108.000000
993961.000000
994835.000000
995691.000000
996528.000000
997381.000000
998259.000000
999149.000000
999995.000000
1000835.000000
1001700.000000
1002604.000000
1003530.000000
1004406.000000
1005271.000000
1006162.000000
1007067.000000
1007959.000000
1008817.000000
1009671.000000
1010543.000000
1011437.000000
1012321.000000
1013166.000000
1014011.000000
1014882.000000
1015784.000000
1016678.000000
1017541.000000
1018431.000000
1019348.000000
1020298.000000
1021204.000000
1022077.000000
1023009.000000
1023985.000000
1024955.000000
1025886.000000
1026764.000000
1027647.000000
1028578.000000
1029550.000000
1030547.000000
1031530.000000
1032493.000000
1033516.000000
1034544.000000
1035540.000000
1036451.000000
1037345.000000
1038265.000000
1039192.000000
1040152.000000
1041072.000000
1042002.000000
1043020.000000
1044061.000000
1045080.000000
1046030.000000
1046965.000000
1047937.000000
1048945.000000
1049940.000000
1050876.000000
1051792.000000
1052769.000000
1053752.000000
1054720.000000
1055601.000000
1056476.000000
1057382.000000
1058343.000000
1059294.000000
1060204.000000
1061155.000000
1062143.000000
1063101.000000
1063997.000000
1064913.000000
1065853.000000
1066797.000000
1067688.000000
1068542.000000
1069422.000000
1070342.000000
1071254.000000
1072104.000000
1072961.000000
1073849.000000
1074771.000000
1075633.000000
1076486.000000
1077363.000000
1078255.000000
1079127.000000
1079948.000000
1080773.000000
1081614.000000
1082486.000000
1083364.000000
1084202.000000
1085050.000000
1085926.000000
1086819.000000
1087677.000000
1088523.000000
1089403.000000
1090317.000000
1091208.000000
1092063.000000
1092960.000000
1093890.000000
1094817.000000
1095684.000000
1096541.000000
1097422.000000
1098349.000000
1099273.000000
1100168.000000
1101114.000000
1102117.000000
1103139.000000
1104089.000000
1105000.000000
1105936.000000
1106867.000000
1107813.000000
1108703.000000
1109595.000000
1110534.000000
1111517.000000
1112501.000000
1113416.000000
1114342.000000
1115287.000000
1116239.000000
1117152.000000
1118005.000000
1118867.000000
1119751.000000
1120676.000000
1121596.000000
1122528.000000
1123550.000000
1124637.000000
1125696.000000
1126700.000000
1127689.000000
1128656.000000
1129586.000000
1130489.000000
1131343.000000
1132262.000000
1133269.000000
1134325.000000
1135310.000000
1136296.000000
1137335.000000
1138360.000000
1139346.000000
1140262.000000
1141140.000000
1142031.000000
1142929.000000
1143841.000000
1144718.000000
1145602.000000
1146508.000000
1147427.000000
1148301.000000
1149170.000000
1150063.000000
1150969.000000
1151883.000000
1152773.000000
1153648.000000
1154523.000000
1155388.000000
1156242.000000
1157073.000000
1157928.000000
1158807.000000
1159728.000000
1160642.000000
1161516.000000
1162423.000000
1163340.000000
1164271.000000
1165154.000000
1166003.000000
1166879.000000
1167798.000000
1168733.000000
1169613.000000
1170496.000000
1171419.000000
1172367.000000
1173319.000000
1174222.000000
1175202.000000
1176191.000000
1177157.000000
1178095.000000
1178974.000000
1179874.000000
1180842.000000
1181877.000000
1182895.000000
1183920.000000
1184963.000000
1186011.000000
1187007.000000
1187921.000000
1188832.000000
1189808.000000
1190844.000000
1191874.000000
1192906.000000
1194008.000000
1195098.000000
1196105.000000
1197099.000000
1198113.000000
1199099.000000
1200022.000000
1201003.000000
1202012.000000
1202997.000000
1203997.000000
1205005.000000
1206016.000000
1206979.000000
1207892.000000
1208848.000000
1209856.000000
1210879.000000
1211837.000000
1212687.000000
1213501.000000
1214308.000000
1215195.000000
1216160.000000
1217099.000000
1218011.000000
1218966.000000
1219936.000000
1220853.000000
1221736.000000
1222635.000000
1223553.000000
1224466.000000
1225357.000000
1226228.000000
1227142.000000
1228118.000000
1229089.000000
1230031.000000
1231020.000000
1232022.000000
1232999.000000
1233934.000000
1234926.000000
1235958.000000
1236976.000000
1237923.000000
1238902.000000
1239936.000000
1240957.000000
1241960.000000
1242986.000000
1244043.000000
1245040.000000
1246020.000000
1247041.000000
1248067.000000
1249052.000000
1249999.000000
1250989.000000
1251998.000000
1253017.000000
1253975.000000
1254909.000000
1255865.000000
1256835.000000
1257772.000000
1258647.000000
1259532.000000
1260444.000000
1261367.000000
1262248.000000
1263115.000000
1264021.000000
1264952.000000
1265881.000000
1266776.000000
1267704.000000
1268684.000000
1269695.000000
1270706.000000
1271656.000000
1272597.000000
1273563.000000
1274542.000000
1275543.000000
1276499.000000
1277518.000000
1278562.000000
1279606.000000
1280610.000000
1281626.000000
1282651.000000
1283689.000000
1284682.000000
1285694.000000
1286736.000000
1287752.000000
1288720.000000
1289751.000000
1290784.000000
1291805.000000
1292750.000000
1293717.000000
1294737.000000
1295779.000000
1296785.000000
1297787.000000
1298830.000000
1299876.000000
1300907.000000
1301859.000000
1302761.000000
1303693.000000
1304693.000000
1305716.000000
1306703.000000
1307740.000000
1308795.000000
1309838.000000
1310820.000000
1311777.000000
1312750.000000
1313758.000000
1314772.000000
1315735.000000
1316739.000000
1317775.000000
1318816.000000
1319808.000000
1320814.000000
1321850.000000
1322855.000000
1323791.000000
1324717.000000
1325721.000000
1326807.000000
1327862.000000
1328847.000000
1329899.000000
1330967.000000
1331995.000000
1332993.000000
1334051.000000
1335140.000000
1336190.000000
1337192.000000
1338203.000000
1339189.000000
1340138.000000
1341073.000000
1342074.000000
1343120.000000
1344175.000000
1345194.000000
1346249.000000
1347323.000000
1348397.000000
1349420.000000
1350462.000000
1351494.000000
1352500.000000
1353494.000000
1354449.000000
1355462.000000
1356537.000000
1357636.000000
1358691.000000
1359799.000000
1360875.000000
1361898.000000
1362857.000000
1363858.000000
1364876.000000
1365882.000000
1366853.000000
1367899.000000
1368978.000000
1370033.000000
1371009.000000
1371972.000000
1372965.000000
1373986.000000
1375000.000000
1375976.000000
1376997.000000
1378034.000000
1379027.000000
1379995.000000
1380999.000000
1382033.000000
1383046.000000
1383990.000000
1384971.000000
1385956.000000
1386938.000000
1387860.000000
1388842.000000
1389870.000000
1390932.000000
1391931.000000
1392948.000000
1393988.000000
1395014.000000
1395997.000000
1396922.000000
1397901.000000
1398926.000000
1399941.000000
1400884.000000
1401873.000000
1402920.000000
1403988.000000
1405001.000000
1406005.000000
1407074.000000
1408151.000000
1409176.000000
1410180.000000
1411248.000000
1412360.000000
1413380.000000
1414406.000000
1415461.000000
1416519.000000
1417527.000000
1418486.000000
1419469.000000
1420483.000000
1421497.000000
1422445.000000
1423439.000000
1424459.000000
1425503.000000
1426486.000000
1427442.000000
1428469.000000
1429486.000000
1430465.000000
1431443.000000
1432478.000000
1433520.000000
1434498.000000
1435453.000000
1436410.000000
1437418.000000
1438439.000000
1439424.000000
1440420.000000
1441484.000000
1442607.000000
1443679.000000
1444797.000000
1445945.000000
1447037.000000
1448054.000000
1449081.000000
1450160.000000
1451285.000000
1452370.000000
1453387.000000
1454451.000000
1455530.000000
1456602.000000
1457659.000000
1458690.000000
1459768.000000
1460838.000000
1461894.000000
1462890.000000
1463873.000000
1464901.000000
1465967.000000
1467018.000000
1468003.000000
1469048.000000
1470086.000000
1471086.000000
1472018.000000
1473049.000000
1474178.000000
1475253.000000
1476272.000000
1477361.000000
1478471.000000
1479571.000000
1480613.000000
1481640.000000
1482681.000000
1483744.000000
1484801.000000
1485818.000000
1486948.000000
1488072.000000
1489116.000000
1490141.000000
1491180.000000
1492218.000000
1493185.000000
1494231.000000
1495337.000000
1496445.000000
1497497.000000
1498554.000000
1499606.000000
1500626.000000
1501556.000000
1502504.000000
1503477.000000
1504470.000000
1505428.000000
1506470.000000
1507526.000000
1508529.000000
1509520.000000
1510555.000000
1511596.000000
1512554.000000
1513526.000000
1514576.000000
1515613.000000
1516599.000000
1517541.000000
1518543.000000
1519579.000000
1520513.000000
1521400.000000
1522258.000000
1523178.000000
1524062.000000
1524974.000000
1525949.000000
1526963.000000
1527918.000000
1528863.000000
1529830.000000
1530805.000000
1531734.000000
1532633.000000
1533571.000000
1534530.000000
1535481.000000
1536394.000000
1537349.000000
1538324.000000
1539296.000000
1540198.000000
1541091.000000
1542005.000000
1542954.000000
1543866.000000
1544793.000000
1545768.000000
1546749.000000
1547688.000000
1548606.000000
1549567.000000
1550554.000000
1551511.000000
1552448.000000
1553411.000000
1554378.000000
1555308.000000
1556185.000000
1557107.000000
1558068.000000
1559016.000000
1559938.000000
1560907.000000
1561904.000000
1562904.000000
1563869.000000
1564874.000000
1565894.000000
1566927.000000
1567919.000000
1568869.000000
1569866.000000
1570905.000000
1571968.000000
1573006.000000
1574051.000000
1575140.000000
1576213.000000
1577249.000000
1578251.000000
1579328.000000
1580454.000000
1581574.000000
1582615.000000
1583685.000000
1584764.000000
1585818.000000
1586863.000000
1587866.000000
1588944.000000
1590076.000000
1591167.000000
1592216.000000
1593320.000000
1594410.000000
1595439.000000
1596434.000000
1597504.000000
1598594.000000
1599619.000000
1600591.000000
1601593.000000
1602667.000000
1603746.000000
1604787.000000
1605886.000000
1607019.000000
1608103.000000
1609132.000000
1610198.000000
1611268.000000
1612307.000000
1613316.000000
1614391.000000
1615491.000000
1616554.000000
1617570.000000
1618610.000000
1619668.000000
1620739.000000
1621749.000000
1622745.000000
1623798.000000
1624896.000000
1625968.000000
1627035.000000
1628163.000000
1629284.000000
1630326.000000
1631389.000000
1632473.000000
1633525.000000
1634530.000000
1635533.000000
1636610.000000
1637748.000000
1638814.000000
1639835.000000
1640938.000000
1642033.000000
1643061.000000
1644090.000000
1645153.000000
1646207.000000
1647198.000000
1648190.000000
1649217.000000
1650247.000000
1651229.000000
1652166.000000
1653179.000000
1654236.000000
1655275.000000
1656276.000000
1657344.000000
1658432.000000
1659498.000000
1660500.000000
1661463.000000
1662477.000000
1663525.000000
1664569.000000
1665562.000000
1666597.000000
1667639.000000
1668692.000000
1669680.000000
1670681.000000
1671733.000000
1672790.000000
1673817.000000
1674817.000000
1675868.000000
1676943.000000
1677954.000000
1678968.000000
1679990.000000
1681010.000000
1681967.000000
1683014.000000
1684101.000000
1685168.000000
1686184.000000
1687195.000000
1688213.000000
1689247.000000
1690242.000000
1691264.000000
1692305.000000
1693344.000000
1694354.000000
1695343.000000
1696377.000000
1697434.000000
1698427.000000
1699458.000000
1700511.000000
1701562.000000
1702573.000000
1703633.000000
1704701.000000
1705769.000000
1706785.000000
1707818.000000
1708837.000000
1709868.000000
1710912.000000
1711885.000000
1712855.000000
1713839.000000
1714817.000000
1715760.000000
1716725.000000
1717715.000000
1718704.000000
1719664.000000
1720637.000000
1721642.000000
1722631.000000
1723567.000000
1724518.000000
1725476.000000
1726451.000000
1727403.000000
1728353.000000
1729395.000000
1730479.000000
1731522.000000
1732495.000000
1733473.000000
1734505.000000
1735545.000000
1736561.000000
1737634.000000
1738731.000000
1739770.000000
1740736.000000
1741721.000000
1742751.000000
1743791.000000
1744802.000000
1745924.000000
1747073.000000
1748191.000000
1749263.000000
1750254.000000
1751295.000000
1752337.000000
1753374.000000
1754382.000000
1755353.000000
1756413.000000
1757539.000000
1758600.000000
1759571.000000
1760578.000000
1761637.000000
1762680.000000
1763676.000000
1764739.000000
1765849.000000
1766858.000000
1767787.000000
1768657.000000
1769529.000000
1770471.000000
1771384.000000
1772301.000000
1773272.000000
1774284.000000
1775251.000000
1776170.000000
1777129.000000
1778114.000000
1779102.000000
1780085.000000
1781016.000000
1782011.000000
1783061.000000
1784086.000000
1785054.000000
1786048.000000
1787068.000000
1788085.000000
1789072.000000
1790021.000000
1791017.000000
1792034.000000
1793016.000000
1793977.000000
1794978.000000
1795987.000000
1796958.000000
1797914.000000
