ECG (ms)
510.000000
1576.000000
2527.000000
3432.000000
4320.000000
5267.000000
6509.000000
7731.000000
8918.000000
10088.000000
11230.000000
12245.000000
13117.000000
13923.000000
14748.000000
16015.000000
17287.000000
18478.000000
19678.000000
20893.000000
22011.000000
23001.000000
24059.000000
25204.000000
26401.000000
27487.000000
28521.000000
29601.000000
30774.000000
31906.000000
32939.000000
33892.000000
34841.000000
35933.000000
37074.000000
38236.000000
39395.000000
40412.000000
41378.000000
42438.000000
43592.000000
44780.000000
45909.000000
46947.000000
47936.000000
48986.000000
50145.000000
51301.000000
52444.000000
53546.000000
54630.000000
55691.000000
56729.000000
57814.000000
58894.000000
59961.000000
61029.000000
62083.000000
63091.000000
64044.000000
65014.000000
66084.000000
67155.000000
68085.000000
68885.000000
69741.000000
70599.000000
71422.000000
72246.000000
73344.000000
74576.000000
75821.000000
76983.000000
78105.000000
79143.000000
80137.000000
81172.000000
82291.000000
83387.000000
84520.000000
85657.000000
86726.000000
87704.000000
88577.000000
89666.000000
90867.000000
92032.000000
93172.000000
94298.000000
95356.000000
96330.000000
97204.000000
98088.000000
99176.000000
100318.000000
101462.000000
102576.000000
103665.000000
104653.000000
105603.000000
106641.000000
107751.000000
108860.000000
109932.000000
111019.000000
112058.000000
113065.000000
114025.000000
114996.000000
116009.000000
117114.000000
118237.000000
119353.000000
120422.000000
121395.000000
122267.000000
123127.000000
124268.000000
125453.000000
126616.000000
127743.000000
128812.000000
129829.000000
130854.000000
131888.000000
132896.000000
133990.000000
135146.000000
136248.000000
137302.000000
138301.000000
139265.000000
140177.000000
141118.000000
142191.000000
143293.000000
144393.000000
145467.000000
146463.000000
147362.000000
148203.000000
149102.000000
150200.000000
151317.000000
152466.000000
153599.000000
154655.000000
155695.000000
156755.000000
157847.000000
158992.000000
160131.000000
161281.000000
162391.000000
163434.000000
164496.000000
165555.000000
166604.000000
167719.000000
168799.000000
169844.000000
170847.000000
171777.000000
172638.000000
173491.000000
174408.000000
175412.000000
176440.000000
177442.000000
178439.000000
179488.000000
180590.000000
181652.000000
182651.000000
183616.000000
184565.000000
185660.000000
186781.000000
187875.000000
188961.000000
190024.000000
190992.000000
191873.000000
192687.000000
193651.000000
194744.000000
195879.000000
196997.000000
198085.000000
199111.000000
200042.000000
200910.000000
201826.000000
202903.000000
204032.000000
205169.000000
206272.000000
207299.000000
208244.000000
209165.000000
210253.000000
211340.000000
212409.000000
213463.000000
214492.000000
215455.000000
216325.000000
217178.000000
218132.000000
219248.000000
220343.000000
221423.000000
222441.000000
223321.000000
224154.000000
225201.000000
226227.000000
227234.000000
228281.000000
229334.000000
230335.000000
231283.000000
232260.000000
233223.000000
234161.000000
235078.000000
236093.000000
237141.000000
238139.000000
239090.000000
240013.000000
240968.000000
241961.000000
242907.000000
243757.000000
244530.000000
245335.000000
246154.000000
247001.000000
247858.000000
248995.000000
250144.000000
251238.000000
252322.000000
253354.000000
254270.000000
255157.000000
256142.000000
257159.000000
258143.000000
259084.000000
260151.000000
261287.000000
262344.000000
263375.000000
264372.000000
265403.000000
266453.000000
267384.000000
268355.000000
269391.000000
270385.000000
271360.000000
272419.000000
273555.000000
274612.000000
275627.000000
276660.000000
277662.000000
278621.000000
279513.000000
280390.000000
281293.000000
282394.000000
283499.000000
284608.000000
285695.000000
286722.000000
287725.000000
288683.000000
289637.000000
290686.000000
291795.000000
292861.000000
293928.000000
295030.000000
296104.000000
297115.000000
298180.000000
299240.000000
300226.000000
301197.000000
302159.000000
303240.000000
304359.000000
305447.000000
306550.000000
307575.000000
308584.000000
309590.000000
310580.000000
311550.000000
312565.000000
313549.000000
314584.000000
315620.000000
316595.000000
317636.000000
318691.000000
319697.000000
320721.000000
321738.000000
322728.000000
323749.000000
324821.000000
325864.000000
326906.000000
327874.000000
328866.000000
329897.000000
330923.000000
331921.000000
332999.000000
334036.000000
335010.000000
336053.000000
337115.000000
338116.000000
339163.000000
340167.000000
341155.000000
342206.000000
343230.000000
344198.000000
345214.000000
346279.000000
347298.000000
348326.000000
349345.000000
350326.000000
351317.000000
352361.000000
353358.000000
354309.000000
355309.000000
356351.000000
357370.000000
358432.000000
359456.000000
360375.000000
361290.000000
362238.000000
363173.000000
364194.000000
365357.000000
366467.000000
367456.000000
368452.000000
369495.000000
370503.000000
371544.000000
372630.000000
373730.000000
374841.000000
375907.000000
376978.000000
378031.000000
379010.000000
380001.000000
381012.000000
381972.000000
382964.000000
383964.000000
384951.000000
385968.000000
386874.000000
387599.000000
388310.000000
389069.000000
390209.000000
391284.000000
392357.000000
393428.000000
394435.000000
395307.000000
396149.000000
397174.000000
398222.000000
399251.000000
400299.000000
401341.000000
402356.000000
403394.000000
404389.000000
405335.000000
406346.000000
407380.000000
408398.000000
409462.000000
410496.000000
411507.000000
412542.000000
413540.000000
414533.000000
415539.000000
416530.000000
417480.000000
418474.000000
419460.000000
420466.000000
421512.000000
422542.000000
423573.000000
424612.000000
425586.000000
426579.000000
427561.000000
428487.000000
429472.000000
430481.000000
431456.000000
432536.000000
433623.000000
434644.000000
435676.000000
436706.000000
437679.000000
438710.000000
439794.000000
440844.000000
441949.000000
442991.000000
444019.000000
445095.000000
446139.000000
447171.000000
448221.000000
449212.000000
450225.000000
451288.000000
452334.000000
453401.000000
454498.000000
455524.000000
456548.000000
457586.000000
458639.000000
459705.000000
460703.000000
461716.000000
462757.000000
463765.000000
464813.000000
465891.000000
466868.000000
467880.000000
468919.000000
469894.000000
470897.000000
471932.000000
472942.000000
474000.000000
475061.000000
476088.000000
477146.000000
478170.000000
479181.000000
480242.000000
481287.000000
482342.000000
483365.000000
484341.000000
485374.000000
486392.000000
487418.000000
488494.000000
489529.000000
490617.000000
491688.000000
492701.000000
493723.000000
494755.000000
495801.000000
496861.000000
497909.000000
498959.000000
500020.000000
501024.000000
502038.000000
503028.000000
504014.000000
505069.000000
506120.000000
507135.000000
508156.000000
509150.000000
510149.000000
511182.000000
512163.000000
513175.000000
514198.000000
515178.000000
516182.000000
517212.000000
518196.000000
519199.000000
520207.000000
521184.000000
522179.000000
523195.000000
524150.000000
525146.000000
526124.000000
527048.000000
527878.000000
528602.000000
529316.000000
530093.000000
530857.000000
531853.000000
533051.000000
534143.000000
535249.000000
536333.000000
537319.000000
538256.000000
539293.000000
540377.000000
541404.000000
542512.000000
543572.000000
544554.000000
545537.000000
546596.000000
547682.000000
548751.000000
549809.000000
550859.000000
551900.000000
552986.000000
554051.000000
555116.000000
556176.000000
557191.000000
558249.000000
559307.000000
560361.000000
561439.000000
562504.000000
563527.000000
564550.000000
565505.000000
566475.000000
567514.000000
568569.000000
569658.000000
570727.000000
571755.000000
572806.000000
573806.000000
574815.000000
575827.000000
576837.000000
577896.000000
578943.000000
579944.000000
580988.000000
581977.000000
582954.000000
583972.000000
584981.000000
585949.000000
586968.000000
587986.000000
588985.000000
590021.000000
591033.000000
592022.000000
593017.000000
594019.000000
595002.000000
596019.000000
597004.000000
597984.000000
599030.000000
600069.000000
601129.000000
602177.000000
603162.000000
604112.000000
605093.000000
606081.000000
607139.000000
608236.000000
609312.000000
610412.000000
611501.000000
612534.000000
613613.000000
614719.000000
615774.000000
616882.000000
617935.000000
618947.000000
620052.000000
621110.000000
622211.000000
623335.000000
624425.000000
625558.000000
626667.000000
627709.000000
628757.000000
629748.000000
630621.000000
631377.000000
632118.000000
633116.000000
634131.000000
635229.000000
636317.000000
637451.000000
638555.000000
639650.000000
640763.000000
641838.000000
642904.000000
644013.000000
645116.000000
646178.000000
647206.000000
648199.000000
649125.000000
650113.000000
651162.000000
652247.000000
653414.000000
654522.000000
655618.000000
656740.000000
657836.000000
658961.000000
660034.000000
661050.000000
662125.000000
663165.000000
664249.000000
665345.000000
666306.000000
667332.000000
668444.000000
669510.000000
670542.000000
671679.000000
672832.000000
673935.000000
675024.000000
676039.000000
677114.000000
678233.000000
679296.000000
680383.000000
681478.000000
682526.000000
683580.000000
684579.000000
685519.000000
686502.000000
687534.000000
688612.000000
689739.000000
690875.000000
692013.000000
693176.000000
694245.000000
695247.000000
696275.000000
697266.000000
698332.000000
699387.000000
700456.000000
701580.000000
702696.000000
703826.000000
704893.000000
705997.000000
707166.000000
708256.000000
709372.000000
710491.000000
711561.000000
712664.000000
713752.000000
714755.000000
715757.000000
716763.000000
717734.000000
718782.000000
719858.000000
720952.000000
722082.000000
723174.000000
724254.000000
725369.000000
726437.000000
727415.000000
728431.000000
729438.000000
730419.000000
731520.000000
732653.000000
733800.000000
734948.000000
736019.000000
737048.000000
738095.000000
739142.000000
740231.000000
741364.000000
742476.000000
743635.000000
744766.000000
745870.000000
746988.000000
748060.000000
749140.000000
750183.000000
751139.000000
752132.000000
753190.000000
754255.000000
755425.000000
756517.000000
757576.000000
758669.000000
759760.000000
760849.000000
762031.000000
763179.000000
764299.000000
765421.000000
766544.000000
767661.000000
768818.000000
769928.000000
770937.000000
771928.000000
772919.000000
773928.000000
775026.000000
776123.000000
777242.000000
778410.000000
779516.000000
780649.000000
781790.000000
782922.000000
784110.000000
785273.000000
786439.000000
787606.000000
788734.000000
789888.000000
791079.000000
792202.000000
793205.000000
794171.000000
795189.000000
796195.000000
797312.000000
798487.000000
799675.000000
800853.000000
801993.000000
803161.000000
804161.000000
805069.000000
806158.000000
807335.000000
808517.000000
809603.000000
810718.000000
811826.000000
812856.000000
813912.000000
815023.000000
816063.000000
817117.000000
818145.000000
819142.000000
820185.000000
821195.000000
822228.000000
823278.000000
824255.000000
825237.000000
826160.000000
827020.000000
827930.000000
828890.000000
829842.000000
830854.000000
831871.000000
832884.000000
833937.000000
834961.000000
835897.000000
836825.000000
837722.000000
838582.000000
839496.000000
840495.000000
841460.000000
842505.000000
843537.000000
844526.000000
845542.000000
846507.000000
847336.000000
848061.000000
848753.000000
849492.000000
850312.000000
851380.000000
852460.000000
853512.000000
854586.000000
855617.000000
856582.000000
857520.000000
858378.000000
859262.000000
860228.000000
861147.000000
862144.000000
863212.000000
864222.000000
865229.000000
866196.000000
867155.000000
868170.000000
869179.000000
870177.000000
871175.000000
872145.000000
873116.000000
874118.000000
875044.000000
875907.000000
876752.000000
877533.000000
878245.000000
878969.000000
879822.000000
880947.000000
881978.000000
883056.000000
884110.000000
885048.000000
885971.000000
886896.000000
887778.000000
888750.000000
889745.000000
890707.000000
891733.000000
892763.000000
893773.000000
894796.000000
895780.000000
896723.000000
897726.000000
898724.000000
899714.000000
900780.000000
901851.000000
902869.000000
903896.000000
904909.000000
905874.000000
906913.000000
907935.000000
908996.000000
910129.000000
911173.000000
912239.000000
913303.000000
914311.000000
915340.000000
916323.000000
917336.000000
918385.000000
919412.000000
