ECG (ms)
14.000000
848.000000
1678.000000
2532.000000
3385.000000
4184.000000
4997.000000
5831.000000
6702.000000
7534.000000
8347.000000
9193.000000
10050.000000
10879.000000
11706.000000
12547.000000
13401.000000
14212.000000
15011.000000
15847.000000
16689.000000
17474.000000
18207.000000
18986.000000
19810.000000
20656.000000
21486.000000
22312.000000
23167.000000
24036.000000
24900.000000
25719.000000
26557.000000
27418.000000
28300.000000
29161.000000
29980.000000
30835.000000
31712.000000
32588.000000
33422.000000
34266.000000
35132.000000
36024.000000
36876.000000
37711.000000
38569.000000
39455.000000
40328.000000
41141.000000
41958.000000
42794.000000
43652.000000
44511.000000
45317.000000
46102.000000
46930.000000
47802.000000
48667.000000
49495.000000
50322.000000
51177.000000
52038.000000
52854.000000
53635.000000
54453.000000
55302.000000
56165.000000
56989.000000
57747.000000
58473.000000
59223.000000
60056.000000
60955.000000
61852.000000
62707.000000
63529.000000
64382.000000
65259.000000
66123.000000
66949.000000
67794.000000
68653.000000
69511.000000
70340.000000
71184.000000
72055.000000
72940.000000
73794.000000
74627.000000
75484.000000
76351.000000
77192.000000
78034.000000
78914.000000
79815.000000
80691.000000
81532.000000
82413.000000
83324.000000
84230.000000
85090.000000
85984.000000
86899.000000
87806.000000
88641.000000
89443.000000
90283.000000
91156.000000
92040.000000
92887.000000
93674.000000
94408.000000
95122.000000
95879.000000
96706.000000
97558.000000
98312.000000
99102.000000
99967.000000
100817.000000
101621.000000
102444.000000
103280.000000
104121.000000
104963.000000
105772.000000
106586.000000
107419.000000
108253.000000
109101.000000
109918.000000
110732.000000
111568.000000
112435.000000
113294.000000
114117.000000
114944.000000
115797.000000
116681.000000
117540.000000
118370.000000
119217.000000
120074.000000
120933.000000
121760.000000
122574.000000
123401.000000
124257.000000
125124.000000
125944.000000
126782.000000
127655.000000
128535.000000
129387.000000
130166.000000
130915.000000
131709.000000
132551.000000
133441.000000
134336.000000
135191.000000
136037.000000
136918.000000
137810.000000
138676.000000
139507.000000
140365.000000
141245.000000
142133.000000
142984.000000
143808.000000
144659.000000
145524.000000
146420.000000
147267.000000
148125.000000
149020.000000
149917.000000
150779.000000
151596.000000
152434.000000
153293.000000
154172.000000
155051.000000
155871.000000
156643.000000
157442.000000
158335.000000
159267.000000
160191.000000
161063.000000
161901.000000
162757.000000
163647.000000
164537.000000
165387.000000
166197.000000
167055.000000
167972.000000
168915.000000
169811.000000
170667.000000
171570.000000
172483.000000
173408.000000
174287.000000
175137.000000
176015.000000
176925.000000
177849.000000
178718.000000
179509.000000
180254.000000
181051.000000
181970.000000
182901.000000
183828.000000
184709.000000
185572.000000
186456.000000
187340.000000
188211.000000
189037.000000
189880.000000
190745.000000
191634.000000
192500.000000
193307.000000
194030.000000
194777.000000
195596.000000
196507.000000
197436.000000
198354.000000
199201.000000
199969.000000
200706.000000
201471.000000
202324.000000
203227.000000
204140.000000
205021.000000
205866.000000
206723.000000
207601.000000
208489.000000
209371.000000
210189.000000
210974.000000
211792.000000
212657.000000
213551.000000
214435.000000
215255.000000
216053.000000
216895.000000
217776.000000
218647.000000
219417.000000
220174.000000
220967.000000
221758.000000
222596.000000
223459.000000
224324.000000
225194.000000
226025.000000
226800.000000
227597.000000
228421.000000
229276.000000
230145.000000
231018.000000
231868.000000
232677.000000
233542.000000
234441.000000
235333.000000
236217.000000
237059.000000
237876.000000
238739.000000
239616.000000
240516.000000
241378.000000
242183.000000
243028.000000
243893.000000
244780.000000
245673.000000
246549.000000
247358.000000
248149.000000
248980.000000
249841.000000
250731.000000
251633.000000
252499.000000
253376.000000
254250.000000
255122.000000
255971.000000
256828.000000
257694.000000
258577.000000
259435.000000
260260.000000
261109.000000
261964.000000
262809.000000
263619.000000
264447.000000
265294.000000
266113.000000
266928.000000
267761.000000
268593.000000
269405.000000
270202.000000
271023.000000
271861.000000
272668.000000
273478.000000
274322.000000
275183.000000
276026.000000
276834.000000
277663.000000
278512.000000
279370.000000
280198.000000
281016.000000
281869.000000
282740.000000
283599.000000
284414.000000
285258.000000
286139.000000
287022.000000
287866.000000
288676.000000
289511.000000
290372.000000
291221.000000
292039.000000
292895.000000
293796.000000
294697.000000
295543.000000
296406.000000
297282.000000
298140.000000
298954.000000
299766.000000
300604.000000
301466.000000
302309.000000
303109.000000
303939.000000
304796.000000
305683.000000
306524.000000
307348.000000
308196.000000
309060.000000
309889.000000
310705.000000
311546.000000
312418.000000
313277.000000
314102.000000
314966.000000
315863.000000
316752.000000
317605.000000
318450.000000
319316.000000
320182.000000
321020.000000
321845.000000
322700.000000
323603.000000
324478.000000
325338.000000
326218.000000
327131.000000
328006.000000
328869.000000
329738.000000
330614.000000
331457.000000
332296.000000
333153.000000
334050.000000
334920.000000
335753.000000
336621.000000
337512.000000
338404.000000
339255.000000
340029.000000
340837.000000
341692.000000
342591.000000
343496.000000
344360.000000
345216.000000
346111.000000
347012.000000
347914.000000
348771.000000
349647.000000
350554.000000
351462.000000
352339.000000
353143.000000
353889.000000
354690.000000
355624.000000
356557.000000
357470.000000
358351.000000
359171.000000
360035.000000
360934.000000
361843.000000
362740.000000
363584.000000
364427.000000
365313.000000
366223.000000
367123.000000
367973.000000
368834.000000
369710.000000
370599.000000
371453.000000
372298.000000
373182.000000
374085.000000
374958.000000
375776.000000
376609.000000
377490.000000
378384.000000
379248.000000
380081.000000
380946.000000
381827.000000
382689.000000
383515.000000
384363.000000
385230.000000
386096.000000
386937.000000
387758.000000
388623.000000
389517.000000
390404.000000
391243.000000
392088.000000
392968.000000
393852.000000
394721.000000
395543.000000
396338.000000
397195.000000
398076.000000
398973.000000
399841.000000
400680.000000
401551.000000
402442.000000
403336.000000
404182.000000
405050.000000
405931.000000
406784.000000
407585.000000
408404.000000
409287.000000
410200.000000
411094.000000
411941.000000
412785.000000
413658.000000
414545.000000
415420.000000
416251.000000
417112.000000
417982.000000
418860.000000
419687.000000
420544.000000
421420.000000
422299.000000
423142.000000
423975.000000
424839.000000
425714.000000
426553.000000
427381.000000
428241.000000
429143.000000
430011.000000
430835.000000
431692.000000
432591.000000
433501.000000
434370.000000
435229.000000
436093.000000
436983.000000
437840.000000
438682.000000
439568.000000
440492.000000
441374.000000
442227.000000
443123.000000
444033.000000
444933.000000
445779.000000
446572.000000
447415.000000
448320.000000
449265.000000
450164.000000
451034.000000
451966.000000
452908.000000
453834.000000
454717.000000
455585.000000
456482.000000
457390.000000
458263.000000
459057.000000
459837.000000
460693.000000
461628.000000
462581.000000
463507.000000
464362.000000
465237.000000
466165.000000
467104.000000
467957.000000
468722.000000
469500.000000
470318.000000
471197.000000
472060.000000
472880.000000
473745.000000
474632.000000
475512.000000
476355.000000
477194.000000
478062.000000
478946.000000
479794.000000
480629.000000
481479.000000
482345.000000
483192.000000
484010.000000
484859.000000
485732.000000
486579.000000
487403.000000
488260.000000
489130.000000
489981.000000
490783.000000
491611.000000
492446.000000
493283.000000
494098.000000
494948.000000
495818.000000
496685.000000
497517.000000
498359.000000
499205.000000
500060.000000
500877.000000
501716.000000
502585.000000
503464.000000
504302.000000
505159.000000
506031.000000
506911.000000
507742.000000
508562.000000
509419.000000
510287.000000
511134.000000
511940.000000
512769.000000
513621.000000
514493.000000
515335.000000
516153.000000
517008.000000
517887.000000
518766.000000
519606.000000
520467.000000
521352.000000
522244.000000
523103.000000
523947.000000
524823.000000
525718.000000
526600.000000
527433.000000
528286.000000
529173.000000
530062.000000
530926.000000
531775.000000
532654.000000
533540.000000
534381.000000
535196.000000
536042.000000
536913.000000
537766.000000
538582.000000
539446.000000
540322.000000
541184.000000
542017.000000
542887.000000
543761.000000
544625.000000
545445.000000
546222.000000
547037.000000
547916.000000
548835.000000
549707.000000
550552.000000
551433.000000
552339.000000
553234.000000
554079.000000
554937.000000
555831.000000
556736.000000
557589.000000
558452.000000
559338.000000
560235.000000
561083.000000
561922.000000
562801.000000
563711.000000
564579.000000
565441.000000
566324.000000
567228.000000
568108.000000
568959.000000
569852.000000
570754.000000
571641.000000
572479.000000
573261.000000
574034.000000
574868.000000
575675.000000
576439.000000
577307.000000
578201.000000
579037.000000
579848.000000
580690.000000
581549.000000
582397.000000
583216.000000
584019.000000
584855.000000
585731.000000
586600.000000
587448.000000
588255.000000
589091.000000
589963.000000
590848.000000
591729.000000
592591.000000
593410.000000
594274.000000
595161.000000
596058.000000
596937.000000
597750.000000
598569.000000
599453.000000
600372.000000
601289.000000
602182.000000
603073.000000
603982.000000
604904.000000
605807.000000
606681.000000
607601.000000
608532.000000
609444.000000
610370.000000
611314.000000
612259.000000
613164.000000
614091.000000
615041.000000
615980.000000
616881.000000
617807.000000
618763.000000
619654.000000
620519.000000
621443.000000
622410.000000
623374.000000
624277.000000
625205.000000
626155.000000
627119.000000
628034.000000
628955.000000
629897.000000
630840.000000
631737.000000
632650.000000
633614.000000
634590.000000
635505.000000
636432.000000
637389.000000
638347.000000
639239.000000
640137.000000
641077.000000
642024.000000
642928.000000
643832.000000
644776.000000
645731.000000
646641.000000
647523.000000
648437.000000
649368.000000
650271.000000
651103.000000
651879.000000
652703.000000
653635.000000
654595.000000
655525.000000
656386.000000
657273.000000
658201.000000
659130.000000
660006.000000
660885.000000
661790.000000
662714.000000
663588.000000
664437.000000
665344.000000
666285.000000
667208.000000
668094.000000
669014.000000
669952.000000
670889.000000
671780.000000
672677.000000
673603.000000
674552.000000
675459.000000
676353.000000
677288.000000
678227.000000
679148.000000
680009.000000
680914.000000
681855.000000
682776.000000
683658.000000
684560.000000
685504.000000
686448.000000
687364.000000
688264.000000
689207.000000
690162.000000
691107.000000
691982.000000
692891.000000
693828.000000
694758.000000
695652.000000
696544.000000
697466.000000
698367.000000
699217.000000
700067.000000
700984.000000
701926.000000
702829.000000
703690.000000
704588.000000
705507.000000
706422.000000
707282.000000
708159.000000
709058.000000
709971.000000
710842.000000
711729.000000
712651.000000
713594.000000
714503.000000
715361.000000
716257.000000
717177.000000
718069.000000
718911.000000
719771.000000
720673.000000
721581.000000
722456.000000
723319.000000
724216.000000
725146.000000
726052.000000
726909.000000
727770.000000
728671.000000
729590.000000
730476.000000
731342.000000
732269.000000
733209.000000
734110.000000
734977.000000
735903.000000
736835.000000
737715.000000
738582.000000
739484.000000
740417.000000
741325.000000
742210.000000
743122.000000
744044.000000
744933.000000
745822.000000
746745.000000
747682.000000
748579.000000
749468.000000
750389.000000
751329.000000
752238.000000
753076.000000
753862.000000
754707.000000
755641.000000
756600.000000
757526.000000
758389.000000
759292.000000
760236.000000
761163.000000
762050.000000
762913.000000
763807.000000
764738.000000
765686.000000
766590.000000
767504.000000
768446.000000
769385.000000
770291.000000
771109.000000
771904.000000
772750.000000
773704.000000
774657.000000
775609.000000
776489.000000
777325.000000
778229.000000
779163.000000
780054.000000
780840.000000
781609.000000
782443.000000
783348.000000
784234.000000
785081.000000
785964.000000
786868.000000
787778.000000
788666.000000
789544.000000
790454.000000
791372.000000
792240.000000
793102.000000
794000.000000
794924.000000
795797.000000
796607.000000
797422.000000
798302.000000
799216.000000
800140.000000
801011.000000
801894.000000
802811.000000
803733.000000
804619.000000
805479.000000
806361.000000
807274.000000
808188.000000
809051.000000
809931.000000
810841.000000
811757.000000
812654.000000
813555.000000
814477.000000
815395.000000
816267.000000
817153.000000
818063.000000
818978.000000
819846.000000
820721.000000
821620.000000
822527.000000
823405.000000
824289.000000
825193.000000
826102.000000
826961.000000
827822.000000
828713.000000
829627.000000
830502.000000
831368.000000
832257.000000
833157.000000
834019.000000
834867.000000
835741.000000
836646.000000
837526.000000
838355.000000
839220.000000
840133.000000
841056.000000
841911.000000
842765.000000
843664.000000
844577.000000
845462.000000
846339.000000
847237.000000
848135.000000
849011.000000
849865.000000
850762.000000
851673.000000
852563.000000
853421.000000
854321.000000
855249.000000
856138.000000
856965.000000
857824.000000
858728.000000
859659.000000
860562.000000
861402.000000
862265.000000
863179.000000
864109.000000
864991.000000
865845.000000
866735.000000
867635.000000
868515.000000
869369.000000
870262.000000
871177.000000
872097.000000
872971.000000
873789.000000
874641.000000
875540.000000
876463.000000
877373.000000
878252.000000
879062.000000
879818.000000
880573.000000
881397.000000
882317.000000
883273.000000
884208.000000
885108.000000
885999.000000
886914.000000
887763.000000
888646.000000
889557.000000
890427.000000
891214.000000
892033.000000
892891.000000
893698.000000
894509.000000
895366.000000
896253.000000
897154.000000
898060.000000
898933.000000
899787.000000
900681.000000
901618.000000
902552.000000
903458.000000
904311.000000
905189.000000
906125.000000
907072.000000
908018.000000
908925.000000
909816.000000
910722.000000
911648.000000
912558.000000
913439.000000
914320.000000
915264.000000
916221.000000
917180.000000
918106.000000
919001.000000
919948.000000
920905.000000
921862.000000
922776.000000
923702.000000
924633.000000
925577.000000
926478.000000
927356.000000
928319.000000
929314.000000
930313.000000
931261.000000
932162.000000
933106.000000
934070.000000
935015.000000
935905.000000
936726.000000
937584.000000
938557.000000
939553.000000
940528.000000
941432.000000
942387.000000
943367.000000
944329.000000
945243.000000
946163.000000
947117.000000
948074.000000
948990.000000
949857.000000
950758.000000
951690.000000
952626.000000
953508.000000
954330.000000
955222.000000
956169.000000
957120.000000
958018.000000
958902.000000
959829.000000
960765.000000
961683.000000
962551.000000
963417.000000
964314.000000
965209.000000
966070.000000
966898.000000
967789.000000
968741.000000
969689.000000
970608.000000
971448.000000
972313.000000
973239.000000
974183.000000
975093.000000
975956.000000
976830.000000
977744.000000
978666.000000
979565.000000
980401.000000
981211.000000
982090.000000
983017.000000
983943.000000
984813.000000
985670.000000
986574.000000
987497.000000
988403.000000
989258.000000
990126.000000
991021.000000
991924.000000
992791.000000
993633.000000
994512.000000
995409.000000
996304.000000
997153.000000
997981.000000
998858.000000
999755.000000
1000642.000000
1001479.000000
1002348.000000
1003254.000000
1004172.000000
1005015.000000
1005840.000000
1006708.000000
1007604.000000
1008481.000000
1009311.000000
1010179.000000
1011102.000000
1012024.000000
1012900.000000
1013777.000000
1014687.000000
1015612.000000
1016512.000000
1017388.000000
1018308.000000
1019247.000000
1020159.000000
1021032.000000
1021943.000000
1022883.000000
1023789.000000
1024649.000000
1025542.000000
1026466.000000
1027391.000000
1028269.000000
1029160.000000
1030114.000000
1031077.000000
1032006.000000
1032861.000000
1033652.000000
1034481.000000
1035403.000000
1036381.000000
1037356.000000
1038272.000000
1039141.000000
1040060.000000
1041006.000000
1041950.000000
1042848.000000
1043746.000000
1044698.000000
1045658.000000
1046602.000000
1047486.000000
1048345.000000
1049257.000000
1050219.000000
1051168.000000
1052056.000000
1052883.000000
1053758.000000
1054678.000000
1055588.000000
1056478.000000
1057322.000000
1058213.000000
1059131.000000
1060054.000000
1060941.000000
1061808.000000
1062738.000000
1063678.000000
1064594.000000
1065473.000000
1066404.000000
1067359.000000
1068297.000000
1069181.000000
1070053.000000
1070962.000000
1071899.000000
1072802.000000
1073643.000000
1074472.000000
1075351.000000
1076292.000000
1077242.000000
1078141.000000
1078989.000000
1079879.000000
1080805.000000
1081754.000000
1082645.000000
1083511.000000
1084405.000000
1085338.000000
1086261.000000
1087130.000000
1088011.000000
1088922.000000
1089844.000000
1090743.000000
1091633.000000
1092559.000000
1093482.000000
1094367.000000
1095217.000000
1096107.000000
1097033.000000
1097935.000000
1098790.000000
1099660.000000
1100562.000000
1101468.000000
1102339.000000
1103179.000000
1104048.000000
1104952.000000
1105853.000000
1106715.000000
1107574.000000
1108477.000000
1109376.000000
1110248.000000
1111052.000000
1111864.000000
1112735.000000
1113647.000000
1114527.000000
1115367.000000
1116248.000000
1117174.000000
1118105.000000
1118976.000000
1119835.000000
1120721.000000
1121643.000000
1122526.000000
1123382.000000
1124281.000000
1125195.000000
1126113.000000
1126995.000000
1127879.000000
1128819.000000
1129760.000000
1130656.000000
1131532.000000
1132454.000000
1133399.000000
1134298.000000
1135169.000000
1136078.000000
1137021.000000
1137943.000000
1138812.000000
1139708.000000
1140628.000000
1141536.000000
1142384.000000
1143242.000000
1144162.000000
1145105.000000
1145996.000000
1146837.000000
1147725.000000
1148640.000000
1149540.000000
1150389.000000
1151247.000000
1152133.000000
1153051.000000
1153937.000000
1154786.000000
1155700.000000
1156671.000000
1157619.000000
1158491.000000
1159306.000000
1160097.000000
1160939.000000
1161889.000000
1162847.000000
1163784.000000
1164660.000000
1165545.000000
1166463.000000
1167381.000000
1168276.000000
1169125.000000
1170000.000000
1170904.000000
1171806.000000
1172680.000000
1173518.000000
1174377.000000
1175268.000000
1176165.000000
1177035.000000
1177857.000000
1178644.000000
1179475.000000
1180380.000000
1181303.000000
1182223.000000
1183097.000000
1183930.000000
1184796.000000
1185708.000000
1186635.000000
1187518.000000
1188353.000000
1189230.000000
1190132.000000
1191049.000000
1191926.000000
1192766.000000
1193637.000000
1194548.000000
1195438.000000
1196287.000000
1197092.000000
1197948.000000
1198883.000000
1199811.000000
1200689.000000
1201535.000000
1202423.000000
1203338.000000
1204248.000000
1205115.000000
1205993.000000
1206902.000000
1207844.000000
1208731.000000
1209575.000000
1210468.000000
1211400.000000
1212341.000000
1213240.000000
1214088.000000
1214975.000000
1215889.000000
1216809.000000
1217681.000000
1218569.000000
1219495.000000
1220441.000000
1221345.000000
1222207.000000
1223104.000000
1224047.000000
1224998.000000
1225899.000000
1226824.000000
