ECG (ms)
200.000000
1195.000000
2182.000000
3195.000000
4195.000000
5193.000000
6207.000000
7218.000000
8228.000000
9227.000000
10237.000000
11234.000000
12231.000000
13274.000000
14309.000000
15312.000000
16313.000000
17333.000000
18341.000000
19337.000000
20313.000000
21286.000000
22265.000000
23227.000000
24384.000000
25453.000000
26521.000000
27571.000000
28616.000000
29661.000000
30701.000000
31735.000000
32768.000000
33800.000000
34702.000000
35801.000000
36797.000000
37798.000000
38822.000000
39841.000000
40855.000000
41866.000000
42859.000000
43903.000000
45002.000000
46094.000000
47178.000000
48236.000000
49257.000000
50283.000000
51326.000000
52358.000000
53383.000000
54406.000000
55423.000000
56421.000000
57437.000000
58468.000000
59490.000000
60498.000000
61505.000000
62523.000000
63537.000000
64536.000000
65597.000000
66672.000000
67731.000000
68766.000000
69808.000000
70831.000000
71849.000000
72869.000000
73897.000000
74918.000000
75924.000000
76931.000000
77955.000000
78974.000000
79982.000000
80981.000000
81951.000000
83051.000000
84131.000000
85186.000000
86223.000000
87264.000000
88305.000000
89340.000000
90359.000000
91387.000000
92413.000000
93429.000000
94435.000000
95454.000000
96464.000000
97455.000000
98514.000000
99600.000000
100676.000000
101729.000000
102747.000000
103778.000000
104804.000000
105832.000000
106840.000000
107853.000000
108883.000000
109909.000000
110931.000000
111932.000000
112956.000000
113994.000000
115025.000000
116054.000000
117078.000000
118093.000000
119118.000000
120140.000000
121160.000000
122166.000000
123181.000000
124206.000000
125224.000000
126239.000000
127229.000000
128283.000000
129347.000000
130389.000000
131411.000000
132411.000000
133421.000000
134433.000000
135439.000000
136433.000000
137428.000000
138462.000000
139492.000000
140513.000000
141520.000000
142536.000000
143560.000000
144573.000000
145581.000000
146574.000000
147629.000000
148701.000000
149771.000000
150815.000000
151820.000000
152837.000000
153862.000000
154883.000000
155897.000000
156900.000000
157902.000000
158938.000000
159980.000000
161000.000000
162003.000000
163018.000000
164025.000000
165016.000000
166014.000000
167040.000000
168062.000000
169070.000000
170066.000000
171125.000000
172186.000000
173228.000000
174237.000000
175235.000000
176257.000000
177275.000000
178292.000000
179304.000000
180308.000000
181314.000000
182322.000000
183316.000000
184311.000000
185312.000000
186303.000000
187304.000000
188268.000000
189290.000000
190269.000000
191262.000000
192260.000000
193240.000000
194214.000000
195164.000000
196240.000000
197289.000000
198314.000000
199328.000000
200329.000000
201351.000000
202366.000000
203370.000000
204366.000000
205359.000000
206377.000000
207385.000000
208381.000000
209370.000000
210411.000000
211455.000000
212468.000000
213464.000000
214465.000000
215452.000000
216432.000000
217427.000000
218422.000000
219405.000000
220395.000000
221380.000000
222356.000000
223322.000000
224274.000000
225451.000000
226508.000000
227580.000000
228624.000000
229674.000000
230721.000000
231770.000000
232806.000000
233818.000000
234811.000000
235779.000000
236725.000000
237700.000000
238678.000000
239843.000000
240902.000000
241948.000000
242986.000000
244039.000000
245095.000000
246146.000000
247164.000000
248149.000000
249133.000000
250105.000000
251055.000000
252020.000000
252970.000000
253904.000000
255098.000000
256182.000000
257246.000000
258292.000000
259346.000000
260410.000000
261474.000000
262525.000000
263539.000000
264553.000000
265560.000000
266550.000000
267521.000000
268559.000000
269585.000000
270582.000000
271603.000000
272629.000000
273649.000000
274657.000000
275691.000000
276721.000000
277747.000000
278771.000000
279808.000000
280868.000000
281944.000000
283032.000000
284112.000000
285206.000000
286295.000000
287357.000000
288384.000000
289421.000000
290451.000000
291469.000000
292487.000000
293512.000000
294527.000000
295541.000000
296540.000000
297560.000000
298580.000000
299591.000000
300599.000000
301621.000000
302639.000000
303674.000000
304712.000000
305759.000000
306832.000000
307913.000000
308996.000000
310061.000000
311138.000000
312182.000000
313217.000000
314249.000000
315271.000000
316279.000000
317295.000000
318303.000000
319298.000000
320318.000000
321325.000000
322324.000000
323313.000000
324314.000000
325338.000000
326345.000000
327343.000000
328339.000000
329352.000000
330360.000000
331359.000000
332352.000000
333360.000000
334377.000000
335389.000000
336403.000000
337472.000000
338553.000000
339610.000000
340643.000000
341664.000000
342681.000000
343689.000000
344704.000000
345712.000000
346715.000000
347733.000000
348744.000000
349745.000000
350757.000000
351768.000000
352767.000000
353784.000000
354795.000000
355796.000000
356791.000000
357787.000000
358772.000000
359760.000000
360751.000000
361731.000000
362714.000000
363721.000000
364722.000000
365711.000000
366687.000000
367660.000000
368648.000000
369630.000000
370603.000000
371568.000000
372547.000000
373703.000000
374757.000000
375806.000000
376857.000000
377895.000000
378921.000000
379946.000000
380939.000000
381910.000000
382869.000000
383841.000000
384811.000000
385773.000000
386731.000000
387697.000000
388656.000000
389597.000000
390521.000000
391667.000000
392700.000000
393719.000000
394733.000000
395753.000000
396774.000000
397780.000000
398755.000000
399712.000000
400675.000000
401618.000000
402517.000000
403411.000000
404495.000000
405464.000000
406432.000000
407436.000000
408428.000000
409425.000000
410405.000000
411372.000000
412339.000000
413296.000000
414240.000000
415169.000000
416112.000000
417062.000000
417977.000000
419158.000000
420254.000000
421328.000000
422387.000000
423422.000000
424475.000000
425511.000000
426547.000000
427563.000000
428544.000000
429539.000000
430530.000000
431517.000000
432511.000000
433515.000000
434509.000000
435496.000000
436482.000000
437490.000000
438494.000000
439481.000000
440471.000000
441472.000000
442465.000000
443446.000000
444447.000000
445448.000000
446440.000000
447427.000000
448425.000000
449421.000000
450409.000000
451397.000000
452397.000000
453398.000000
454391.000000
455392.000000
456429.000000
457457.000000
458475.000000
459489.000000
460494.000000
461491.000000
462499.000000
463497.000000
464484.000000
465482.000000
466487.000000
467478.000000
468468.000000
469465.000000
470456.000000
471441.000000
472432.000000
473417.000000
474393.000000
475377.000000
476362.000000
477340.000000
478321.000000
479307.000000
480286.000000
481261.000000
482256.000000
483245.000000
484222.000000
485193.000000
486159.000000
487129.000000
488099.000000
489057.000000
490016.000000
490972.000000
492111.000000
493142.000000
494177.000000
495203.000000
496226.000000
497243.000000
498259.000000
499260.000000
500228.000000
501184.000000
502133.000000
503059.000000
504008.000000
504990.000000
505956.000000
506927.000000
507901.000000
508876.000000
509847.000000
510807.000000
511793.000000
512748.000000
513713.000000
514682.000000
515640.000000
516617.000000
517562.000000
518527.000000
519665.000000
520712.000000
521727.000000
522754.000000
523773.000000
524784.000000
525788.000000
526799.000000
527804.000000
528802.000000
529762.000000
530720.000000
531697.000000
532666.000000
533629.000000
534590.000000
535541.000000
536506.000000
537436.000000
538566.000000
539595.000000
540623.000000
541655.000000
542669.000000
543685.000000
544711.000000
545701.000000
546664.000000
547583.000000
548607.000000
549613.000000
550597.000000
551575.000000
552549.000000
553522.000000
554482.000000
555427.000000
556361.000000
557484.000000
558523.000000
559543.000000
560564.000000
561587.000000
562610.000000
563625.000000
564651.000000
565636.000000
566607.000000
567569.000000
568551.000000
569520.000000
570482.000000
571442.000000
572416.000000
573376.000000
574309.000000
575354.000000
576388.000000
577416.000000
578431.000000
579435.000000
580427.000000
581419.000000
582390.000000
583348.000000
584293.000000
585215.000000
586350.000000
587383.000000
588412.000000
589428.000000
590441.000000
591461.000000
592456.000000
593410.000000
594501.000000
595512.000000
596521.000000
597535.000000
598541.000000
599542.000000
600550.000000
601548.000000
602524.000000
603488.000000
604446.000000
605396.000000
606346.000000
607362.000000
608463.000000
609489.000000
610507.000000
611504.000000
612514.000000
613501.000000
614466.000000
615422.000000
616372.000000
617338.000000
618284.000000
619211.000000
620148.000000
621268.000000
622289.000000
623306.000000
624313.000000
625332.000000
626340.000000
627307.000000
628265.000000
629196.000000
630203.000000
631169.000000
632121.000000
633067.000000
633981.000000
634926.000000
635874.000000
636813.000000
637767.000000
638706.000000
639859.000000
640923.000000
641965.000000
642998.000000
644028.000000
645048.000000
646069.000000
647084.000000
648111.000000
649134.000000
650119.000000
651104.000000
652094.000000
653077.000000
654056.000000
655029.000000
656033.000000
657025.000000
658009.000000
658981.000000
659958.000000
660912.000000
662055.000000
663100.000000
664133.000000
665159.000000
666186.000000
667211.000000
668229.000000
669232.000000
670247.000000
671253.000000
672242.000000
673221.000000
674196.000000
675164.000000
676123.000000
677098.000000
678067.000000
679029.000000
679988.000000
680918.000000
681864.000000
682989.000000
684009.000000
685034.000000
686057.000000
687065.000000
688064.000000
689062.000000
690048.000000
691005.000000
691952.000000
692916.000000
693870.000000
694814.000000
695767.000000
696725.000000
697671.000000
698587.000000
699502.000000
700624.000000
701638.000000
702650.000000
703686.000000
704704.000000
705722.000000
706730.000000
707707.000000
708677.000000
709646.000000
710600.000000
711528.000000
712464.000000
713419.000000
714534.000000
715559.000000
716560.000000
717575.000000
718582.000000
719585.000000
720565.000000
721501.000000
722415.000000
723518.000000
724534.000000
725543.000000
726543.000000
727549.000000
728553.000000
729555.000000
730563.000000
731533.000000
732492.000000
733421.000000
734434.000000
735415.000000
736379.000000
737343.000000
738327.000000
739300.000000
740260.000000
741206.000000
742156.000000
743275.000000
744304.000000
745333.000000
746351.000000
747371.000000
748380.000000
749400.000000
750413.000000
751388.000000
752347.000000
753299.000000
754225.000000
755362.000000
756401.000000
757437.000000
758451.000000
759484.000000
760503.000000
761520.000000
762521.000000
763508.000000
764484.000000
765459.000000
766432.000000
767403.000000
768390.000000
769368.000000
770342.000000
771310.000000
772475.000000
773511.000000
774551.000000
775574.000000
776597.000000
777610.000000
778627.000000
779633.000000
780613.000000
781584.000000
782551.000000
783516.000000
784480.000000
785436.000000
786373.000000
787312.000000
788441.000000
789467.000000
790489.000000
791503.000000
792508.000000
793505.000000
794495.000000
795483.000000
796454.000000
797395.000000
798465.000000
799461.000000
800445.000000
801432.000000
802410.000000
803391.000000
804366.000000
805350.000000
806341.000000
807313.000000
808270.000000
809202.000000
810124.000000
811069.000000
811986.000000
812957.000000
813934.000000
814907.000000
815870.000000
816824.000000
817789.000000
818762.000000
819730.000000
820693.000000
821651.000000
822622.000000
823584.000000
824531.000000
825460.000000
826368.000000
827475.000000
828485.000000
829500.000000
830506.000000
831504.000000
832501.000000
833483.000000
834480.000000
835472.000000
836454.000000
837444.000000
838436.000000
839426.000000
840372.000000
841373.000000
842362.000000
843362.000000
844354.000000
845356.000000
846361.000000
847349.000000
848357.000000
849361.000000
850354.000000
851357.000000
852361.000000
853320.000000
854336.000000
855351.000000
856366.000000
857381.000000
858364.000000
859370.000000
860373.000000
861375.000000
862359.000000
863349.000000
864339.000000
865330.000000
866319.000000
867320.000000
868313.000000
869303.000000
870295.000000
871258.000000
872264.000000
873272.000000
874277.000000
875267.000000
876259.000000
877259.000000
878266.000000
879277.000000
880287.000000
881292.000000
882283.000000
883298.000000
884300.000000
885320.000000
886334.000000
887359.000000
888371.000000
889378.000000
890371.000000
891370.000000
892358.000000
893360.000000
894341.000000
895341.000000
896336.000000
897320.000000
898284.000000
899269.000000
900253.000000
901251.000000
902236.000000
903208.000000
