ECG (ms)
709.000000
1459.000000
2230.000000
3012.000000
3749.000000
4464.000000
5194.000000
5910.000000
6641.000000
7387.000000
8179.000000
8951.000000
9743.000000
10565.000000
11393.000000
12199.000000
12986.000000
13794.000000
14592.000000
15347.000000
16090.000000
16858.000000
17636.000000
18423.000000
19165.000000
19902.000000
20684.000000
21469.000000
22242.000000
22993.000000
23754.000000
24515.000000
25287.000000
26038.000000
26806.000000
27583.000000
28335.000000
29081.000000
29850.000000
30636.000000
31400.000000
32166.000000
32958.000000
33741.000000
34496.000000
35283.000000
36071.000000
36821.000000
37553.000000
38325.000000
39108.000000
39914.000000
40709.000000
41503.000000
42316.000000
43134.000000
43949.000000
44728.000000
45517.000000
46327.000000
47146.000000
47968.000000
48766.000000
49605.000000
50470.000000
51330.000000
52157.000000
53018.000000
53872.000000
54677.000000
55464.000000
56278.000000
57075.000000
57860.000000
58647.000000
59450.000000
60236.000000
60987.000000
61781.000000
62581.000000
63369.000000
64141.000000
64951.000000
65763.000000
66517.000000
67284.000000
68051.000000
68820.000000
69579.000000
70334.000000
71146.000000
71976.000000
72787.000000
73578.000000
74399.000000
75237.000000
76054.000000
76850.000000
77673.000000
78483.000000
79266.000000
80011.000000
80723.000000
81404.000000
82153.000000
83013.000000
83837.000000
84664.000000
85525.000000
86360.000000
87135.000000
87920.000000
88722.000000
89559.000000
90372.000000
91186.000000
92045.000000
92935.000000
93801.000000
94626.000000
95416.000000
96226.000000
97041.000000
97850.000000
98636.000000
99448.000000
100265.000000
101055.000000
101825.000000
102631.000000
103459.000000
104251.000000
105008.000000
105791.000000
106567.000000
107351.000000
108105.000000
108856.000000
109644.000000
110434.000000
111201.000000
111966.000000
112761.000000
113563.000000
114339.000000
115129.000000
115904.000000
116684.000000
117426.000000
118209.000000
119021.000000
119849.000000
120638.000000
121429.000000
122248.000000
123086.000000
123848.000000
124622.000000
125431.000000
126254.000000
126998.000000
127696.000000
128416.000000
129207.000000
129939.000000
130656.000000
131404.000000
132173.000000
132901.000000
133634.000000
134386.000000
135148.000000
135922.000000
136674.000000
137472.000000
138289.000000
139088.000000
139839.000000
140608.000000
141392.000000
142193.000000
142967.000000
143747.000000
144595.000000
145459.000000
146317.000000
147143.000000
147947.000000
148793.000000
149662.000000
150497.000000
151298.000000
152123.000000
152949.000000
153765.000000
154566.000000
155352.000000
156170.000000
157010.000000
157845.000000
158664.000000
159468.000000
160280.000000
161098.000000
161873.000000
162670.000000
163491.000000
164346.000000
165178.000000
165970.000000
166784.000000
167624.000000
168463.000000
169266.000000
170051.000000
170852.000000
171656.000000
172473.000000
173241.000000
174001.000000
174853.000000
175733.000000
176569.000000
177318.000000
178046.000000
178826.000000
179669.000000
180536.000000
181391.000000
182203.000000
182982.000000
183788.000000
184618.000000
185459.000000
186258.000000
187085.000000
187909.000000
188731.000000
189535.000000
190316.000000
191113.000000
191926.000000
192754.000000
193555.000000
194349.000000
195168.000000
195996.000000
196790.000000
197539.000000
198304.000000
199104.000000
199962.000000
200765.000000
201542.000000
202375.000000
203221.000000
204076.000000
204913.000000
205709.000000
206501.000000
207327.000000
208162.000000
208963.000000
209770.000000
210619.000000
211496.000000
212394.000000
213236.000000
214032.000000
214825.000000
215618.000000
216412.000000
217189.000000
217948.000000
218727.000000
219530.000000
220361.000000
221162.000000
221943.000000
222747.000000
223575.000000
224399.000000
225200.000000
226029.000000
226860.000000
227676.000000
228468.000000
229263.000000
230091.000000
230930.000000
231723.000000
232485.000000
233254.000000
234039.000000
234848.000000
235626.000000
236387.000000
237166.000000
237974.000000
238762.000000
239515.000000
240300.000000
241115.000000
241902.000000
242706.000000
243524.000000
244314.000000
245089.000000
245839.000000
246553.000000
247262.000000
247959.000000
248635.000000
249358.000000
250160.000000
250960.000000
251738.000000
252544.000000
253361.000000
254158.000000
254930.000000
255698.000000
256489.000000
257327.000000
258161.000000
258982.000000
259847.000000
260731.000000
261606.000000
262424.000000
263270.000000
264124.000000
264959.000000
265751.000000
266533.000000
267370.000000
268234.000000
269090.000000
269918.000000
270795.000000
271680.000000
272548.000000
273354.000000
274143.000000
274954.000000
275795.000000
276650.000000
277457.000000
278266.000000
279128.000000
280000.000000
280838.000000
281637.000000
282467.000000
283289.000000
284107.000000
284901.000000
285721.000000
286582.000000
287465.000000
288284.000000
289095.000000
289951.000000
290771.000000
291586.000000
292354.000000
293129.000000
293921.000000
294738.000000
295553.000000
296339.000000
297155.000000
297975.000000
298830.000000
299639.000000
300443.000000
301268.000000
302076.000000
302906.000000
303740.000000
304531.000000
305280.000000
306066.000000
306866.000000
307683.000000
308479.000000
309294.000000
310121.000000
310943.000000
311725.000000
312508.000000
313330.000000
314156.000000
314953.000000
315744.000000
316562.000000
317384.000000
318174.000000
318985.000000
319801.000000
320600.000000
321361.000000
322152.000000
322966.000000
323781.000000
324553.000000
325340.000000
326149.000000
326975.000000
327774.000000
328535.000000
329355.000000
330175.000000
331001.000000
331800.000000
332619.000000
333422.000000
334224.000000
334973.000000
335749.000000
336581.000000
337453.000000
338300.000000
339121.000000
339980.000000
340851.000000
341668.000000
342480.000000
343311.000000
344132.000000
344934.000000
345723.000000
346520.000000
347354.000000
348218.000000
349047.000000
349884.000000
350762.000000
351608.000000
352393.000000
353153.000000
353942.000000
354745.000000
355578.000000
356399.000000
357265.000000
358169.000000
359058.000000
359905.000000
360774.000000
361621.000000
362431.000000
363197.000000
363981.000000
364801.000000
365637.000000
366462.000000
367321.000000
368180.000000
369012.000000
369811.000000
370612.000000
371407.000000
372182.000000
372930.000000
373725.000000
374564.000000
375427.000000
376271.000000
377139.000000
378030.000000
378885.000000
379691.000000
380516.000000
381346.000000
382152.000000
382946.000000
383793.000000
384664.000000
385519.000000
386321.000000
387165.000000
388020.000000
388859.000000
389658.000000
390431.000000
391226.000000
392037.000000
392840.000000
393622.000000
394436.000000
395261.000000
396079.000000
396873.000000
397687.000000
398501.000000
399300.000000
400081.000000
400887.000000
401707.000000
402535.000000
403337.000000
404138.000000
404951.000000
405791.000000
406633.000000
407473.000000
408329.000000
409174.000000
409998.000000
410796.000000
411583.000000
412457.000000
413379.000000
414285.000000
415145.000000
415939.000000
416744.000000
417567.000000
418405.000000
419222.000000
420042.000000
420886.000000
421750.000000
422605.000000
423411.000000
424216.000000
425015.000000
425824.000000
426612.000000
427421.000000
428263.000000
429129.000000
429963.000000
430822.000000
431710.000000
432572.000000
433392.000000
434221.000000
435045.000000
435850.000000
436629.000000
437436.000000
438295.000000
439170.000000
440028.000000
440909.000000
441786.000000
442621.000000
443473.000000
444329.000000
445173.000000
445984.000000
446822.000000
447689.000000
448570.000000
449427.000000
450305.000000
451199.000000
452066.000000
452886.000000
453716.000000
454540.000000
455364.000000
456192.000000
457084.000000
458019.000000
458907.000000
459761.000000
460657.000000
461565.000000
462449.000000
463279.000000
464117.000000
464958.000000
465830.000000
466685.000000
467580.000000
468523.000000
469463.000000
470348.000000
471202.000000
472076.000000
472947.000000
473772.000000
474586.000000
475428.000000
476295.000000
477127.000000
477954.000000
478805.000000
479669.000000
480526.000000
481331.000000
482118.000000
482934.000000
483784.000000
484656.000000
485487.000000
486321.000000
487184.000000
488056.000000
488911.000000
489720.000000
490506.000000
491323.000000
492137.000000
492927.000000
493702.000000
494539.000000
495389.000000
496241.000000
497034.000000
497804.000000
498580.000000
499400.000000
500249.000000
501043.000000
501824.000000
502631.000000
503448.000000
504243.000000
505048.000000
505884.000000
506724.000000
507534.000000
508369.000000
509207.000000
510031.000000
510842.000000
511676.000000
512532.000000
513331.000000
514092.000000
514814.000000
515519.000000
516279.000000
517022.000000
517770.000000
518576.000000
519402.000000
520229.000000
521038.000000
521853.000000
522673.000000
523484.000000
524271.000000
525091.000000
525973.000000
526854.000000
527696.000000
528566.000000
529441.000000
530281.000000
531092.000000
531915.000000
532738.000000
533528.000000
534311.000000
535160.000000
536026.000000
536854.000000
537719.000000
538587.000000
539435.000000
540235.000000
541039.000000
541863.000000
542663.000000
543453.000000
544291.000000
545164.000000
546007.000000
546860.000000
547734.000000
548588.000000
549394.000000
550194.000000
551021.000000
551864.000000
552676.000000
553500.000000
554343.000000
555216.000000
556060.000000
556923.000000
557795.000000
558628.000000
559449.000000
560279.000000
561110.000000
561911.000000
562748.000000
563621.000000
564527.000000
565420.000000
566330.000000
567235.000000
568105.000000
568961.000000
569837.000000
570707.000000
571532.000000
572408.000000
573318.000000
574208.000000
575094.000000
576026.000000
576956.000000
577812.000000
578647.000000
579508.000000
580375.000000
581209.000000
582027.000000
582897.000000
583809.000000
584701.000000
585562.000000
586450.000000
587337.000000
588164.000000
588990.000000
589838.000000
590691.000000
591502.000000
592311.000000
593159.000000
594035.000000
594912.000000
595765.000000
596642.000000
597530.000000
598365.000000
599168.000000
600007.000000
600888.000000
601752.000000
602638.000000
603596.000000
604550.000000
605425.000000
606294.000000
607171.000000
608034.000000
608865.000000
609728.000000
610622.000000
611503.000000
612344.000000
613227.000000
614124.000000
614985.000000
615825.000000
616707.000000
617612.000000
618458.000000
619308.000000
620191.000000
621070.000000
621895.000000
622715.000000
623569.000000
624414.000000
625245.000000
626051.000000
626862.000000
627700.000000
628526.000000
629300.000000
630068.000000
630847.000000
631644.000000
632440.000000
633214.000000
634008.000000
634821.000000
635647.000000
636452.000000
637263.000000
638094.000000
638943.000000
639759.000000
640565.000000
641389.000000
642211.000000
642991.000000
643753.000000
644559.000000
645401.000000
646241.000000
647070.000000
647934.000000
648794.000000
649623.000000
650413.000000
651211.000000
652039.000000
652845.000000
653636.000000
654462.000000
655290.000000
656086.000000
656886.000000
657736.000000
658613.000000
659455.000000
660267.000000
661079.000000
661867.000000
662631.000000
663398.000000
664216.000000
665101.000000
665960.000000
666803.000000
667662.000000
668539.000000
669356.000000
670139.000000
670925.000000
671733.000000
672513.000000
673323.000000
674191.000000
675096.000000
675985.000000
676865.000000
677718.000000
678538.000000
679369.000000
680172.000000
680914.000000
681652.000000
682360.000000
683065.000000
683858.000000
684699.000000
685525.000000
686338.000000
687162.000000
687999.000000
688852.000000
689637.000000
690377.000000
691136.000000
691974.000000
692891.000000
693816.000000
694726.000000
695608.000000
696486.000000
697387.000000
698273.000000
699129.000000
699984.000000
700892.000000
701800.000000
702662.000000
703541.000000
704428.000000
705285.000000
706094.000000
706944.000000
707821.000000
708699.000000
709554.000000
710441.000000
711361.000000
712248.000000
713094.000000
713965.000000
714842.000000
715680.000000
716520.000000
717409.000000
718335.000000
719213.000000
720101.000000
720992.000000
721838.000000
722671.000000
723538.000000
724387.000000
725216.000000
726014.000000
726869.000000
727747.000000
728598.000000
729398.000000
730262.000000
731151.000000
732023.000000
732886.000000
733699.000000
734531.000000
735372.000000
736232.000000
737074.000000
737901.000000
738749.000000
739629.000000
740497.000000
741318.000000
742149.000000
742997.000000
743855.000000
744663.000000
745464.000000
746324.000000
747214.000000
748074.000000
748898.000000
749755.000000
750626.000000
751483.000000
752328.000000
753156.000000
754013.000000
754857.000000
755666.000000
756463.000000
757315.000000
758217.000000
759094.000000
759918.000000
760757.000000
761606.000000
762439.000000
763232.000000
764025.000000
764870.000000
765729.000000
766568.000000
767382.000000
768217.000000
769048.000000
769841.000000
770614.000000
771418.000000
772258.000000
773100.000000
773922.000000
774775.000000
775648.000000
776484.000000
777300.000000
778126.000000
778955.000000
779758.000000
780559.000000
781376.000000
782204.000000
783019.000000
783832.000000
784679.000000
785542.000000
786377.000000
787191.000000
788020.000000
788853.000000
789661.000000
790461.000000
791290.000000
792135.000000
792995.000000
793819.000000
794657.000000
795510.000000
796363.000000
797161.000000
797971.000000
798812.000000
799635.000000
800416.000000
801194.000000
802042.000000
802907.000000
803760.000000
804581.000000
805422.000000
806281.000000
807125.000000
807912.000000
808703.000000
809530.000000
810370.000000
811175.000000
812008.000000
812888.000000
813760.000000
814604.000000
815468.000000
816362.000000
817252.000000
818072.000000
818894.000000
819726.000000
820571.000000
821377.000000
822185.000000
823031.000000
823911.000000
824741.000000
825591.000000
826473.000000
827353.000000
828180.000000
828996.000000
829828.000000
830679.000000
831498.000000
832338.000000
833229.000000
834139.000000
835013.000000
835881.000000
836776.000000
837672.000000
838530.000000
839340.000000
840158.000000
840995.000000
841845.000000
842693.000000
843575.000000
844480.000000
845337.000000
846204.000000
847079.000000
847963.000000
848791.000000
849639.000000
850497.000000
851312.000000
852078.000000
852864.000000
853719.000000
854602.000000
855475.000000
856337.000000
857217.000000
858111.000000
858978.000000
859800.000000
860627.000000
861463.000000
862292.000000
863089.000000
863919.000000
864764.000000
865608.000000
866445.000000
867288.000000
868130.000000
868927.000000
869693.000000
870492.000000
871299.000000
872105.000000
872921.000000
873794.000000
874685.000000
875537.000000
876379.000000
877235.000000
878092.000000
878918.000000
879714.000000
880534.000000
881363.000000
882186.000000
882998.000000
883843.000000
884692.000000
885543.000000
886351.000000
887152.000000
887976.000000
888819.000000
889632.000000
890447.000000
891278.000000
892116.000000
892920.000000
893744.000000
894603.000000
895469.000000
896282.000000
897093.000000
897918.000000
898741.000000
899540.000000
900363.000000
901213.000000
902048.000000
902870.000000
903722.000000
904604.000000
905460.000000
906270.000000
907076.000000
907897.000000
908736.000000
909557.000000
910418.000000
911303.000000
912176.000000
913047.000000
913947.000000
914854.000000
915717.000000
916548.000000
917397.000000
918242.000000
919045.000000
919900.000000
920824.000000
921727.000000
922602.000000
923524.000000
924470.000000
925353.000000
926227.000000
927095.000000
927962.000000
928790.000000
929639.000000
930557.000000
931464.000000
932327.000000
933208.000000
934083.000000
934946.000000
935778.000000
936625.000000
937491.000000
938320.000000
939167.000000
940036.000000
940907.000000
941742.000000
942638.000000
943532.000000
944370.000000
945227.000000
946098.000000
946951.000000
947769.000000
948610.000000
949455.000000
950290.000000
951110.000000
951972.000000
952843.000000
953663.000000
954492.000000
955344.000000
956170.000000
956956.000000
957780.000000
958601.000000
959427.000000
960231.000000
961054.000000
961904.000000
962749.000000
963576.000000
964433.000000
965295.000000
966128.000000
966928.000000
967763.000000
968615.000000
969451.000000
970245.000000
971062.000000
971949.000000
972822.000000
973643.000000
974470.000000
975327.000000
976222.000000
977083.000000
977912.000000
978782.000000
979651.000000
980470.000000
981292.000000
982168.000000
983079.000000
983975.000000
984828.000000
985655.000000
986536.000000
987434.000000
988306.000000
989139.000000
990004.000000
990916.000000
991820.000000
992658.000000
993479.000000
994347.000000
995236.000000
996103.000000
996921.000000
997728.000000
998551.000000
999389.000000
1000221.000000
1001085.000000
1001961.000000
1002824.000000
1003676.000000
1004506.000000
1005351.000000
1006200.000000
1007020.000000
1007791.000000
1008573.000000
1009378.000000
1010202.000000
1011005.000000
1011812.000000
1012650.000000
1013512.000000
1014340.000000
1015142.000000
1015955.000000
1016779.000000
1017559.000000
1018342.000000
1019166.000000
1020018.000000
1020839.000000
1021636.000000
1022465.000000
1023295.000000
1024097.000000
1024895.000000
1025727.000000
1026560.000000
1027393.000000
1028192.000000
1029027.000000
1029873.000000
1030683.000000
1031492.000000
1032343.000000
1033219.000000
1034057.000000
1034902.000000
1035753.000000
1036607.000000
1037433.000000
1038230.000000
1039060.000000
1039915.000000
1040746.000000
1041552.000000
1042407.000000
1043269.000000
1044072.000000
1044840.000000
1045562.000000
1046258.000000
1046995.000000
1047793.000000
1048633.000000
1049458.000000
1050310.000000
1051182.000000
1052054.000000
1052854.000000
1053631.000000
1054422.000000
1055227.000000
1056050.000000
1056955.000000
1057875.000000
1058757.000000
1059689.000000
1060621.000000
1061493.000000
1062385.000000
1063270.000000
1064077.000000
1064887.000000
1065717.000000
1066539.000000
1067310.000000
1068158.000000
1069036.000000
1069879.000000
1070715.000000
1071596.000000
1072473.000000
1073303.000000
1074141.000000
1074997.000000
1075820.000000
1076623.000000
1077467.000000
1078337.000000
1079143.000000
1079960.000000
1080803.000000
1081665.000000
1082479.000000
1083334.000000
1084181.000000
1085002.000000
1085766.000000
1086561.000000
1087388.000000
1088239.000000
1089036.000000
1089836.000000
1090670.000000
1091521.000000
1092314.000000
1093072.000000
1093843.000000
1094624.000000
1095423.000000
1096207.000000
1096975.000000
1097779.000000
1098584.000000
1099373.000000
1100153.000000
1100966.000000
1101792.000000
1102578.000000
1103336.000000
1104112.000000
1104903.000000
1105704.000000
1106485.000000
1107304.000000
1108152.000000
1108982.000000
1109792.000000
1110599.000000
1111426.000000
1112228.000000
1113009.000000
1113791.000000
1114593.000000
1115429.000000
1116262.000000
1117056.000000
1117869.000000
1118699.000000
1119521.000000
1120326.000000
1121158.000000
1121964.000000
1122760.000000
1123530.000000
1124314.000000
1125112.000000
1125915.000000
1126696.000000
1127468.000000
1128293.000000
1129145.000000
1129992.000000
1130789.000000
1131601.000000
1132392.000000
1133124.000000
1133816.000000
1134524.000000
1135233.000000
1135940.000000
1136726.000000
1137583.000000
1138442.000000
1139301.000000
1140116.000000
1140935.000000
1141772.000000
1142606.000000
1143399.000000
1144177.000000
1145018.000000
1145898.000000
1146810.000000
1147674.000000
1148535.000000
1149424.000000
1150290.000000
1151088.000000
1151862.000000
1152647.000000
1153464.000000
1154270.000000
1155069.000000
1155905.000000
1156775.000000
1157628.000000
1158466.000000
1159338.000000
1160229.000000
1161086.000000
1161908.000000
1162739.000000
1163592.000000
1164470.000000
1165326.000000
1166159.000000
1167008.000000
1167879.000000
1168760.000000
1169596.000000
1170438.000000
1171299.000000
1172151.000000
1172981.000000
1173799.000000
1174637.000000
1175497.000000
1176332.000000
1177143.000000
1177976.000000
1178811.000000
1179628.000000
1180434.000000
1181271.000000
1182141.000000
1183008.000000
1183845.000000
1184700.000000
1185575.000000
1186417.000000
1187229.000000
1188052.000000
1188907.000000
1189784.000000
1190622.000000
1191455.000000
1192289.000000
1193128.000000
1193941.000000
1194750.000000
1195597.000000
1196455.000000
1197269.000000
1198102.000000
1198950.000000
1199801.000000
1200608.000000
1201427.000000
1202273.000000
1203122.000000
1203936.000000
1204764.000000
1205611.000000
1206426.000000
1207226.000000
1208070.000000
1208916.000000
1209704.000000
1210468.000000
1211296.000000
1212174.000000
1213007.000000
1213799.000000
1214630.000000
1215490.000000
1216307.000000
1217154.000000
1218033.000000
1218893.000000
1219788.000000
1220699.000000
1221576.000000
