ECG (ms)
654.000000
1755.000000
2872.000000
4000.000000
5129.000000
6246.000000
7362.000000
8480.000000
9591.000000
10678.000000
11779.000000
12896.000000
14007.000000
15088.000000
16169.000000
17262.000000
18347.000000
19407.000000
20486.000000
21598.000000
22728.000000
23838.000000
24959.000000
26090.000000
27190.000000
28274.000000
29371.000000
30451.000000
31508.000000
32549.000000
33597.000000
34637.000000
35651.000000
36670.000000
37721.000000
38820.000000
39928.000000
41035.000000
42168.000000
43302.000000
44399.000000
45480.000000
46557.000000
47649.000000
48718.000000
49789.000000
50874.000000
51962.000000
53050.000000
54126.000000
55192.000000
56258.000000
57307.000000
58333.000000
59363.000000
60403.000000
61440.000000
62470.000000
63509.000000
64571.000000
65679.000000
66744.000000
67825.000000
68902.000000
69965.000000
71016.000000
72087.000000
73170.000000
74241.000000
75317.000000
76397.000000
77481.000000
78579.000000
79666.000000
80759.000000
81860.000000
82959.000000
84041.000000
85113.000000
86196.000000
87288.000000
88356.000000
89405.000000
90473.000000
91545.000000
92614.000000
93665.000000
94726.000000
95811.000000
96887.000000
97943.000000
99001.000000
100081.000000
101154.000000
102210.000000
103288.000000
104375.000000
105439.000000
106485.000000
107545.000000
108618.000000
109675.000000
110719.000000
111778.000000
112846.000000
113934.000000
115005.000000
116067.000000
117143.000000
118191.000000
119234.000000
120300.000000
121396.000000
122459.000000
123541.000000
124654.000000
125755.000000
126829.000000
127929.000000
129030.000000
130101.000000
131156.000000
132217.000000
133278.000000
134326.000000
135376.000000
136444.000000
137504.000000
138556.000000
139620.000000
140687.000000
141738.000000
142785.000000
143846.000000
144925.000000
145975.000000
147031.000000
148118.000000
149198.000000
150263.000000
151339.000000
152426.000000
153493.000000
154541.000000
155602.000000
156665.000000
157718.000000
158751.000000
159796.000000
160845.000000
161904.000000
162958.000000
164026.000000
165113.000000
166186.000000
167231.000000
168287.000000
169353.000000
170417.000000
171459.000000
172492.000000
173534.000000
174581.000000
175609.000000
176636.000000
177689.000000
178741.000000
179779.000000
180839.000000
181893.000000
182924.000000
183959.000000
184999.000000
186028.000000
187051.000000
188094.000000
189141.000000
190173.000000
191227.000000
192304.000000
193369.000000
194426.000000
195508.000000
196589.000000
197638.000000
198686.000000
199734.000000
200776.000000
201809.000000
202857.000000
203922.000000
204977.000000
206027.000000
207107.000000
208197.000000
209271.000000
210328.000000
211400.000000
212463.000000
213539.000000
214596.000000
215672.000000
216763.000000
217855.000000
218926.000000
219994.000000
221085.000000
222171.000000
223248.000000
224318.000000
225396.000000
226477.000000
227539.000000
228587.000000
229650.000000
230716.000000
231766.000000
232808.000000
233878.000000
234951.000000
236016.000000
237066.000000
238149.000000
239219.000000
240243.000000
241244.000000
242246.000000
243266.000000
244273.000000
245284.000000
246323.000000
247366.000000
248403.000000
249470.000000
250533.000000
251577.000000
252641.000000
253701.000000
254744.000000
255816.000000
256883.000000
257930.000000
258978.000000
260028.000000
261060.000000
262088.000000
263130.000000
264168.000000
265208.000000
266262.000000
267321.000000
268357.000000
269403.000000
270457.000000
271499.000000
272540.000000
273594.000000
274638.000000
275661.000000
276685.000000
277711.000000
278718.000000
279714.000000
280723.000000
281754.000000
282772.000000
283791.000000
284830.000000
285870.000000
286895.000000
287932.000000
288967.000000
289982.000000
290983.000000
291997.000000
293012.000000
294014.000000
295023.000000
296049.000000
297069.000000
298080.000000
299104.000000
300137.000000
301155.000000
302175.000000
303220.000000
304262.000000
305290.000000
306348.000000
307407.000000
308471.000000
309516.000000
310565.000000
311629.000000
312689.000000
313732.000000
314758.000000
315788.000000
316821.000000
317860.000000
318886.000000
319927.000000
320988.000000
322058.000000
323122.000000
324167.000000
325219.000000
326285.000000
327327.000000
328368.000000
329437.000000
330493.000000
331536.000000
332574.000000
333640.000000
334711.000000
335751.000000
336785.000000
337832.000000
338884.000000
339921.000000
340959.000000
342009.000000
343065.000000
344129.000000
345172.000000
346225.000000
347294.000000
348356.000000
349459.000000
350548.000000
351623.000000
352724.000000
353831.000000
354901.000000
356005.000000
357115.000000
358196.000000
359278.000000
360394.000000
361508.000000
362595.000000
363674.000000
364768.000000
365852.000000
366911.000000
367982.000000
369067.000000
370130.000000
371193.000000
372278.000000
373349.000000
374398.000000
375447.000000
376498.000000
377526.000000
378553.000000
379601.000000
380659.000000
381700.000000
382761.000000
383823.000000
384870.000000
385937.000000
387034.000000
388140.000000
389218.000000
390311.000000
391399.000000
392466.000000
393529.000000
394598.000000
395671.000000
396725.000000
397780.000000
398862.000000
399939.000000
401005.000000
402093.000000
403197.000000
404273.000000
405353.000000
406437.000000
407503.000000
408556.000000
409630.000000
410693.000000
411751.000000
412805.000000
413885.000000
414967.000000
416028.000000
417076.000000
418130.000000
419174.000000
420203.000000
421227.000000
422270.000000
423320.000000
424354.000000
425391.000000
426437.000000
427488.000000
428510.000000
429537.000000
430567.000000
431597.000000
432640.000000
433698.000000
434781.000000
435879.000000
436949.000000
438018.000000
439104.000000
440200.000000
441278.000000
442350.000000
443437.000000
444516.000000
445565.000000
446611.000000
447666.000000
448711.000000
449741.000000
450762.000000
451783.000000
452819.000000
453860.000000
454890.000000
455942.000000
457014.000000
458059.000000
459106.000000
460187.000000
461260.000000
462306.000000
463359.000000
464417.000000
465481.000000
466533.000000
467579.000000
468639.000000
469698.000000
470745.000000
471768.000000
472793.000000
473824.000000
474848.000000
475869.000000
476914.000000
477962.000000
478990.000000
480029.000000
481071.000000
482106.000000
483139.000000
484184.000000
485239.000000
486272.000000
487300.000000
488340.000000
489408.000000
490463.000000
491512.000000
492579.000000
493647.000000
494687.000000
495726.000000
496780.000000
497827.000000
498857.000000
499902.000000
500968.000000
502035.000000
503093.000000
504156.000000
505241.000000
506307.000000
507365.000000
508438.000000
509526.000000
510585.000000
511641.000000
512715.000000
513782.000000
514824.000000
515878.000000
516944.000000
517995.000000
519045.000000
520108.000000
521171.000000
522218.000000
523269.000000
524328.000000
525389.000000
526427.000000
527474.000000
528524.000000
529568.000000
530603.000000
531657.000000
532712.000000
533746.000000
534790.000000
535844.000000
536893.000000
537919.000000
538955.000000
539986.000000
541005.000000
542014.000000
543033.000000
544058.000000
545084.000000
546103.000000
547135.000000
548179.000000
549233.000000
550262.000000
551295.000000
552329.000000
553358.000000
554374.000000
555375.000000
556381.000000
557384.000000
558374.000000
559371.000000
560388.000000
561399.000000
562406.000000
563444.000000
564491.000000
565525.000000
566565.000000
567612.000000
568637.000000
569659.000000
570687.000000
571708.000000
572707.000000
573711.000000
574710.000000
575702.000000
576702.000000
577720.000000
578725.000000
579733.000000
580754.000000
581779.000000
582794.000000
583814.000000
584842.000000
585857.000000
586863.000000
587882.000000
588922.000000
589954.000000
590989.000000
592034.000000
593089.000000
594140.000000
595184.000000
596244.000000
597300.000000
598348.000000
599385.000000
600436.000000
601486.000000
602521.000000
603563.000000
604616.000000
605667.000000
606698.000000
607724.000000
608755.000000
609781.000000
610789.000000
611799.000000
612828.000000
613853.000000
614863.000000
615883.000000
616913.000000
617959.000000
618996.000000
620030.000000
621091.000000
622160.000000
623209.000000
624244.000000
625296.000000
626339.000000
627368.000000
628382.000000
629403.000000
630422.000000
631421.000000
632418.000000
633426.000000
634443.000000
635462.000000
636472.000000
637482.000000
638492.000000
639472.000000
640430.000000
641384.000000
642348.000000
643333.000000
644345.000000
645360.000000
646402.000000
647452.000000
648485.000000
649516.000000
650572.000000
651612.000000
652640.000000
653673.000000
654720.000000
655764.000000
656794.000000
657837.000000
658879.000000
659906.000000
660927.000000
661954.000000
662980.000000
664000.000000
665039.000000
666084.000000
667115.000000
668148.000000
669190.000000
670225.000000
671248.000000
672283.000000
673320.000000
674343.000000
675369.000000
676399.000000
677420.000000
678431.000000
679449.000000
680465.000000
681458.000000
682454.000000
683472.000000
684490.000000
685499.000000
686528.000000
687559.000000
688583.000000
689606.000000
690640.000000
691675.000000
692697.000000
693719.000000
694756.000000
695789.000000
696812.000000
697837.000000
698864.000000
699879.000000
700885.000000
701905.000000
702929.000000
703946.000000
704963.000000
705994.000000
707022.000000
708038.000000
709065.000000
710110.000000
711144.000000
712174.000000
713218.000000
714269.000000
715308.000000
716357.000000
717419.000000
718487.000000
719539.000000
720611.000000
721695.000000
722755.000000
723821.000000
724897.000000
725964.000000
727009.000000
728064.000000
729123.000000
730166.000000
731215.000000
732286.000000
733361.000000
734415.000000
735479.000000
736554.000000
737629.000000
738684.000000
739740.000000
740808.000000
741873.000000
742908.000000
743946.000000
744994.000000
746045.000000
747087.000000
748127.000000
749192.000000
750264.000000
751332.000000
752383.000000
753451.000000
754501.000000
755526.000000
756544.000000
757569.000000
758589.000000
759610.000000
760632.000000
761678.000000
762744.000000
763787.000000
764835.000000
765894.000000
766943.000000
767974.000000
769014.000000
770065.000000
771109.000000
772137.000000
773183.000000
774232.000000
775277.000000
776310.000000
777341.000000
778381.000000
779419.000000
780442.000000
781473.000000
782505.000000
783531.000000
784543.000000
785567.000000
786590.000000
787597.000000
788613.000000
789651.000000
790691.000000
791716.000000
792753.000000
793794.000000
794823.000000
795845.000000
796882.000000
797926.000000
798951.000000
799986.000000
801032.000000
802066.000000
803092.000000
804135.000000
805169.000000
806194.000000
807211.000000
808229.000000
809252.000000
810255.000000
811262.000000
812283.000000
813306.000000
814319.000000
815337.000000
816363.000000
817376.000000
818380.000000
819391.000000
820407.000000
821416.000000
822422.000000
823461.000000
824503.000000
825526.000000
826559.000000
827600.000000
828637.000000
829662.000000
830694.000000
831724.000000
832746.000000
833758.000000
834780.000000
835806.000000
836824.000000
837833.000000
838854.000000
839876.000000
840896.000000
841908.000000
842941.000000
843981.000000
845018.000000
846049.000000
847098.000000
848150.000000
849189.000000
850221.000000
851263.000000
852306.000000
853327.000000
854350.000000
855380.000000
856401.000000
857407.000000
858428.000000
859453.000000
860457.000000
861454.000000
862464.000000
863482.000000
864503.000000
865521.000000
866563.000000
867602.000000
868625.000000
869641.000000
870673.000000
871702.000000
872717.000000
873733.000000
874766.000000
875804.000000
876830.000000
877852.000000
878886.000000
879917.000000
880954.000000
881987.000000
883017.000000
884056.000000
885124.000000
886192.000000
887232.000000
888270.000000
889315.000000
890347.000000
891360.000000
892373.000000
893389.000000
894394.000000
895397.000000
896413.000000
897444.000000
