ECG (ms)
668.000000
1635.000000
2602.000000
3553.000000
4518.000000
5492.000000
6450.000000
7386.000000
8315.000000
9213.000000
10061.000000
10880.000000
11728.000000
12609.000000
13532.000000
14489.000000
15474.000000
16426.000000
17362.000000
18277.000000
19182.000000
20098.000000
21003.000000
21934.000000
22850.000000
23769.000000
24701.000000
25650.000000
26613.000000
27552.000000
28476.000000
29396.000000
30321.000000
31255.000000
32205.000000
33150.000000
34063.000000
34972.000000
35899.000000
36805.000000
37657.000000
38483.000000
39358.000000
40278.000000
41197.000000
42130.000000
43056.000000
43973.000000
44870.000000
45759.000000
46641.000000
47532.000000
48438.000000
49376.000000
50317.000000
51230.000000
52132.000000
53029.000000
53933.000000
54880.000000
55859.000000
56874.000000
57867.000000
58840.000000
59781.000000
60720.000000
61660.000000
62593.000000
63537.000000
64482.000000
65395.000000
66292.000000
67197.000000
68125.000000
69043.000000
69972.000000
70892.000000
71812.000000
72751.000000
73694.000000
74646.000000
75590.000000
76498.000000
77399.000000
78287.000000
79187.000000
80078.000000
80955.000000
81860.000000
82800.000000
83747.000000
84629.000000
85466.000000
86284.000000
87136.000000
88000.000000
88874.000000
89807.000000
90745.000000
91690.000000
92633.000000
93565.000000
94502.000000
95445.000000
96385.000000
97306.000000
98205.000000
99089.000000
99978.000000
100896.000000
101855.000000
102847.000000
103823.000000
104773.000000
105683.000000
106593.000000
107502.000000
108437.000000
109392.000000
110373.000000
111329.000000
112261.000000
113169.000000
114087.000000
115020.000000
115989.000000
116957.000000
117913.000000
118854.000000
119776.000000
120711.000000
121652.000000
122609.000000
123536.000000
124457.000000
125369.000000
126300.000000
127222.000000
128132.000000
128990.000000
129822.000000
130674.000000
131560.000000
132479.000000
133437.000000
134421.000000
135364.000000
136277.000000
137179.000000
138111.000000
139041.000000
139972.000000
140885.000000
141801.000000
142733.000000
143678.000000
144617.000000
145538.000000
146447.000000
147359.000000
148268.000000
149170.000000
150079.000000
150974.000000
151853.000000
152740.000000
153644.000000
154546.000000
155445.000000
156326.000000
157216.000000
158136.000000
159063.000000
159979.000000
160894.000000
161805.000000
162693.000000
163570.000000
164424.000000
165248.000000
166050.000000
166857.000000
167713.000000
168581.000000
169450.000000
170337.000000
171235.000000
172151.000000
173083.000000
173999.000000
174894.000000
175802.000000
176722.000000
177655.000000
178594.000000
179540.000000
180469.000000
181389.000000
182338.000000
183323.000000
184314.000000
185275.000000
186200.000000
187123.000000
188060.000000
188962.000000
189837.000000
190710.000000
191587.000000
192511.000000
193442.000000
194360.000000
195267.000000
196162.000000
197070.000000
197977.000000
198883.000000
199763.000000
200652.000000
201556.000000
202469.000000
203398.000000
204325.000000
205212.000000
206112.000000
207026.000000
207936.000000
208816.000000
209681.000000
210554.000000
211435.000000
212340.000000
213266.000000
214221.000000
215170.000000
216106.000000
217051.000000
218029.000000
218987.000000
219945.000000
220871.000000
221775.000000
222679.000000
223596.000000
224564.000000
225531.000000
226467.000000
227372.000000
228274.000000
229189.000000
230113.000000
231046.000000
231991.000000
232925.000000
233857.000000
234791.000000
235710.000000
236628.000000
237537.000000
238436.000000
239317.000000
240196.000000
241093.000000
242003.000000
242877.000000
243709.000000
244538.000000
245437.000000
246349.000000
247285.000000
248249.000000
249213.000000
250166.000000
251087.000000
252035.000000
253006.000000
253955.000000
254899.000000
255820.000000
256730.000000
257634.000000
258560.000000
259512.000000
260439.000000
261371.000000
262283.000000
263200.000000
264155.000000
265144.000000
266111.000000
267049.000000
267961.000000
268903.000000
269868.000000
270836.000000
271823.000000
272811.000000
273790.000000
274807.000000
275749.000000
276655.000000
277546.000000
278454.000000
279371.000000
280301.000000
281235.000000
282155.000000
283110.000000
284063.000000
285002.000000
285955.000000
286915.000000
287880.000000
288854.000000
289831.000000
290806.000000
291753.000000
292714.000000
293683.000000
294649.000000
295611.000000
296557.000000
297483.000000
298432.000000
299419.000000
300388.000000
301332.000000
302323.000000
303332.000000
304355.000000
305363.000000
306337.000000
307284.000000
308212.000000
309131.000000
310013.000000
310893.000000
311803.000000
312746.000000
313716.000000
314707.000000
315701.000000
316701.000000
317699.000000
318686.000000
319654.000000
320612.000000
321574.000000
322535.000000
323505.000000
324480.000000
325453.000000
326419.000000
327390.000000
328362.000000
329356.000000
330325.000000
331290.000000
332227.000000
333140.000000
334051.000000
334982.000000
335930.000000
336901.000000
337866.000000
338811.000000
339731.000000
340655.000000
341592.000000
342549.000000
343554.000000
344524.000000
345482.000000
346428.000000
347354.000000
348294.000000
349223.000000
350143.000000
351051.000000
351936.000000
352870.000000
353863.000000
354875.000000
355881.000000
356852.000000
357780.000000
358723.000000
359673.000000
360638.000000
361579.000000
362504.000000
363426.000000
364330.000000
365188.000000
366023.000000
366881.000000
367746.000000
368694.000000
369632.000000
370591.000000
371552.000000
372485.000000
373402.000000
374342.000000
375278.000000
376217.000000
377151.000000
378075.000000
378980.000000
379879.000000
380769.000000
381713.000000
382651.000000
383541.000000
384393.000000
385263.000000
386222.000000
387195.000000
388181.000000
389216.000000
390233.000000
391272.000000
392265.000000
393241.000000
394185.000000
395096.000000
395994.000000
396890.000000
397790.000000
398709.000000
399640.000000
400555.000000
401460.000000
402373.000000
403304.000000
404251.000000
405196.000000
406122.000000
407083.000000
408075.000000
409090.000000
410087.000000
411086.000000
412071.000000
413026.000000
413987.000000
414914.000000
415836.000000
416766.000000
417765.000000
418779.000000
419817.000000
420858.000000
421881.000000
422883.000000
423870.000000
424827.000000
425789.000000
426749.000000
427688.000000
428599.000000
429453.000000
430296.000000
431217.000000
432143.000000
433079.000000
434029.000000
434991.000000
435956.000000
436926.000000
437869.000000
438822.000000
439771.000000
440728.000000
441673.000000
442609.000000
443557.000000
444530.000000
445544.000000
446525.000000
447491.000000
448444.000000
449403.000000
450398.000000
451414.000000
452414.000000
453380.000000
454340.000000
455318.000000
456298.000000
457257.000000
458231.000000
459187.000000
460152.000000
461162.000000
462205.000000
463189.000000
464219.000000
465297.000000
466283.000000
467270.000000
468251.000000
469174.000000
470095.000000
471025.000000
472004.000000
472989.000000
473962.000000
474938.000000
475889.000000
476860.000000
477834.000000
478798.000000
479738.000000
480671.000000
481602.000000
482557.000000
483536.000000
484529.000000
485496.000000
486488.000000
487498.000000
488517.000000
489495.000000
490424.000000
491340.000000
492285.000000
493264.000000
494247.000000
495198.000000
496155.000000
497157.000000
498167.000000
499160.000000
500111.000000
501091.000000
502071.000000
503039.000000
504007.000000
505006.000000
506070.000000
507142.000000
508157.000000
509161.000000
510128.000000
511072.000000
512002.000000
512888.000000
513729.000000
514557.000000
515428.000000
516326.000000
517319.000000
518349.000000
519375.000000
520391.000000
521368.000000
522352.000000
523329.000000
524290.000000
525216.000000
526128.000000
527061.000000
528011.000000
528968.000000
529934.000000
530917.000000
531883.000000
532851.000000
533816.000000
534778.000000
535712.000000
536644.000000
537571.000000
538496.000000
539414.000000
540367.000000
541327.000000
542305.000000
543262.000000
544186.000000
545101.000000
546033.000000
546999.000000
547966.000000
548922.000000
549898.000000
550821.000000
551718.000000
552624.000000
553538.000000
554469.000000
555401.000000
556323.000000
557223.000000
558148.000000
559074.000000
560016.000000
560960.000000
561918.000000
562881.000000
563847.000000
564801.000000
565747.000000
566666.000000
567608.000000
568572.000000
569549.000000
570485.000000
571435.000000
572384.000000
573338.000000
574319.000000
575304.000000
576337.000000
577288.000000
578260.000000
579189.000000
580124.000000
580999.000000
581831.000000
582668.000000
583538.000000
584446.000000
585444.000000
586439.000000
587394.000000
588323.000000
589246.000000
590188.000000
591142.000000
592072.000000
593002.000000
594009.000000
595085.000000
596154.000000
597175.000000
598138.000000
599176.000000
600188.000000
601208.000000
602200.000000
603218.000000
604200.000000
605253.000000
606234.000000
607200.000000
608127.000000
609027.000000
609913.000000
610811.000000
611757.000000
612746.000000
613725.000000
614655.000000
615581.000000
616519.000000
617408.000000
618256.000000
619112.000000
620018.000000
620925.000000
621860.000000
622864.000000
623867.000000
624840.000000
625793.000000
626708.000000
627632.000000
628576.000000
629546.000000
630505.000000
631436.000000
632353.000000
633305.000000
634258.000000
635203.000000
636120.000000
637022.000000
637973.000000
638936.000000
639880.000000
640804.000000
641706.000000
642603.000000
643512.000000
644453.000000
645432.000000
646436.000000
647416.000000
648423.000000
649375.000000
650359.000000
651254.000000
652166.000000
653083.000000
653993.000000
654875.000000
655759.000000
656673.000000
657613.000000
658537.000000
659453.000000
660336.000000
661208.000000
662100.000000
663049.000000
664042.000000
665030.000000
665994.000000
666926.000000
667826.000000
668724.000000
669628.000000
670578.000000
671529.000000
672496.000000
673453.000000
674392.000000
675306.000000
676201.000000
677096.000000
678019.000000
678952.000000
679892.000000
680820.000000
681752.000000
682662.000000
683550.000000
684440.000000
685345.000000
686275.000000
687200.000000
688134.000000
689004.000000
689828.000000
690661.000000
691526.000000
692476.000000
693500.000000
694544.000000
695484.000000
696519.000000
697440.000000
698363.000000
699294.000000
700269.000000
701246.000000
702193.000000
703176.000000
704249.000000
705310.000000
706334.000000
707347.000000
708308.000000
709308.000000
710310.000000
711294.000000
712253.000000
713202.000000
714197.000000
715192.000000
716205.000000
717171.000000
718318.000000
719333.000000
720322.000000
721339.000000
722334.000000
723328.000000
724287.000000
725214.000000
726143.000000
727109.000000
728099.000000
729072.000000
730001.000000
730933.000000
731891.000000
732874.000000
733870.000000
734836.000000
735781.000000
736746.000000
737698.000000
738675.000000
739628.000000
740568.000000
741516.000000
742465.000000
743424.000000
744361.000000
745279.000000
746206.000000
747118.000000
748028.000000
748920.000000
749828.000000
750742.000000
751672.000000
752605.000000
753528.000000
754446.000000
755370.000000
756301.000000
757225.000000
758152.000000
759076.000000
759966.000000
760872.000000
761807.000000
762721.000000
763641.000000
764572.000000
765479.000000
766367.000000
767261.000000
768206.000000
769165.000000
770147.000000
771102.000000
772074.000000
773026.000000
774006.000000
774981.000000
775939.000000
776919.000000
777891.000000
778834.000000
779770.000000
780732.000000
781719.000000
782707.000000
783698.000000
784684.000000
785684.000000
786674.000000
787667.000000
788661.000000
789622.000000
790575.000000
791530.000000
792479.000000
793416.000000
794318.000000
795213.000000
796100.000000
796945.000000
797779.000000
798672.000000
799592.000000
800573.000000
801566.000000
802560.000000
803565.000000
804512.000000
805440.000000
806369.000000
807304.000000
808233.000000
809163.000000
810102.000000
811052.000000
812013.000000
812973.000000
813914.000000
814866.000000
815825.000000
816765.000000
817691.000000
818596.000000
819499.000000
820430.000000
821378.000000
822333.000000
823256.000000
824179.000000
825094.000000
826021.000000
826949.000000
827898.000000
828842.000000
829777.000000
830727.000000
831711.000000
832677.000000
833636.000000
834550.000000
835470.000000
836395.000000
837319.000000
838237.000000
839152.000000
840074.000000
841035.000000
842008.000000
843022.000000
843983.000000
844919.000000
845840.000000
846798.000000
847777.000000
848767.000000
849738.000000
850714.000000
851678.000000
852654.000000
853618.000000
854591.000000
855578.000000
856577.000000
857517.000000
858446.000000
859375.000000
860317.000000
861275.000000
862255.000000
863225.000000
864211.000000
865187.000000
866133.000000
867066.000000
867989.000000
868908.000000
869823.000000
870728.000000
871675.000000
872627.000000
873619.000000
874624.000000
875639.000000
876653.000000
877599.000000
878514.000000
879417.000000
880299.000000
881222.000000
882168.000000
883129.000000
884086.000000
885041.000000
886005.000000
886997.000000
888000.000000
888952.000000
889864.000000
890745.000000
891621.000000
892530.000000
893466.000000
894451.000000
895427.000000
896421.000000
897399.000000
898362.000000
899347.000000
900309.000000
901250.000000
902201.000000
