ECG (ms)
397.000000
1271.000000
2092.000000
2946.000000
3833.000000
4716.000000
5557.000000
6448.000000
7376.000000
8294.000000
9150.000000
10027.000000
10923.000000
11818.000000
12679.000000
13506.000000
14388.000000
15322.000000
16249.000000
17117.000000
18018.000000
18910.000000
19802.000000
20640.000000
21458.000000
22328.000000
23223.000000
24090.000000
24965.000000
25891.000000
26822.000000
27688.000000
28577.000000
29452.000000
30282.000000
31131.000000
32007.000000
32896.000000
33729.000000
34602.000000
35521.000000
36404.000000
37247.000000
38176.000000
39122.000000
40069.000000
40963.000000
41821.000000
42730.000000
43649.000000
44543.000000
45388.000000
46322.000000
47302.000000
48269.000000
49176.000000
50119.000000
51055.000000
51930.000000
52803.000000
53689.000000
54558.000000
55385.000000
56276.000000
57238.000000
58158.000000
59053.000000
59991.000000
60939.000000
61861.000000
62727.000000
63597.000000
64491.000000
65344.000000
66142.000000
66999.000000
67926.000000
68838.000000
69709.000000
70623.000000
71538.000000
72426.000000
74206.000000
75093.000000
75964.000000
76818.000000
77695.000000
78583.000000
79443.000000
80286.000000
81170.000000
82083.000000
82980.000000
83849.000000
84751.000000
85665.000000
86571.000000
87439.000000
88338.000000
89237.000000
90096.000000
90960.000000
91835.000000
92715.000000
93573.000000
94434.000000
95316.000000
96206.000000
97062.000000
97932.000000
98823.000000
99706.000000
100552.000000
101440.000000
102337.000000
103210.000000
104058.000000
104949.000000
105838.000000
106701.000000
107557.000000
108457.000000
109371.000000
110251.000000
111141.000000
112064.000000
112956.000000
113817.000000
114707.000000
115602.000000
116493.000000
117348.000000
118226.000000
119124.000000
120010.000000
120886.000000
121802.000000
122728.000000
123618.000000
124526.000000
125455.000000
126344.000000
127211.000000
128103.000000
128993.000000
129838.000000
130700.000000
131570.000000
132430.000000
133272.000000
134147.000000
135046.000000
135937.000000
136803.000000
137705.000000
138614.000000
139499.000000
140348.000000
141231.000000
142127.000000
143018.000000
143874.000000
144755.000000
145661.000000
146575.000000
147463.000000
148346.000000
149264.000000
150188.000000
151093.000000
151968.000000
152856.000000
153749.000000
154638.000000
155497.000000
156337.000000
157218.000000
158136.000000
159029.000000
159934.000000
160881.000000
161817.000000
162719.000000
163624.000000
164539.000000
165443.000000
166317.000000
167184.000000
168054.000000
168911.000000
169746.000000
170604.000000
171475.000000
172329.000000
173177.000000
174055.000000
174937.000000
175793.000000
176640.000000
177519.000000
178393.000000
179246.000000
180117.000000
180998.000000
181870.000000
182725.000000
183611.000000
184499.000000
185354.000000
186201.000000
187074.000000
187968.000000
188866.000000
189723.000000
190594.000000
191474.000000
192343.000000
193189.000000
194036.000000
194899.000000
195759.000000
196601.000000
197481.000000
198374.000000
199244.000000
200100.000000
200992.000000
201881.000000
202747.000000
203597.000000
204475.000000
205362.000000
206220.000000
207094.000000
207980.000000
208847.000000
209714.000000
210610.000000
211511.000000
212371.000000
213255.000000
214150.000000
215045.000000
215909.000000
216786.000000
217704.000000
218631.000000
219512.000000
220414.000000
221327.000000
222207.000000
223101.000000
224021.000000
224920.000000
225782.000000
226670.000000
227563.000000
228470.000000
229317.000000
230118.000000
230868.000000
231694.000000
232604.000000
233566.000000
234492.000000
235403.000000
236319.000000
237242.000000
238163.000000
239052.000000
239923.000000
240827.000000
241736.000000
242640.000000
243517.000000
244379.000000
245260.000000
246153.000000
247047.000000
247922.000000
248804.000000
249732.000000
250673.000000
251611.000000
252502.000000
253420.000000
254356.000000
255278.000000
256161.000000
257047.000000
257956.000000
258871.000000
259750.000000
260621.000000
261517.000000
262419.000000
263308.000000
264169.000000
265077.000000
265989.000000
266880.000000
267738.000000
268631.000000
269537.000000
270413.000000
271268.000000
272156.000000
273059.000000
273941.000000
274798.000000
275693.000000
276593.000000
277495.000000
278377.000000
279247.000000
280145.000000
281044.000000
281930.000000
282792.000000
283680.000000
284580.000000
285464.000000
286323.000000
287207.000000
288098.000000
288990.000000
289854.000000
290729.000000
291611.000000
292471.000000
293318.000000
294189.000000
295074.000000
295947.000000
296793.000000
297663.000000
298535.000000
299395.000000
300224.000000
301069.000000
301937.000000
302823.000000
303703.000000
304594.000000
305508.000000
306408.000000
307274.000000
308174.000000
309083.000000
309974.000000
310825.000000
311665.000000
312519.000000
313372.000000
314181.000000
315009.000000
315892.000000
316759.000000
317575.000000
318424.000000
319334.000000
320212.000000
321024.000000
321876.000000
322756.000000
323592.000000
324387.000000
325231.000000
326090.000000
326934.000000
327755.000000
328627.000000
329536.000000
330429.000000
331266.000000
332153.000000
333079.000000
333990.000000
334825.000000
335690.000000
336583.000000
337482.000000
338316.000000
339182.000000
340088.000000
340955.000000
341812.000000
342741.000000
343681.000000
344581.000000
345420.000000
346320.000000
347223.000000
348072.000000
348921.000000
349839.000000
350787.000000
351697.000000
352576.000000
353487.000000
354400.000000
355254.000000
356112.000000
356988.000000
357853.000000
358679.000000
359557.000000
360474.000000
361366.000000
362239.000000
363161.000000
364079.000000
364940.000000
365759.000000
366616.000000
367512.000000
368364.000000
369211.000000
370178.000000
371232.000000
372230.000000
373203.000000
374182.000000
375141.000000
376023.000000
376904.000000
377823.000000
378754.000000
379662.000000
380499.000000
381382.000000
382279.000000
383200.000000
384088.000000
384945.000000
385856.000000
386790.000000
387711.000000
388588.000000
389445.000000
390352.000000
391267.000000
392146.000000
392957.000000
393815.000000
394719.000000
395647.000000
396533.000000
397457.000000
398408.000000
399320.000000
400169.000000
401055.000000
401968.000000
402834.000000
403688.000000
404605.000000
405534.000000
406405.000000
407298.000000
408218.000000
409131.000000
409986.000000
410842.000000
411740.000000
412662.000000
413522.000000
414382.000000
415292.000000
416204.000000
417061.000000
417971.000000
418918.000000
419815.000000
420712.000000
421640.000000
422569.000000
423450.000000
424310.000000
425235.000000
426172.000000
427052.000000
427935.000000
428847.000000
429740.000000
430583.000000
431448.000000
432327.000000
433203.000000
434091.000000
435011.000000
435917.000000
436761.000000
437652.000000
438565.000000
439452.000000
440274.000000
441153.000000
442080.000000
443008.000000
443878.000000
444745.000000
445657.000000
446577.000000
447455.000000
448332.000000
449244.000000
450167.000000
451024.000000
451868.000000
452773.000000
453704.000000
454624.000000
455497.000000
456404.000000
457314.000000
458190.000000
459018.000000
459849.000000
460728.000000
461618.000000
462477.000000
463327.000000
464223.000000
465139.000000
466040.000000
466896.000000
467772.000000
468655.000000
469544.000000
470371.000000
471199.000000
472075.000000
472973.000000
473841.000000
474697.000000
475592.000000
476496.000000
477370.000000
478261.000000
479179.000000
480119.000000
481011.000000
481881.000000
482774.000000
483674.000000
484581.000000
485439.000000
486283.000000
487169.000000
488082.000000
488947.000000
489856.000000
490819.000000
491760.000000
492627.000000
493529.000000
494450.000000
495319.000000
496161.000000
497054.000000
498002.000000
498918.000000
499827.000000
500758.000000
501633.000000
502462.000000
503317.000000
504208.000000
505105.000000
505983.000000
506827.000000
507707.000000
508594.000000
509454.000000
510292.000000
511183.000000
512117.000000
513068.000000
513985.000000
514850.000000
515742.000000
516636.000000
517493.000000
518313.000000
519161.000000
520053.000000
520937.000000
521783.000000
522690.000000
523604.000000
524469.000000
525322.000000
526219.000000
527134.000000
528001.000000
528852.000000
529744.000000
530661.000000
531533.000000
532394.000000
533320.000000
534272.000000
535223.000000
536113.000000
537024.000000
537985.000000
538909.000000
539776.000000
540703.000000
541655.000000
542574.000000
543452.000000
544364.000000
545315.000000
546269.000000
547178.000000
548098.000000
549045.000000
549979.000000
550863.000000
551781.000000
552746.000000
553683.000000
554572.000000
555504.000000
556490.000000
557403.000000
558304.000000
559216.000000
560132.000000
561019.000000
561907.000000
562828.000000
563756.000000
564662.000000
565589.000000
566527.000000
567471.000000
568386.000000
569301.000000
570233.000000
571161.000000
572081.000000
572982.000000
573890.000000
574814.000000
575731.000000
576638.000000
577532.000000
578454.000000
579377.000000
580300.000000
581204.000000
582092.000000
583006.000000
583923.000000
584836.000000
585731.000000
586608.000000
587507.000000
588422.000000
589294.000000
590179.000000
591082.000000
591990.000000
592864.000000
593739.000000
594638.000000
595529.000000
596394.000000
597258.000000
598156.000000
599054.000000
599917.000000
600784.000000
601681.000000
602591.000000
603462.000000
604346.000000
605245.000000
606128.000000
606984.000000
607872.000000
608766.000000
609653.000000
610519.000000
611416.000000
612327.000000
613201.000000
614070.000000
614966.000000
615859.000000
616720.000000
617608.000000
618499.000000
619371.000000
620226.000000
621113.000000
622030.000000
622929.000000
623804.000000
624722.000000
625663.000000
626607.000000
627500.000000
628372.000000
629272.000000
630188.000000
631081.000000
631944.000000
632845.000000
633758.000000
634656.000000
635515.000000
636403.000000
637305.000000
638176.000000
639029.000000
639914.000000
640798.000000
641649.000000
642534.000000
643427.000000
644320.000000
645193.000000
646103.000000
647024.000000
647942.000000
648828.000000
649706.000000
650619.000000
651537.000000
652433.000000
653311.000000
654235.000000
655169.000000
656089.000000
656977.000000
657893.000000
658823.000000
659738.000000
660616.000000
661532.000000
662451.000000
663365.000000
664253.000000
665177.000000
666113.000000
667028.000000
667938.000000
668887.000000
669834.000000
670752.000000
671682.000000
672616.000000
673538.000000
674439.000000
675357.000000
676280.000000
677197.000000
678089.000000
679007.000000
679948.000000
680894.000000
681823.000000
682741.000000
683697.000000
684653.000000
685575.000000
686485.000000
687423.000000
688361.000000
689268.000000
690164.000000
691092.000000
692027.000000
692930.000000
693832.000000
694754.000000
695677.000000
696568.000000
697486.000000
698427.000000
699364.000000
700264.000000
701174.000000
702103.000000
703028.000000
703926.000000
704841.000000
705793.000000
706742.000000
707646.000000
708536.000000
709464.000000
710396.000000
711291.000000
712168.000000
713095.000000
714027.000000
714934.000000
715852.000000
716794.000000
717733.000000
718623.000000
719535.000000
720468.000000
721391.000000
722268.000000
723139.000000
724053.000000
724987.000000
725897.000000
726834.000000
727807.000000
728776.000000
729705.000000
730651.000000
731603.000000
732546.000000
733450.000000
734357.000000
735281.000000
736197.000000
737085.000000
738018.000000
738966.000000
739890.000000
740793.000000
741732.000000
742672.000000
743573.000000
744481.000000
745408.000000
746348.000000
747265.000000
748181.000000
749144.000000
750120.000000
751088.000000
752018.000000
752958.000000
753912.000000
754858.000000
755778.000000
756710.000000
757633.000000
758519.000000
759393.000000
760303.000000
761214.000000
762116.000000
762974.000000
763835.000000
764718.000000
765607.000000
766486.000000
767358.000000
768258.000000
769175.000000
770065.000000
770944.000000
771847.000000
772757.000000
773644.000000
774505.000000
775391.000000
776291.000000
777181.000000
778042.000000
778927.000000
779835.000000
780718.000000
781599.000000
782523.000000
783451.000000
784341.000000
785242.000000
786154.000000
787043.000000
787905.000000
788800.000000
789706.000000
790576.000000
791475.000000
792405.000000
793335.000000
794224.000000
795144.000000
796079.000000
796965.000000
797839.000000
798744.000000
799661.000000
800543.000000
801435.000000
802360.000000
803291.000000
804181.000000
805075.000000
806002.000000
806927.000000
807811.000000
808705.000000
809631.000000
810537.000000
811415.000000
812331.000000
813251.000000
814128.000000
815025.000000
815936.000000
816822.000000
817680.000000
818575.000000
819473.000000
820332.000000
821212.000000
822116.000000
823004.000000
823871.000000
824769.000000
825668.000000
826551.000000
827413.000000
828319.000000
829243.000000
830134.000000
831049.000000
831981.000000
832915.000000
833808.000000
834690.000000
835604.000000
836513.000000
837387.000000
838282.000000
839205.000000
840147.000000
841042.000000
841935.000000
842851.000000
843764.000000
844650.000000
845556.000000
846491.000000
847433.000000
848339.000000
849259.000000
850207.000000
851154.000000
852065.000000
852980.000000
853920.000000
854851.000000
855773.000000
856669.000000
857591.000000
858522.000000
859434.000000
860335.000000
861276.000000
862250.000000
863173.000000
864126.000000
865087.000000
866038.000000
866955.000000
867868.000000
868808.000000
869742.000000
870632.000000
871544.000000
872461.000000
873339.000000
874190.000000
875077.000000
875981.000000
876877.000000
877739.000000
878619.000000
879515.000000
880428.000000
881301.000000
882189.000000
883097.000000
883993.000000
884863.000000
885770.000000
886683.000000
887592.000000
888454.000000
889339.000000
890233.000000
891102.000000
891978.000000
892894.000000
893826.000000
894749.000000
895640.000000
896557.000000
897497.000000
898431.000000
899327.000000
900235.000000
901153.000000
902050.000000
