ECG (ms)
1075.000000
2227.000000
3375.000000
4569.000000
5829.000000
7052.000000
8264.000000
9475.000000
10661.000000
11841.000000
13014.000000
14202.000000
15397.000000
16593.000000
17778.000000
18949.000000
20110.000000
21269.000000
22449.000000
23634.000000
24820.000000
26007.000000
27189.000000
28353.000000
29508.000000
30649.000000
31778.000000
32891.000000
34102.000000
35290.000000
36478.000000
37653.000000
38837.000000
40018.000000
41191.000000
42356.000000
43508.000000
44668.000000
45821.000000
46985.000000
48169.000000
49351.000000
50534.000000
51693.000000
52850.000000
54000.000000
55133.000000
56244.000000
57465.000000
58675.000000
59829.000000
61053.000000
62221.000000
63393.000000
64559.000000
65722.000000
66879.000000
68031.000000
69179.000000
70323.000000
71472.000000
72630.000000
73749.000000
74860.000000
76063.000000
77249.000000
78433.000000
79595.000000
80768.000000
81932.000000
83094.000000
84264.000000
85429.000000
86587.000000
87721.000000
88675.000000
90062.000000
91297.000000
92523.000000
93735.000000
94948.000000
96129.000000
97312.000000
98496.000000
99689.000000
100886.000000
102093.000000
103269.000000
104411.000000
105636.000000
106798.000000
107948.000000
109118.000000
110290.000000
111110.000000
112601.000000
113775.000000
115020.000000
116220.000000
117413.000000
118621.000000
119814.000000
121029.000000
122210.000000
123371.000000
124524.000000
125689.000000
126856.000000
128037.000000
129198.000000
130348.000000
131473.000000
132440.000000
133821.000000
135049.000000
136248.000000
137444.000000
138653.000000
139862.000000
141071.000000
142274.000000
143452.000000
144615.000000
145772.000000
146946.000000
148133.000000
149294.000000
150458.000000
151613.000000
152763.000000
153925.000000
155082.000000
156216.000000
157323.000000
158527.000000
159734.000000
160921.000000
162108.000000
163289.000000
164457.000000
165608.000000
166760.000000
167925.000000
169113.000000
170285.000000
171451.000000
172588.000000
173579.000000
174985.000000
176236.000000
177453.000000
178623.000000
179852.000000
181019.000000
182198.000000
183383.000000
184564.000000
185683.000000
186925.000000
188094.000000
189261.000000
190411.000000
191524.000000
192731.000000
193924.000000
195118.000000
196320.000000
197524.000000
198722.000000
199909.000000
201088.000000
202263.000000
203453.000000
204646.000000
205817.000000
207014.000000
208180.000000
209336.000000
210497.000000
211670.000000
212832.000000
213997.000000
215148.000000
216300.000000
217457.000000
218589.000000
219696.000000
220900.000000
222102.000000
223293.000000
224502.000000
225712.000000
226914.000000
228069.000000
229287.000000
230464.000000
231637.000000
232824.000000
234009.000000
235185.000000
236347.000000
237512.000000
238684.000000
239864.000000
241021.000000
242137.000000
243294.000000
244574.000000
245780.000000
247012.000000
248235.000000
249447.000000
250621.000000
251779.000000
253046.000000
254235.000000
255413.000000
256570.000000
257719.000000
258857.000000
260000.000000
261146.000000
262292.000000
263406.000000
264358.000000
265703.000000
266885.000000
268089.000000
269283.000000
270489.000000
271679.000000
272886.000000
274125.000000
275351.000000
276542.000000
277727.000000
278930.000000
280134.000000
281330.000000
282529.000000
283740.000000
284949.000000
286138.000000
287323.000000
288523.000000
289709.000000
290886.000000
292072.000000
293279.000000
294458.000000
295616.000000
296791.000000
297980.000000
299152.000000
300321.000000
301487.000000
302665.000000
303815.000000
304786.000000
306205.000000
307468.000000
308693.000000
309851.000000
311112.000000
312328.000000
313529.000000
314729.000000
315940.000000
317168.000000
318403.000000
319604.000000
320775.000000
322037.000000
323223.000000
324404.000000
325584.000000
326783.000000
327976.000000
329151.000000
330324.000000
331474.000000
332607.000000
333822.000000
335038.000000
336283.000000
337512.000000
338720.000000
339937.000000
341148.000000
342361.000000
343551.000000
344701.000000
345959.000000
346939.000000
348315.000000
349283.000000
350679.000000
351889.000000
353092.000000
354301.000000
355513.000000
356706.000000
357860.000000
359127.000000
360310.000000
361480.000000
362640.000000
363809.000000
364974.000000
366132.000000
367141.000000
368371.000000
369513.000000
370713.000000
371902.000000
373104.000000
374305.000000
375502.000000
376700.000000
377895.000000
379095.000000
380294.000000
381436.000000
382680.000000
383871.000000
385052.000000
386217.000000
387391.000000
388565.000000
389738.000000
390913.000000
392087.000000
393272.000000
394448.000000
395591.000000
396717.000000
397657.000000
399018.000000
400237.000000
401428.000000
402670.000000
403897.000000
405150.000000
406371.000000
407594.000000
408846.000000
410117.000000
411381.000000
412608.000000
413774.000000
415069.000000
416290.000000
417505.000000
418690.000000
419875.000000
421094.000000
422307.000000
423485.000000
424668.000000
425883.000000
427079.000000
428259.000000
429449.000000
430653.000000
431848.000000
433026.000000
434209.000000
435408.000000
436587.000000
437775.000000
438961.000000
440165.000000
441374.000000
442566.000000
443773.000000
445006.000000
446235.000000
447426.000000
448628.000000
449853.000000
451072.000000
452265.000000
453447.000000
454657.000000
455883.000000
457068.000000
458275.000000
459495.000000
460699.000000
461895.000000
463085.000000
464268.000000
465442.000000
466440.000000
467687.000000
468851.000000
470070.000000
471239.000000
472562.000000
473816.000000
475033.000000
476255.000000
477494.000000
478719.000000
479932.000000
481137.000000
482365.000000
483595.000000
484781.000000
485948.000000
487250.000000
488480.000000
489690.000000
490784.000000
492117.000000
493349.000000
494450.000000
495602.000000
496879.000000
497875.000000
499279.000000
500560.000000
501807.000000
503062.000000
504306.000000
505531.000000
506787.000000
508028.000000
509237.000000
510447.000000
511636.000000
512826.000000
514017.000000
515190.000000
516523.000000
517724.000000
518803.000000
519925.000000
521181.000000
522157.000000
523558.000000
524837.000000
526069.000000
527281.000000
528477.000000
529707.000000
530920.000000
532099.000000
533247.000000
534527.000000
535716.000000
536896.000000
537957.000000
539264.000000
540454.000000
541639.000000
542679.000000
543954.000000
544957.000000
546398.000000
547637.000000
548899.000000
550157.000000
551401.000000
552625.000000
553860.000000
555113.000000
556341.000000
557525.000000
558710.000000
560016.000000
561105.000000
562270.000000
563575.000000
564769.000000
565841.000000
567100.000000
568067.000000
569489.000000
570729.000000
571943.000000
573185.000000
574429.000000
575656.000000
576836.000000
578019.000000
579322.000000
580401.000000
581561.000000
582900.000000
584103.000000
585288.000000
586350.000000
587663.000000
588866.000000
590054.000000
591122.000000
592437.000000
593645.000000
594837.000000
595904.000000
597215.000000
598421.000000
599607.000000
600671.000000
601949.000000
603135.000000
604304.000000
605362.000000
606655.000000
607845.000000
609038.000000
610092.000000
611357.000000
612360.000000
613788.000000
615029.000000
616255.000000
617498.000000
618748.000000
620015.000000
621240.000000
622469.000000
623709.000000
624945.000000
626163.000000
627354.000000
628104.000000
629767.000000
631023.000000
632246.000000
633473.000000
634628.000000
635888.000000
636883.000000
637601.000000
639261.000000
640565.000000
641815.000000
643051.000000
644255.000000
645412.000000
646581.000000
647759.000000
648904.000000
650075.000000
651266.000000
652467.000000
653661.000000
654938.000000
656196.000000
657401.000000
658598.000000
659741.000000
661100.000000
662320.000000
663539.000000
664773.000000
665994.000000
667194.000000
668419.000000
669670.000000
670903.000000
672133.000000
673357.000000
674589.000000
675774.000000
676934.000000
678111.000000
679442.000000
680503.000000
681672.000000
683001.000000
684187.000000
685379.000000
686431.000000
687718.000000
688890.000000
690066.000000
691119.000000
692398.000000
693408.000000
694793.000000
696062.000000
697311.000000
698553.000000
699755.000000
700992.000000
702224.000000
703434.000000
704670.000000
705889.000000
707095.000000
708305.000000
709548.000000
710786.000000
712010.000000
713228.000000
714462.000000
715653.000000
716841.000000
718028.000000
719360.000000
720560.000000
721641.000000
722813.000000
724124.000000
725126.000000
726538.000000
727823.000000
729086.000000
730321.000000
731536.000000
732783.000000
734018.000000
735247.000000
736405.000000
737569.000000
738888.000000
739970.000000
741151.000000
742332.000000
743663.000000
744874.000000
745961.000000
747119.000000
748403.000000
749402.000000
750825.000000
752118.000000
753386.000000
754630.000000
755863.000000
757081.000000
758327.000000
759562.000000
760791.000000
761999.000000
763229.000000
764453.000000
765656.000000
766841.000000
767994.000000
769157.000000
770320.000000
771468.000000
772775.000000
773836.000000
775073.000000
776118.000000
777372.000000
778351.000000
779763.000000
781021.000000
782271.000000
783497.000000
784711.000000
785924.000000
787167.000000
788393.000000
789595.000000
790816.000000
792030.000000
793241.000000
794433.000000
795637.000000
796999.000000
798094.000000
799280.000000
800458.000000
801747.000000
802923.000000
804231.000000
805483.000000
806707.000000
807907.000000
809062.000000
810354.000000
811591.000000
812782.000000
813972.000000
815164.000000
816325.000000
817504.000000
818859.000000
819931.000000
821118.000000
822467.000000
823654.000000
824971.000000
826230.000000
827487.000000
828744.000000
829962.000000
831202.000000
832412.000000
833605.000000
834780.000000
835979.000000
837180.000000
838365.000000
839535.000000
840741.000000
842087.000000
843148.000000
844445.000000
845484.000000
846658.000000
847992.000000
849299.000000
850533.000000
851744.000000
852957.000000
854151.000000
855315.000000
856488.000000
857817.000000
858846.000000
860036.000000
861232.000000
862573.000000
863633.000000
864947.000000
865985.000000
867144.000000
868308.000000
869610.000000
870792.000000
872169.000000
873457.000000
874696.000000
875918.000000
877173.000000
878383.000000
879643.000000
880891.000000
882132.000000
883364.000000
884581.000000
885746.000000
886950.000000
888152.000000
889328.000000
890523.000000
891740.000000
892951.000000
894147.000000
