ECG (ms)
536.000000
1551.000000
2527.000000
3531.000000
4568.000000
5575.000000
6537.000000
7521.000000
8523.000000
9487.000000
10455.000000
11456.000000
12475.000000
13431.000000
14411.000000
15416.000000
16414.000000
17389.000000
18387.000000
19441.000000
20507.000000
21534.000000
22532.000000
23557.000000
24597.000000
25611.000000
26587.000000
27607.000000
28646.000000
29677.000000
30654.000000
31670.000000
32696.000000
33691.000000
34648.000000
35660.000000
36672.000000
37649.000000
38624.000000
39634.000000
40630.000000
41593.000000
42584.000000
43594.000000
44605.000000
45574.000000
46583.000000
47626.000000
48661.000000
49657.000000
50684.000000
51720.000000
52714.000000
53604.000000
54563.000000
55579.000000
56561.000000
57585.000000
58634.000000
59649.000000
60628.000000
61620.000000
62607.000000
63554.000000
64505.000000
65501.000000
66474.000000
67420.000000
68412.000000
69399.000000
70342.000000
71317.000000
72289.000000
73225.000000
74160.000000
75124.000000
76088.000000
77041.000000
78006.000000
78972.000000
79896.000000
80857.000000
81869.000000
82859.000000
83794.000000
84765.000000
85783.000000
86765.000000
87720.000000
88714.000000
89700.000000
90644.000000
91619.000000
92604.000000
93569.000000
94531.000000
95524.000000
96510.000000
97464.000000
98454.000000
99462.000000
100415.000000
101395.000000
102405.000000
103377.000000
104314.000000
105279.000000
106246.000000
107180.000000
108130.000000
109120.000000
110089.000000
111038.000000
112034.000000
113039.000000
113990.000000
114950.000000
115954.000000
116987.000000
117995.000000
119012.000000
120067.000000
121122.000000
122131.000000
123140.000000
124184.000000
125232.000000
126233.000000
127260.000000
128315.000000
129354.000000
130371.000000
131429.000000
132519.000000
133538.000000
134564.000000
135613.000000
136648.000000
137640.000000
138681.000000
139747.000000
140767.000000
141762.000000
142816.000000
143879.000000
144894.000000
145912.000000
146964.000000
147988.000000
148960.000000
149973.000000
151017.000000
152012.000000
153019.000000
154068.000000
155084.000000
156086.000000
157141.000000
158194.000000
159185.000000
160186.000000
161228.000000
162267.000000
163265.000000
164288.000000
165333.000000
166345.000000
167341.000000
168360.000000
169394.000000
170381.000000
171342.000000
172343.000000
173362.000000
174375.000000
175414.000000
176454.000000
177412.000000
178302.000000
179223.000000
180137.000000
181121.000000
182145.000000
183156.000000
184152.000000
185218.000000
186303.000000
187321.000000
188340.000000
189410.000000
190482.000000
191520.000000
192607.000000
193683.000000
194702.000000
195738.000000
196812.000000
197850.000000
198841.000000
199879.000000
200928.000000
201912.000000
202917.000000
203958.000000
204986.000000
205987.000000
207047.000000
208115.000000
209115.000000
210121.000000
211155.000000
212173.000000
213174.000000
214230.000000
215292.000000
216306.000000
217342.000000
218395.000000
219395.000000
220402.000000
221450.000000
222482.000000
223472.000000
224504.000000
225550.000000
226538.000000
227565.000000
228618.000000
229624.000000
230614.000000
231636.000000
232670.000000
233661.000000
234662.000000
235709.000000
236736.000000
237726.000000
238768.000000
239821.000000
240827.000000
241830.000000
242866.000000
243893.000000
244881.000000
245885.000000
246920.000000
247940.000000
248901.000000
249889.000000
250883.000000
251844.000000
252814.000000
253823.000000
254828.000000
255783.000000
256759.000000
257760.000000
258748.000000
259692.000000
260668.000000
261663.000000
262630.000000
263588.000000
264581.000000
265557.000000
266491.000000
267456.000000
268452.000000
269418.000000
270372.000000
271342.000000
272221.000000
273085.000000
274027.000000
274967.000000
275922.000000
276944.000000
277949.000000
278839.000000
279765.000000
280707.000000
281675.000000
282697.000000
283717.000000
284686.000000
285672.000000
286676.000000
287663.000000
288609.000000
289591.000000
290618.000000
291639.000000
292611.000000
293615.000000
294641.000000
295621.000000
296599.000000
297612.000000
298627.000000
299597.000000
300574.000000
301581.000000
302580.000000
303558.000000
304561.000000
305598.000000
306612.000000
307585.000000
308593.000000
309623.000000
310624.000000
311600.000000
312617.000000
313646.000000
314630.000000
315628.000000
316641.000000
317642.000000
318597.000000
319588.000000
320608.000000
321587.000000
322563.000000
323564.000000
324562.000000
325517.000000
326502.000000
327520.000000
328518.000000
329461.000000
330435.000000
331423.000000
332390.000000
333349.000000
334347.000000
335356.000000
336326.000000
337290.000000
338296.000000
339315.000000
340289.000000
341284.000000
342305.000000
343319.000000
344280.000000
345261.000000
346268.000000
347263.000000
348225.000000
349232.000000
350266.000000
351264.000000
352226.000000
353211.000000
354239.000000
355232.000000
356201.000000
357226.000000
358266.000000
359262.000000
360225.000000
361215.000000
362228.000000
363206.000000
364190.000000
365214.000000
366249.000000
367242.000000
368229.000000
369248.000000
370267.000000
371232.000000
372195.000000
373200.000000
374208.000000
375166.000000
376138.000000
377138.000000
378159.000000
379122.000000
380108.000000
381135.000000
382163.000000
383139.000000
384141.000000
385173.000000
386172.000000
387145.000000
388148.000000
389199.000000
390208.000000
391203.000000
392229.000000
393264.000000
394250.000000
395247.000000
396280.000000
397299.000000
398272.000000
399261.000000
400264.000000
401255.000000
402204.000000
403191.000000
404211.000000
405211.000000
406170.000000
407159.000000
408178.000000
409175.000000
410131.000000
411123.000000
412130.000000
413125.000000
414086.000000
415086.000000
416095.000000
417084.000000
418013.000000
418992.000000
420008.000000
421007.000000
421978.000000
422977.000000
423994.000000
424970.000000
425918.000000
426909.000000
427904.000000
428867.000000
429839.000000
430823.000000
431795.000000
432735.000000
433706.000000
434714.000000
435705.000000
436666.000000
437661.000000
438645.000000
439524.000000
440443.000000
441362.000000
442326.000000
443329.000000
444322.000000
445259.000000
446248.000000
447261.000000
448259.000000
449198.000000
450166.000000
451153.000000
452125.000000
453061.000000
454046.000000
455055.000000
456052.000000
457008.000000
458008.000000
459027.000000
460016.000000
460959.000000
461940.000000
462951.000000
463926.000000
464862.000000
465843.000000
466856.000000
467839.000000
468789.000000
469783.000000
470790.000000
471756.000000
472696.000000
473687.000000
474706.000000
475696.000000
476676.000000
477713.000000
478742.000000
479715.000000
480696.000000
481714.000000
482729.000000
483701.000000
484684.000000
485696.000000
486712.000000
487675.000000
488684.000000
489704.000000
490707.000000
491658.000000
492640.000000
493653.000000
494663.000000
495637.000000
496641.000000
497665.000000
498688.000000
499662.000000
500638.000000
501650.000000
502657.000000
503617.000000
504585.000000
505576.000000
506577.000000
507529.000000
508503.000000
509478.000000
510437.000000
511369.000000
512333.000000
513308.000000
514269.000000
515226.000000
516224.000000
517230.000000
518190.000000
519124.000000
520098.000000
521083.000000
522050.000000
522983.000000
523961.000000
524973.000000
525944.000000
526899.000000
527887.000000
528877.000000
529832.000000
530764.000000
531737.000000
532729.000000
533685.000000
534638.000000
535630.000000
536625.000000
537573.000000
538505.000000
539467.000000
540430.000000
541365.000000
542310.000000
543293.000000
544275.000000
545213.000000
546185.000000
547168.000000
548135.000000
549068.000000
550044.000000
551048.000000
552018.000000
552949.000000
553920.000000
554908.000000
555871.000000
556829.000000
557802.000000
558791.000000
559749.000000
560700.000000
561680.000000
562657.000000
563596.000000
564540.000000
565509.000000
566482.000000
567435.000000
568438.000000
569445.000000
570368.000000
571249.000000
572203.000000
573149.000000
574127.000000
575138.000000
576135.000000
577100.000000
578108.000000
579136.000000
580152.000000
581123.000000
582143.000000
583194.000000
584213.000000
585201.000000
586238.000000
587294.000000
588286.000000
589277.000000
590291.000000
591333.000000
592321.000000
593309.000000
594341.000000
595381.000000
596396.000000
597423.000000
598461.000000
599476.000000
600456.000000
601484.000000
602520.000000
603518.000000
604482.000000
605494.000000
606529.000000
607535.000000
608561.000000
609603.000000
610638.000000
611635.000000
612697.000000
613784.000000
614839.000000
615840.000000
616883.000000
617946.000000
618972.000000
619992.000000
621027.000000
622080.000000
623103.000000
624133.000000
625198.000000
626221.000000
627205.000000
628233.000000
629266.000000
630258.000000
631238.000000
632272.000000
633306.000000
634289.000000
635278.000000
636313.000000
637337.000000
638335.000000
639376.000000
640431.000000
641462.000000
642485.000000
643537.000000
644568.000000
645552.000000
646561.000000
647624.000000
648663.000000
649668.000000
650715.000000
651754.000000
652751.000000
653761.000000
654793.000000
655819.000000
656791.000000
657786.000000
658796.000000
659790.000000
660749.000000
661746.000000
662762.000000
663754.000000
664709.000000
665726.000000
666752.000000
667765.000000
668774.000000
669808.000000
670811.000000
671788.000000
672810.000000
673855.000000
674856.000000
675849.000000
676868.000000
677893.000000
678873.000000
679854.000000
680867.000000
681877.000000
682835.000000
683819.000000
684832.000000
685846.000000
686838.000000
687841.000000
688866.000000
689882.000000
690863.000000
691894.000000
692934.000000
693948.000000
694928.000000
695945.000000
697010.000000
698055.000000
699059.000000
700108.000000
701162.000000
702185.000000
703193.000000
704231.000000
705263.000000
706278.000000
707318.000000
708375.000000
709402.000000
710434.000000
711501.000000
712553.000000
713553.000000
714555.000000
715596.000000
716615.000000
717594.000000
718584.000000
719593.000000
720509.000000
721402.000000
722344.000000
723265.000000
724238.000000
725271.000000
726283.000000
727264.000000
728281.000000
729294.000000
730265.000000
731281.000000
732320.000000
733326.000000
734308.000000
735343.000000
736385.000000
737407.000000
738413.000000
739440.000000
740461.000000
741449.000000
742463.000000
743496.000000
744538.000000
745529.000000
746553.000000
747590.000000
748613.000000
749577.000000
750572.000000
751596.000000
752626.000000
753599.000000
754578.000000
755619.000000
756681.000000
757732.000000
758722.000000
759751.000000
760767.000000
761717.000000
762683.000000
763667.000000
764620.000000
765547.000000
766512.000000
767490.000000
768423.000000
769370.000000
770333.000000
771280.000000
772194.000000
773140.000000
774120.000000
775091.000000
776035.000000
776998.000000
777978.000000
778933.000000
779865.000000
780824.000000
781800.000000
782749.000000
783713.000000
784703.000000
785711.000000
786717.000000
787701.000000
788695.000000
789704.000000
790698.000000
791679.000000
792676.000000
793678.000000
794649.000000
795660.000000
796694.000000
797705.000000
798677.000000
799677.000000
800707.000000
801714.000000
802714.000000
803742.000000
804770.000000
805744.000000
806720.000000
807720.000000
808733.000000
809714.000000
810698.000000
811723.000000
812750.000000
813744.000000
814706.000000
815717.000000
816741.000000
817739.000000
818760.000000
819806.000000
820843.000000
821828.000000
822847.000000
823873.000000
824868.000000
825879.000000
826933.000000
827981.000000
828974.000000
830005.000000
831020.000000
832016.000000
832977.000000
833971.000000
834976.000000
835952.000000
836929.000000
837931.000000
838881.000000
839744.000000
840618.000000
841499.000000
842429.000000
843419.000000
844376.000000
845292.000000
846237.000000
847220.000000
848190.000000
849134.000000
850113.000000
851094.000000
852035.000000
853012.000000
854016.000000
854992.000000
855942.000000
856930.000000
857940.000000
858903.000000
859872.000000
860868.000000
861839.000000
862777.000000
863757.000000
864757.000000
865717.000000
866679.000000
867674.000000
868686.000000
869664.000000
870663.000000
871695.000000
872717.000000
873697.000000
874705.000000
875726.000000
876732.000000
877715.000000
878744.000000
879777.000000
880772.000000
881824.000000
882901.000000
883945.000000
884923.000000
885931.000000
886970.000000
887972.000000
888945.000000
889954.000000
890984.000000
891978.000000
892952.000000
893971.000000
894986.000000
895961.000000
896937.000000
897962.000000
898988.000000
899973.000000
