ECG (ms)
379.000000
1307.000000
2174.000000
3059.000000
4021.000000
4900.000000
5752.000000
6634.000000
7493.000000
8310.000000
9179.000000
10074.000000
10976.000000
11866.000000
12811.000000
13749.000000
14609.000000
15406.000000
16219.000000
17114.000000
18035.000000
18905.000000
19713.000000
20559.000000
21483.000000
22436.000000
23399.000000
24344.000000
25231.000000
26046.000000
26852.000000
27733.000000
28667.000000
29578.000000
30396.000000
31261.000000
32179.000000
33066.000000
33907.000000
34809.000000
35763.000000
36684.000000
37549.000000
38373.000000
39256.000000
40221.000000
41171.000000
42070.000000
42990.000000
43936.000000
44854.000000
45702.000000
46568.000000
47511.000000
48475.000000
49400.000000
50268.000000
51121.000000
52043.000000
52981.000000
53848.000000
54637.000000
55458.000000
56365.000000
57300.000000
58237.000000
59105.000000
59927.000000
60751.000000
61681.000000
62646.000000
63585.000000
64476.000000
65307.000000
66163.000000
67085.000000
68026.000000
68902.000000
69726.000000
70559.000000
71462.000000
72424.000000
73368.000000
74335.000000
75254.000000
76112.000000
76987.000000
77943.000000
78905.000000
79819.000000
80663.000000
81467.000000
82321.000000
83252.000000
84229.000000
85184.000000
86083.000000
86922.000000
87810.000000
88741.000000
89635.000000
90464.000000
91299.000000
92172.000000
93056.000000
93869.000000
94680.000000
95586.000000
96559.000000
97508.000000
98422.000000
99282.000000
100075.000000
100827.000000
101611.000000
102509.000000
103497.000000
104425.000000
105336.000000
106276.000000
107169.000000
107927.000000
108653.000000
109351.000000
110001.000000
110681.000000
111525.000000
112378.000000
113248.000000
114200.000000
115147.000000
116027.000000
116910.000000
117819.000000
118719.000000
119570.000000
120451.000000
121397.000000
122307.000000
123157.000000
124073.000000
125006.000000
125925.000000
126803.000000
127674.000000
128625.000000
129609.000000
130554.000000
131462.000000
132390.000000
133305.000000
134164.000000
135004.000000
135903.000000
136838.000000
137733.000000
138627.000000
139546.000000
140463.000000
141320.000000
142107.000000
142911.000000
143800.000000
144754.000000
145633.000000
146505.000000
147461.000000
148407.000000
149302.000000
150144.000000
151028.000000
151953.000000
152861.000000
153695.000000
154504.000000
155323.000000
156195.000000
157022.000000
157858.000000
158760.000000
159711.000000
160603.000000
161519.000000
162453.000000
163322.000000
164132.000000
164975.000000
165863.000000
166745.000000
167588.000000
168459.000000
169322.000000
170159.000000
170960.000000
171785.000000
172676.000000
173574.000000
174410.000000
175266.000000
176109.000000
176902.000000
177650.000000
178373.000000
179077.000000
180007.000000
180984.000000
181957.000000
182931.000000
183830.000000
184643.000000
185403.000000
186206.000000
187118.000000
188069.000000
189014.000000
189906.000000
190759.000000
191618.000000
192501.000000
193379.000000
194192.000000
195028.000000
195927.000000
196814.000000
197647.000000
198424.000000
199178.000000
199959.000000
200855.000000
201796.000000
202727.000000
203661.000000
204566.000000
205423.000000
206287.000000
207149.000000
207978.000000
208775.000000
209614.000000
210533.000000
211452.000000
212320.000000
213129.000000
214013.000000
214905.000000
215766.000000
216592.000000
217352.000000
218162.000000
219026.000000
219918.000000
220760.000000
221527.000000
222303.000000
223133.000000
224014.000000
224905.000000
225789.000000
226636.000000
227450.000000
228254.000000
229098.000000
230010.000000
230944.000000
231836.000000
232728.000000
233649.000000
234559.000000
235423.000000
236299.000000
237213.000000
238138.000000
239023.000000
239882.000000
240803.000000
241774.000000
242728.000000
243613.000000
244501.000000
245405.000000
246258.000000
247079.000000
247926.000000
248858.000000
249821.000000
250765.000000
251644.000000
252448.000000
253193.000000
253980.000000
254884.000000
255869.000000
256857.000000
257791.000000
258668.000000
259588.000000
260550.000000
261528.000000
262499.000000
263436.000000
264301.000000
265113.000000
265918.000000
266827.000000
267831.000000
268840.000000
269777.000000
270716.000000
271668.000000
272638.000000
273556.000000
274450.000000
275389.000000
276316.000000
277225.000000
278116.000000
279045.000000
279992.000000
280919.000000
281799.000000
282722.000000
283671.000000
284586.000000
285488.000000
286409.000000
287372.000000
288311.000000
289249.000000
290209.000000
291131.000000
291991.000000
292841.000000
293788.000000
294760.000000
295704.000000
296667.000000
297639.000000
298610.000000
299502.000000
300404.000000
301344.000000
302279.000000
303174.000000
304086.000000
305020.000000
305948.000000
306820.000000
307711.000000
308623.000000
309537.000000
310362.000000
311161.000000
312013.000000
312896.000000
313740.000000
314513.000000
315324.000000
316161.000000
316967.000000
317699.000000
318402.000000
319059.000000
319758.000000
320638.000000
321467.000000
322310.000000
323208.000000
324071.000000
324879.000000
325701.000000
326579.000000
327466.000000
328293.000000
329109.000000
329977.000000
330860.000000
331676.000000
332529.000000
333420.000000
334265.000000
335063.000000
335901.000000
336734.000000
337516.000000
338301.000000
339133.000000
340005.000000
340824.000000
341672.000000
342572.000000
343499.000000
344349.000000
345209.000000
346130.000000
347049.000000
347927.000000
348751.000000
349595.000000
350477.000000
351351.000000
352173.000000
353028.000000
353922.000000
354876.000000
355746.000000
356665.000000
357630.000000
358525.000000
359343.000000
360225.000000
361131.000000
361967.000000
362819.000000
363731.000000
364640.000000
365472.000000
366390.000000
367316.000000
368166.000000
368994.000000
369864.000000
370748.000000
371586.000000
372412.000000
373279.000000
374174.000000
375009.000000
375842.000000
376736.000000
377610.000000
378409.000000
379230.000000
380074.000000
380852.000000
381590.000000
382304.000000
383064.000000
383919.000000
384823.000000
385678.000000
386537.000000
387443.000000
388334.000000
389172.000000
390064.000000
391006.000000
391876.000000
392732.000000
393661.000000
394568.000000
395393.000000
396266.000000
397213.000000
398093.000000
398927.000000
399830.000000
400771.000000
401637.000000
402469.000000
403374.000000
404300.000000
405134.000000
405988.000000
406906.000000
407810.000000
408655.000000
409542.000000
410477.000000
411333.000000
412152.000000
413016.000000
413921.000000
414770.000000
415633.000000
416605.000000
417550.000000
418383.000000
419254.000000
420170.000000
421014.000000
421832.000000
422729.000000
423638.000000
424501.000000
425391.000000
426356.000000
427227.000000
428075.000000
428977.000000
429878.000000
430702.000000
431547.000000
432487.000000
433392.000000
434218.000000
435104.000000
436069.000000
436966.000000
437833.000000
438757.000000
439689.000000
440558.000000
441425.000000
442338.000000
443279.000000
444151.000000
445059.000000
445988.000000
446890.000000
447731.000000
448653.000000
449613.000000
450501.000000
451384.000000
452300.000000
453213.000000
454068.000000
454975.000000
455898.000000
456805.000000
457749.000000
458719.000000
459633.000000
460568.000000
461532.000000
462451.000000
463369.000000
464314.000000
465220.000000
466101.000000
467002.000000
467920.000000
468755.000000
469576.000000
470453.000000
471348.000000
472181.000000
473020.000000
473879.000000
474709.000000
475502.000000
476337.000000
477247.000000
478156.000000
479057.000000
480020.000000
480978.000000
481885.000000
482819.000000
483765.000000
484671.000000
485543.000000
486457.000000
487307.000000
488178.000000
489026.000000
489899.000000
490771.000000
491630.000000
492485.000000
493395.000000
494311.000000
495200.000000
496119.000000
497017.000000
497838.000000
498738.000000
499724.000000
500632.000000
501544.000000
502494.000000
503405.000000
504269.000000
505180.000000
506109.000000
506929.000000
507787.000000
508756.000000
509754.000000
510732.000000
511725.000000
512740.000000
513686.000000
514567.000000
515456.000000
516434.000000
517426.000000
518376.000000
519373.000000
520374.000000
521306.000000
522181.000000
523134.000000
524141.000000
525081.000000
525986.000000
526945.000000
527937.000000
528861.000000
529793.000000
530778.000000
531742.000000
532647.000000
533559.000000
534512.000000
535450.000000
536330.000000
537261.000000
538227.000000
539188.000000
540090.000000
541025.000000
541974.000000
542863.000000
543649.000000
544466.000000
545361.000000
546272.000000
547165.000000
548160.000000
549165.000000
550101.000000
551035.000000
552003.000000
552921.000000
553782.000000
554674.000000
555606.000000
556505.000000
557362.000000
558278.000000
559241.000000
560128.000000
561015.000000
561900.000000
562809.000000
563688.000000
564583.000000
565474.000000
566337.000000
567210.000000
568136.000000
569095.000000
569985.000000
570844.000000
571717.000000
572597.000000
573436.000000
574320.000000
575251.000000
576141.000000
577042.000000
577994.000000
578930.000000
579818.000000
580731.000000
581665.000000
582554.000000
583427.000000
584307.000000
585167.000000
586048.000000
586967.000000
587846.000000
588727.000000
589655.000000
590595.000000
591465.000000
592351.000000
593229.000000
594075.000000
594948.000000
595860.000000
596795.000000
597692.000000
598627.000000
599561.000000
600446.000000
601348.000000
602285.000000
603164.000000
604038.000000
604954.000000
605871.000000
606728.000000
607601.000000
608495.000000
609337.000000
610174.000000
611060.000000
611942.000000
612794.000000
613688.000000
614618.000000
615494.000000
616337.000000
617225.000000
618118.000000
618949.000000
619796.000000
620709.000000
621622.000000
622477.000000
623403.000000
624381.000000
625306.000000
626240.000000
627217.000000
628143.000000
629020.000000
629913.000000
630849.000000
631739.000000
632617.000000
633538.000000
634466.000000
635343.000000
636246.000000
637169.000000
638044.000000
638878.000000
639758.000000
640679.000000
641534.000000
642360.000000
643112.000000
643800.000000
644493.000000
645277.000000
646091.000000
647002.000000
647970.000000
648870.000000
649770.000000
650678.000000
651552.000000
652345.000000
653150.000000
654043.000000
654901.000000
655717.000000
656630.000000
657590.000000
658511.000000
659406.000000
660361.000000
661301.000000
662173.000000
663084.000000
664038.000000
664947.000000
665838.000000
666792.000000
667756.000000
668646.000000
669557.000000
670523.000000
671490.000000
672403.000000
673351.000000
674323.000000
675232.000000
676162.000000
677121.000000
678022.000000
678887.000000
679831.000000
680794.000000
681686.000000
682609.000000
683575.000000
684485.000000
685382.000000
686285.000000
687184.000000
688009.000000
688823.000000
689718.000000
690644.000000
691512.000000
692418.000000
693361.000000
694266.000000
695172.000000
696117.000000
697038.000000
697888.000000
698826.000000
699783.000000
700666.000000
701543.000000
702494.000000
703434.000000
704306.000000
705241.000000
706221.000000
707132.000000
707980.000000
708896.000000
709858.000000
710779.000000
711648.000000
712598.000000
713578.000000
714504.000000
715365.000000
716156.000000
716951.000000
717878.000000
718867.000000
719837.000000
720727.000000
721610.000000
722577.000000
723509.000000
724375.000000
725212.000000
726115.000000
727035.000000
727895.000000
728705.000000
729506.000000
730401.000000
731374.000000
732346.000000
733264.000000
734147.000000
735055.000000
736029.000000
737008.000000
737938.000000
738814.000000
739705.000000
740644.000000
741594.000000
742535.000000
743424.000000
744243.000000
745038.000000
745910.000000
746883.000000
747861.000000
748814.000000
749716.000000
750578.000000
751493.000000
752458.000000
753424.000000
754367.000000
755339.000000
756312.000000
757260.000000
758165.000000
759115.000000
760080.000000
760985.000000
761840.000000
762733.000000
763662.000000
764551.000000
765474.000000
766428.000000
767362.000000
768237.000000
769170.000000
770105.000000
770982.000000
771863.000000
772802.000000
773770.000000
774671.000000
775566.000000
776490.000000
777433.000000
778318.000000
779225.000000
780177.000000
781122.000000
781993.000000
782819.000000
783699.000000
784626.000000
785563.000000
786432.000000
787284.000000
788176.000000
789028.000000
789770.000000
790462.000000
791140.000000
791938.000000
792846.000000
793726.000000
794644.000000
795597.000000
796497.000000
797322.000000
798159.000000
799059.000000
799998.000000
800914.000000
801776.000000
802649.000000
803618.000000
804602.000000
805581.000000
806495.000000
807345.000000
808215.000000
809168.000000
810126.000000
811030.000000
811936.000000
812885.000000
813845.000000
814753.000000
815586.000000
816378.000000
817178.000000
818096.000000
819077.000000
820072.000000
821057.000000
821974.000000
822863.000000
823768.000000
824729.000000
825696.000000
826639.000000
827516.000000
828363.000000
829230.000000
830113.000000
830979.000000
831823.000000
832689.000000
833654.000000
834653.000000
835643.000000
836567.000000
837456.000000
838368.000000
839288.000000
840148.000000
841003.000000
841896.000000
842833.000000
843739.000000
844653.000000
845594.000000
846523.000000
847377.000000
848183.000000
849031.000000
849942.000000
850879.000000
851761.000000
852629.000000
853549.000000
854482.000000
855365.000000
856237.000000
857177.000000
858134.000000
859031.000000
859877.000000
860781.000000
861725.000000
862675.000000
863620.000000
864514.000000
865347.000000
866232.000000
867191.000000
868158.000000
869047.000000
869896.000000
870699.000000
871552.000000
872511.000000
873465.000000
874404.000000
875274.000000
876101.000000
876970.000000
877890.000000
878802.000000
879646.000000
880530.000000
881424.000000
882333.000000
883204.000000
884059.000000
884911.000000
885773.000000
886617.000000
887409.000000
888242.000000
889156.000000
890118.000000
891052.000000
891995.000000
892902.000000
893741.000000
894540.000000
895394.000000
896299.000000
897243.000000
898139.000000
899068.000000
900036.000000
900980.000000
901859.000000
902765.000000
903706.000000
904604.000000
905430.000000
906257.000000
907207.000000
908208.000000
909172.000000
910067.000000
911016.000000
911975.000000
912900.000000
913798.000000
914741.000000
915678.000000
916591.000000
917552.000000
918525.000000
919466.000000
920374.000000
921299.000000
922258.000000
923173.000000
924035.000000
924971.000000
925917.000000
926831.000000
927731.000000
928651.000000
929578.000000
930465.000000
931349.000000
932281.000000
933186.000000
934024.000000
934871.000000
935755.000000
936685.000000
937572.000000
938441.000000
939345.000000
940260.000000
941134.000000
942032.000000
942952.000000
943908.000000
944800.000000
945632.000000
946506.000000
947442.000000
948394.000000
949288.000000
950174.000000
951112.000000
952064.000000
952974.000000
953874.000000
954798.000000
955708.000000
956549.000000
957392.000000
958344.000000
959301.000000
960197.000000
961118.000000
962094.000000
963022.000000
963881.000000
964715.000000
965630.000000
966635.000000
967602.000000
968537.000000
969515.000000
970476.000000
971404.000000
972357.000000
973341.000000
974271.000000
975219.000000
976183.000000
977139.000000
978034.000000
978972.000000
979926.000000
980826.000000
981676.000000
982573.000000
983529.000000
984435.000000
985254.000000
986126.000000
987061.000000
987959.000000
988832.000000
989763.000000
990707.000000
991606.000000
992444.000000
993356.000000
994284.000000
995244.000000
996162.000000
997063.000000
998000.000000
998989.000000
999960.000000
1000880.000000
1001739.000000
1002578.000000
1003493.000000
1004451.000000
1005372.000000
1006235.000000
1007037.000000
1007841.000000
1008785.000000
1009830.000000
1010833.000000
1011784.000000
1012653.000000
1013530.000000
1014468.000000
1015470.000000
1016427.000000
1017384.000000
1018370.000000
1019340.000000
1020270.000000
1021165.000000
1022097.000000
1023054.000000
1023963.000000
1024910.000000
1025902.000000
1026874.000000
1027790.000000
1028754.000000
1029739.000000
1030660.000000
1031569.000000
1032520.000000
1033522.000000
1034449.000000
1035360.000000
1036318.000000
1037281.000000
1038229.000000
1039191.000000
1040168.000000
1041127.000000
1042020.000000
1042900.000000
1043801.000000
1044767.000000
1045709.000000
1046586.000000
1047481.000000
1048438.000000
1049398.000000
1050294.000000
1051230.000000
1052197.000000
1053131.000000
1054014.000000
1054945.000000
1055916.000000
1056923.000000
1057853.000000
1058837.000000
1059831.000000
1060780.000000
1061659.000000
1062549.000000
1063501.000000
1064418.000000
1065271.000000
1066135.000000
1067063.000000
1067993.000000
1068868.000000
1069802.000000
1070752.000000
1071626.000000
1072499.000000
1073426.000000
1074358.000000
1075186.000000
1076004.000000
1076746.000000
1077470.000000
1078312.000000
1079152.000000
1080001.000000
1080940.000000
1081900.000000
1082808.000000
1083749.000000
1084721.000000
1085640.000000
1086546.000000
1087478.000000
1088437.000000
1089340.000000
1090292.000000
1091273.000000
1092201.000000
1093156.000000
1094150.000000
1095121.000000
1096057.000000
1097028.000000
1098034.000000
1098977.000000
1099938.000000
1100920.000000
1101898.000000
1102801.000000
1103716.000000
1104676.000000
1105635.000000
1106545.000000
1107493.000000
1108456.000000
1109370.000000
1110251.000000
1111181.000000
1112130.000000
1113024.000000
1113921.000000
1114863.000000
1115816.000000
1116717.000000
1117673.000000
1118660.000000
1119574.000000
1120414.000000
1121360.000000
1122418.000000
1123381.000000
1124294.000000
1125181.000000
1126168.000000
1127176.000000
1128142.000000
1129030.000000
1129856.000000
1130700.000000
1131714.000000
1132747.000000
1133680.000000
1134609.000000
1135613.000000
1136637.000000
1137627.000000
1138566.000000
1139467.000000
1140453.000000
1141461.000000
1142406.000000
1143303.000000
1144262.000000
1145280.000000
1146296.000000
1147285.000000
1148198.000000
1149034.000000
1149854.000000
1150804.000000
1151798.000000
1152722.000000
1153593.000000
1154538.000000
1155551.000000
1156522.000000
1157420.000000
1158262.000000
1159172.000000
1160188.000000
1161128.000000
1162021.000000
1162865.000000
1163825.000000
1164873.000000
1165829.000000
1166721.000000
1167569.000000
1168444.000000
1169389.000000
1170395.000000
1171322.000000
1172188.000000
1172962.000000
1173723.000000
1174688.000000
1175708.000000
1176725.000000
1177731.000000
1178681.000000
1179579.000000
1180538.000000
1181534.000000
1182505.000000
1183437.000000
1184317.000000
1185214.000000
1186175.000000
1187116.000000
1188040.000000
1188923.000000
1189798.000000
1190707.000000
1191636.000000
1192552.000000
1193436.000000
1194322.000000
1195275.000000
1196243.000000
1197187.000000
1198141.000000
1199075.000000
1199986.000000
1200854.000000
1201713.000000
1202612.000000
