ECG (ms)
737.000000
1854.000000
2957.000000
4042.000000
5129.000000
6198.000000
7240.000000
8275.000000
9328.000000
10388.000000
11471.000000
12538.000000
13613.000000
14686.000000
15740.000000
16804.000000
17871.000000
18937.000000
20001.000000
21050.000000
22106.000000
23169.000000
23864.000000
25105.000000
26157.000000
27206.000000
28259.000000
29314.000000
30376.000000
31433.000000
32499.000000
33560.000000
34616.000000
35652.000000
36650.000000
37633.000000
38637.000000
39662.000000
40708.000000
41759.000000
42802.000000
43850.000000
44870.000000
45854.000000
46839.000000
47841.000000
48866.000000
49612.000000
50205.000000
51478.000000
52682.000000
53822.000000
54919.000000
55953.000000
56958.000000
57963.000000
58977.000000
60012.000000
61067.000000
62134.000000
63209.000000
64284.000000
65048.000000
65605.000000
66831.000000
67905.000000
68960.000000
70010.000000
71053.000000
72094.000000
73116.000000
74123.000000
75106.000000
76086.000000
77084.000000
78099.000000
79124.000000
80153.000000
81184.000000
82208.000000
83223.000000
83928.000000
85077.000000
86092.000000
87111.000000
88147.000000
89171.000000
90200.000000
91212.000000
91899.000000
93046.000000
94029.000000
95048.000000
96071.000000
97108.000000
98149.000000
99163.000000
100177.000000
100905.000000
102003.000000
102952.000000
103933.000000
104940.000000
105936.000000
106933.000000
107938.000000
108933.000000
109917.000000
110875.000000
111826.000000
112792.000000
113785.000000
114510.000000
115109.000000
116305.000000
117433.000000
118504.000000
119504.000000
120495.000000
121493.000000
122495.000000
123164.000000
124210.000000
125132.000000
126056.000000
127009.000000
127998.000000
129008.000000
130033.000000
131068.000000
132088.000000
133115.000000
134143.000000
135140.000000
135846.000000
136983.000000
137984.000000
139013.000000
140050.000000
141088.000000
142132.000000
143165.000000
144182.000000
145192.000000
146195.000000
147211.000000
148254.000000
149325.000000
150422.000000
151516.000000
152609.000000
153698.000000
154758.000000
155459.000000
156637.000000
157665.000000
158695.000000
159749.000000
160819.000000
161900.000000
162992.000000
164076.000000
165149.000000
165850.000000
167037.000000
168067.000000
169107.000000
170149.000000
171188.000000
172227.000000
173256.000000
174269.000000
175267.000000
176268.000000
177312.000000
178380.000000
179447.000000
180511.000000
181569.000000
182316.000000
182826.000000
184017.000000
185097.000000
186177.000000
187257.000000
188345.000000
189431.000000
190493.000000
191528.000000
192589.000000
193663.000000
194741.000000
195798.000000
196838.000000
197839.000000
198844.000000
199885.000000
200945.000000
202007.000000
202686.000000
203875.000000
204921.000000
205907.000000
206898.000000
207870.000000
208867.000000
209888.000000
210905.000000
211933.000000
212970.000000
213684.000000
214211.000000
215392.000000
216493.000000
217545.000000
218595.000000
219660.000000
220725.000000
221772.000000
222805.000000
223805.000000
224794.000000
225832.000000
226896.000000
227990.000000
229101.000000
230207.000000
230943.000000
231505.000000
232749.000000
233857.000000
234931.000000
235988.000000
237026.000000
238077.000000
239101.000000
240144.000000
241207.000000
242272.000000
243336.000000
244366.000000
245381.000000
246397.000000
247441.000000
248515.000000
249599.000000
250687.000000
251770.000000
252832.000000
253849.000000
254855.000000
255865.000000
256894.000000
257945.000000
258988.000000
260033.000000
261074.000000
262136.000000
262838.000000
263383.000000
264248.000000
265275.000000
266526.000000
267617.000000
268679.000000
269722.000000
270765.000000
271785.000000
272775.000000
273780.000000
274814.000000
275846.000000
276896.000000
277935.000000
278977.000000
280001.000000
280698.000000
281881.000000
282934.000000
283986.000000
285045.000000
286112.000000
287153.000000
287860.000000
289046.000000
290103.000000
291160.000000
292214.000000
293268.000000
294310.000000
295326.000000
296306.000000
297303.000000
298319.000000
299343.000000
300383.000000
301139.000000
301675.000000
302870.000000
303913.000000
304914.000000
305929.000000
306962.000000
308004.000000
309057.000000
310115.000000
311161.000000
311886.000000
313030.000000
314020.000000
315036.000000
316067.000000
317102.000000
318156.000000
319205.000000
320264.000000
320984.000000
322156.000000
323189.000000
324237.000000
325285.000000
326320.000000
327362.000000
328396.000000
329403.000000
330380.000000
331357.000000
332400.000000
333471.000000
334558.000000
335651.000000
336749.000000
337835.000000
338534.000000
339720.000000
340768.000000
341818.000000
342876.000000
343939.000000
344998.000000
346064.000000
347097.000000
348100.000000
349108.000000
350136.000000
351175.000000
352212.000000
353248.000000
354273.000000
355298.000000
356337.000000
357373.000000
358406.000000
359075.000000
360272.000000
361343.000000
362407.000000
363465.000000
364524.000000
365584.000000
366652.000000
367719.000000
368774.000000
369453.000000
370644.000000
371711.000000
372767.000000
373826.000000
374892.000000
375942.000000
377003.000000
378033.000000
379033.000000
380053.000000
381088.000000
382124.000000
383170.000000
384214.000000
385272.000000
386327.000000
387084.000000
387591.000000
388202.000000
389421.000000
390539.000000
391633.000000
392713.000000
393783.000000
394818.000000
395827.000000
396833.000000
397866.000000
398924.000000
399983.000000
401045.000000
402112.000000
403168.000000
404219.000000
405246.000000
406262.000000
407291.000000
408333.000000
409390.000000
410443.000000
411496.000000
412528.000000
413549.000000
414599.000000
415667.000000
416727.000000
417794.000000
418840.000000
419858.000000
420885.000000
421940.000000
423001.000000
424074.000000
425157.000000
426231.000000
427284.000000
428326.000000
429400.000000
430493.000000
431583.000000
432677.000000
433744.000000
434445.000000
435644.000000
436700.000000
437770.000000
438842.000000
439926.000000
441006.000000
442065.000000
443090.000000
444100.000000
445112.000000
446162.000000
447199.000000
448256.000000
449316.000000
450366.000000
451370.000000
452357.000000
453354.000000
454369.000000
455359.000000
456364.000000
457349.000000
458312.000000
459249.000000
460209.000000
461194.000000
462202.000000
462922.000000
463493.000000
464642.000000
465715.000000
466708.000000
467716.000000
468722.000000
469739.000000
470745.000000
471745.000000
472724.000000
473673.000000
474635.000000
475624.000000
476610.000000
477615.000000
478627.000000
479635.000000
480629.000000
481597.000000
482578.000000
483581.000000
484598.000000
485651.000000
486704.000000
487693.000000
488665.000000
489660.000000
490704.000000
491700.000000
492672.000000
493652.000000
494654.000000
495661.000000
496628.000000
497603.000000
498625.000000
499655.000000
500693.000000
501720.000000
502755.000000
503802.000000
504517.000000
505782.000000
506884.000000
508007.000000
509091.000000
510161.000000
510825.000000
512033.000000
513097.000000
514154.000000
515208.000000
516221.000000
517213.000000
518243.000000
519273.000000
520302.000000
521324.000000
522320.000000
523329.000000
524362.000000
525408.000000
526447.000000
527475.000000
528181.000000
529371.000000
530418.000000
531461.000000
532520.000000
533562.000000
534249.000000
535460.000000
536553.000000
537626.000000
538691.000000
539769.000000
540825.000000
541863.000000
542885.000000
543937.000000
545006.000000
546082.000000
547150.000000
548180.000000
549210.000000
550262.000000
551322.000000
552386.000000
553447.000000
554112.000000
555321.000000
556406.000000
557509.000000
558598.000000
559681.000000
560741.000000
561774.000000
562827.000000
563895.000000
564953.000000
566008.000000
567058.000000
568100.000000
569109.000000
570132.000000
571183.000000
572233.000000
573296.000000
574374.000000
575469.000000
576568.000000
577278.000000
577845.000000
579086.000000
580285.000000
581432.000000
582560.000000
583639.000000
584694.000000
585779.000000
586863.000000
587952.000000
589029.000000
590083.000000
591109.000000
592164.000000
593254.000000
594367.000000
595467.000000
596525.000000
597609.000000
598702.000000
599792.000000
600868.000000
601910.000000
602988.000000
604071.000000
605153.000000
606221.000000
607272.000000
608303.000000
609354.000000
610426.000000
611495.000000
612571.000000
613634.000000
614674.000000
615720.000000
616795.000000
617890.000000
618973.000000
620056.000000
621120.000000
622147.000000
623197.000000
624248.000000
625294.000000
626344.000000
627361.000000
628357.000000
629379.000000
630422.000000
631489.000000
632583.000000
633638.000000
634309.000000
635500.000000
636573.000000
637626.000000
638687.000000
639739.000000
640771.000000
641785.000000
642773.000000
643781.000000
644799.000000
645780.000000
646761.000000
647786.000000
648765.000000
649778.000000
650791.000000
651808.000000
652831.000000
653846.000000
654867.000000
655903.000000
656927.000000
657655.000000
658821.000000
659886.000000
660964.000000
662064.000000
663143.000000
664217.000000
665278.000000
666315.000000
667373.000000
668441.000000
669510.000000
670581.000000
671656.000000
672690.000000
673729.000000
674796.000000
675880.000000
676972.000000
678053.000000
679138.000000
680198.000000
680877.000000
682104.000000
683206.000000
684272.000000
685328.000000
686375.000000
687442.000000
688513.000000
689568.000000
690586.000000
691616.000000
692676.000000
693733.000000
694775.000000
695788.000000
696809.000000
697854.000000
698868.000000
699897.000000
700933.000000
701973.000000
702990.000000
704032.000000
704727.000000
705918.000000
706976.000000
708029.000000
709050.000000
710089.000000
711131.000000
712155.000000
713148.000000
714178.000000
715220.000000
716260.000000
716971.000000
717535.000000
718775.000000
719936.000000
721006.000000
722035.000000
723086.000000
724144.000000
725185.000000
726213.000000
727256.000000
728258.000000
729260.000000
730285.000000
731319.000000
732364.000000
733424.000000
734454.000000
735430.000000
736408.000000
737426.000000
738473.000000
739550.000000
740623.000000
741335.000000
741934.000000
743106.000000
744229.000000
745323.000000
746411.000000
747478.000000
748519.000000
749569.000000
750609.000000
751649.000000
752641.000000
753622.000000
754302.000000
755529.000000
756558.000000
757580.000000
758631.000000
759368.000000
759936.000000
761122.000000
762212.000000
763284.000000
764329.000000
765360.000000
766370.000000
767345.000000
768309.000000
769289.000000
770301.000000
771346.000000
772068.000000
772648.000000
773846.000000
774939.000000
776003.000000
777076.000000
778130.000000
779174.000000
780210.000000
781248.000000
782264.000000
783278.000000
784262.000000
785266.000000
786296.000000
787320.000000
788360.000000
789395.000000
790462.000000
791524.000000
792596.000000
793645.000000
794312.000000
795510.000000
796605.000000
797675.000000
798719.000000
799710.000000
800690.000000
801714.000000
802765.000000
803847.000000
804939.000000
806045.000000
807137.000000
808236.000000
809346.000000
810459.000000
812655.000000
813708.000000
814756.000000
815827.000000
816923.000000
818020.000000
819153.000000
820291.000000
821405.000000
822087.000000
823343.000000
824465.000000
825561.000000
826666.000000
827775.000000
828908.000000
830063.000000
831227.000000
832414.000000
833603.000000
834777.000000
835925.000000
837022.000000
838124.000000
839236.000000
840345.000000
841456.000000
842566.000000
843677.000000
844752.000000
845793.000000
846838.000000
847915.000000
849007.000000
850117.000000
851222.000000
852309.000000
853404.000000
854073.000000
855272.000000
856331.000000
857405.000000
858495.000000
859572.000000
860664.000000
861742.000000
862811.000000
863840.000000
864849.000000
865885.000000
866923.000000
867982.000000
869033.000000
870072.000000
871086.000000
872067.000000
873073.000000
874084.000000
875116.000000
876133.000000
877174.000000
878215.000000
879242.000000
880258.000000
881282.000000
882322.000000
883353.000000
884369.000000
885354.000000
886376.000000
887412.000000
888437.000000
889454.000000
890445.000000
891473.000000
892511.000000
893563.000000
894608.000000
895311.000000
895906.000000
897171.000000
898311.000000
