ECG (ms)
214.000000
1355.000000
1995.000000
3156.000000
4278.000000
4901.000000
6068.000000
7178.000000
8038.000000
8667.000000
9485.000000
10238.000000
11423.000000
12508.000000
13301.000000
14462.000000
15561.000000
16210.000000
17318.000000
17900.000000
19052.000000
20117.000000
21186.000000
22236.000000
22879.000000
24055.000000
25110.000000
25723.000000
26849.000000
27747.000000
28360.000000
29026.000000
30268.000000
31362.000000
32045.000000
33276.000000
34381.000000
35438.000000
36061.000000
37162.000000
38331.000000
39362.000000
40479.000000
41520.000000
42165.000000
43328.000000
44370.000000
44994.000000
45826.000000
46992.000000
47676.000000
48243.000000
49362.000000
50017.000000
51201.000000
52251.000000
52900.000000
54111.000000
55162.000000
55860.000000
56471.000000
57121.000000
57919.000000
58639.000000
59817.000000
60563.000000
61790.000000
62860.000000
63919.000000
64572.000000
65775.000000
66856.000000
67467.000000
68461.000000
69242.000000
70452.000000
71529.000000
72181.000000
73186.000000
74198.000000
75388.000000
76428.000000
77035.000000
77736.000000
78741.000000
79544.000000
80758.000000
81831.000000
82542.000000
83747.000000
84824.000000
85476.000000
86647.000000
87730.000000
88768.000000
89378.000000
89932.000000
90617.000000
91767.000000
92653.000000
93712.000000
94891.000000
95949.000000
96559.000000
97295.000000
98164.000000
98815.000000
99927.000000
100538.000000
101168.000000
102344.000000
103131.000000
104111.000000
105318.000000
106395.000000
107023.000000
108115.000000
108771.000000
109340.000000
110480.000000
111115.000000
112326.000000
113386.000000
114445.000000
115090.000000
116176.000000
117380.000000
118179.000000
118831.000000
119595.000000
120607.000000
121354.000000
122594.000000
123675.000000
124743.000000
125395.000000
126549.000000
127699.000000
128483.000000
129115.000000
129778.000000
130629.000000
131410.000000
132672.000000
133769.000000
134540.000000
135572.000000
136783.000000
137872.000000
138496.000000
139646.000000
140799.000000
141893.000000
142960.000000
143606.000000
144482.000000
145482.000000
146648.000000
147294.000000
148447.000000
149535.000000
150625.000000
151689.000000
152467.000000
153203.000000
154412.000000
155056.000000
156097.000000
156750.000000
157871.000000
158928.000000
160007.000000
160650.000000
161249.000000
162214.000000
163412.000000
164484.000000
165140.000000
166071.000000
167290.000000
168345.000000
168942.000000
169531.000000
170323.000000
171289.000000
172523.000000
173612.000000
174679.000000
175320.000000
176480.000000
177607.000000
178334.000000
179510.000000
180596.000000
181678.000000
182735.000000
183778.000000
184413.000000
185559.000000
186692.000000
187731.000000
188331.000000
189298.000000
190153.000000
190842.000000
192040.000000
193117.000000
193769.000000
194992.000000
196098.000000
197169.000000
197786.000000
198944.000000
200075.000000
200874.000000
202083.000000
203157.000000
203952.000000
204755.000000
205874.000000
207013.000000
207580.000000
208712.000000
209366.000000
209926.000000
211078.000000
212149.000000
212881.000000
213759.000000
214982.000000
216050.000000
216736.000000
217803.000000
218429.000000
219541.000000
220416.000000
221547.000000
222612.000000
223392.000000
224225.000000
225363.000000
226034.000000
227183.000000
228351.000000
228972.000000
229560.000000
230396.000000
231165.000000
232382.000000
233457.000000
234127.000000
235317.000000
236449.000000
237077.000000
238040.000000
238947.000000
239985.000000
240736.000000
241967.000000
243051.000000
244122.000000
244755.000000
245848.000000
247028.000000
247755.000000
248935.000000
249887.000000
251035.000000
252104.000000
252854.000000
253518.000000
254670.000000
255687.000000
256333.000000
257527.000000
258145.000000
259193.000000
259810.000000
260968.000000
262044.000000
263109.000000
264165.000000
264830.000000
266017.000000
267073.000000
267706.000000
268548.000000
269610.000000
270265.000000
271230.000000
271877.000000
272530.000000
273456.000000
274721.000000
275820.000000
276897.000000
277554.000000
278667.000000
279802.000000
280962.000000
281899.000000
283042.000000
284116.000000
284879.000000
285581.000000
286798.000000
287874.000000
288910.000000
289516.000000
290391.000000
291314.000000
292108.000000
293198.000000
293892.000000
295119.000000
296204.000000
297264.000000
297896.000000
299061.000000
300162.000000
301240.000000
301860.000000
302363.000000
303001.000000
303759.000000
304768.000000
305492.000000
306733.000000
307830.000000
308689.000000
309342.000000
310087.000000
310803.000000
311989.000000
313068.000000
314162.000000
314797.000000
315388.000000
316320.000000
316999.000000
318231.000000
319300.000000
319923.000000
320872.000000
322101.000000
323118.000000
324208.000000
325369.000000
326432.000000
327202.000000
327861.000000
328901.000000
329863.000000
330509.000000
331275.000000
332149.000000
332959.000000
334017.000000
335275.000000
336391.000000
337480.000000
338130.000000
339378.000000
340463.000000
341208.000000
341877.000000
342578.000000
343584.000000
344296.000000
345517.000000
346604.000000
347675.000000
348307.000000
349412.000000
350532.000000
351467.000000
352681.000000
353771.000000
354829.000000
355881.000000
356657.000000
357381.000000
358562.000000
359285.000000
360434.000000
361463.000000
362648.000000
363736.000000
364528.000000
365483.000000
366708.000000
367798.000000
368862.000000
369488.000000
370573.000000
371202.000000
371925.000000
372787.000000
373969.000000
374633.000000
375859.000000
376940.000000
377603.000000
378575.000000
379630.000000
380202.000000
381326.000000
382060.000000
383173.000000
384215.000000
384985.000000
385658.000000
386844.000000
387910.000000
388706.000000
389502.000000
390662.000000
391304.000000
392489.000000
393552.000000
394248.000000
395385.000000
396269.000000
397324.000000
398508.000000
399588.000000
400201.000000
401280.000000
401862.000000
403023.000000
403647.000000
404279.000000
405240.000000
406292.000000
407477.000000
408552.000000
409179.000000
409987.000000
410915.000000
411764.000000
412437.000000
413555.000000
414692.000000
415763.000000
416396.000000
417607.000000
418680.000000
419479.000000
420239.000000
421274.000000
422469.000000
423552.000000
424193.000000
425325.000000
425969.000000
426604.000000
427410.000000
428526.000000
429316.000000
430540.000000
431624.000000
432268.000000
433282.000000
434292.000000
435036.000000
435660.000000
436568.000000
437221.000000
438422.000000
439502.000000
440191.000000
441215.000000
442429.000000
443497.000000
444097.000000
444765.000000
445554.000000
446478.000000
447744.000000
448835.000000
449483.000000
450579.000000
451361.000000
452581.000000
453679.000000
454793.000000
455886.000000
456667.000000
457389.000000
458616.000000
459687.000000
460299.000000
460994.000000
461862.000000
462800.000000
463467.000000
464684.000000
465763.000000
466404.000000
467513.000000
468719.000000
469476.000000
470676.000000
471779.000000
472869.000000
473931.000000
474578.000000
475614.000000
476235.000000
477380.000000
478054.000000
478724.000000
479939.000000
481022.000000
481676.000000
482836.000000
483924.000000
484549.000000
485094.000000
485731.000000
486459.000000
487490.000000
488214.000000
489445.000000
490530.000000
491602.000000
492250.000000
493303.000000
494460.000000
495658.000000
496760.000000
497837.000000
498514.000000
499166.000000
500230.000000
501342.000000
502452.000000
503056.000000
503669.000000
504417.000000
505399.000000
506640.000000
507732.000000
508392.000000
509625.000000
510684.000000
511289.000000
511979.000000
512754.000000
514000.000000
515094.000000
515757.000000
516827.000000
517932.000000
518643.000000
519668.000000
520391.000000
521602.000000
522683.000000
523337.000000
524333.000000
525533.000000
526610.000000
527248.000000
528434.000000
528999.000000
529900.000000
530579.000000
531156.000000
532334.000000
533411.000000
534480.000000
535136.000000
536329.000000
537381.000000
538023.000000
538835.000000
539703.000000
540354.000000
541473.000000
542140.000000
542791.000000
543881.000000
544777.000000
545886.000000
547069.000000
548152.000000
548803.000000
549771.000000
551005.000000
552004.000000
553210.000000
554310.000000
555129.000000
555858.000000
556918.000000
558162.000000
559212.000000
559811.000000
560431.000000
561161.000000
561651.000000
563126.000000
563739.000000
564919.000000
565976.000000
566780.000000
567598.000000
568730.000000
569384.000000
570575.000000
571664.000000
572293.000000
572949.000000
574196.000000
575288.000000
576353.000000
576993.000000
578092.000000
579248.000000
580306.000000
581479.000000
582562.000000
583317.000000
583980.000000
585027.000000
586092.000000
586746.000000
587837.000000
588781.000000
589521.000000
590751.000000
591416.000000
592668.000000
593766.000000
594429.000000
595681.000000
596760.000000
597365.000000
598019.000000
598816.000000
599881.000000
600818.000000
602058.000000
603159.000000
603800.000000
605049.000000
606154.000000
606781.000000
608025.000000
609135.000000
609783.000000
610976.000000
611577.000000
612781.000000
613425.000000
613972.000000
615155.000000
616231.000000
616935.000000
617994.000000
618754.000000
619995.000000
621105.000000
622223.000000
623323.000000
623997.000000
625199.000000
626297.000000
626934.000000
627863.000000
628780.000000
629481.000000
630635.000000
631389.000000
632572.000000
633655.000000
634436.000000
635177.000000
636361.000000
637467.000000
638102.000000
638688.000000
639502.000000
640525.000000
641571.000000
642607.000000
643716.000000
644657.000000
645835.000000
646766.000000
648012.000000
649129.000000
649765.000000
651023.000000
652128.000000
652755.000000
653850.000000
654808.000000
655460.000000
656085.000000
657143.000000
658124.000000
659067.000000
660324.000000
661429.000000
662078.000000
663174.000000
663762.000000
664697.000000
665424.000000
666639.000000
667718.000000
668358.000000
669520.000000
670625.000000
671707.000000
672358.000000
672910.000000
673591.000000
674446.000000
675288.000000
676559.000000
677668.000000
678335.000000
679582.000000
680716.000000
681375.000000
682618.000000
683279.000000
684504.000000
685594.000000
686219.000000
687033.000000
687963.000000
688818.000000
689763.000000
691022.000000
692130.000000
692780.000000
694022.000000
695121.000000
695753.000000
696552.000000
697486.000000
698394.000000
699060.000000
700241.000000
701324.000000
701975.000000
703221.000000
704310.000000
704942.000000
706174.000000
707246.000000
707852.000000
708453.000000
709225.000000
710144.000000
711423.000000
712556.000000
713674.000000
714345.000000
715542.000000
716686.000000
717432.000000
718663.000000
719806.000000
720917.000000
722007.000000
722662.000000
723800.000000
724391.000000
725613.000000
726724.000000
727833.000000
728474.000000
729067.000000
730021.000000
730708.000000
731958.000000
733064.000000
733683.000000
734749.000000
735584.000000
736836.000000
737497.000000
738722.000000
739803.000000
740433.000000
741246.000000
742449.000000
743641.000000
744735.000000
745810.000000
746446.000000
747608.000000
748220.000000
749424.000000
750507.000000
751605.000000
752241.000000
752807.000000
754017.000000
755090.000000
755730.000000
756938.000000
758009.000000
758619.000000
759261.000000
760060.000000
761112.000000
762347.000000
763447.000000
764109.000000
765106.000000
765847.000000
767005.000000
768069.000000
768683.000000
769247.000000
769903.000000
770627.000000
771483.000000
772969.000000
774058.000000
774686.000000
775708.000000
776908.000000
778005.000000
778626.000000
779503.000000
780219.000000
781410.000000
782502.000000
783595.000000
784231.000000
785448.000000
786542.000000
787180.000000
787925.000000
788678.000000
789912.000000
790557.000000
791773.000000
792854.000000
793565.000000
794552.000000
795304.000000
796389.000000
797581.000000
798386.000000
799607.000000
800699.000000
801487.000000
802196.000000
803313.000000
804158.000000
804918.000000
806188.000000
807277.000000
807890.000000
808487.000000
809454.000000
810383.000000
811635.000000
812746.000000
813399.000000
814652.000000
815752.000000
816376.000000
817200.000000
818194.000000
818906.000000
820111.000000
821196.000000
821863.000000
823096.000000
823835.000000
825027.000000
826161.000000
827283.000000
827951.000000
828583.000000
829564.000000
830802.000000
831896.000000
832523.000000
833627.000000
834265.000000
835474.000000
836553.000000
837224.000000
838445.000000
839533.000000
840176.000000
841233.000000
842250.000000
842909.000000
843573.000000
844571.000000
845832.000000
846500.000000
847749.000000
848848.000000
849467.000000
850374.000000
851312.000000
852049.000000
853274.000000
854368.000000
855176.000000
855910.000000
857159.000000
858229.000000
858834.000000
859437.000000
860133.000000
861093.000000
862098.000000
863336.000000
864447.000000
865096.000000
866162.000000
867375.000000
868159.000000
869342.000000
870445.000000
871519.000000
872580.000000
873226.000000
874075.000000
874996.000000
875854.000000
876608.000000
877832.000000
878924.000000
880009.000000
880651.000000
881884.000000
882981.000000
884059.000000
884700.000000
885938.000000
887037.000000
887657.000000
888340.000000
889312.000000
890282.000000
891237.000000
892306.000000
893484.000000
894533.000000
895150.000000
896312.000000
897008.000000
897915.000000
