ECG (ms)
486.000000
1278.000000
2094.000000
2940.000000
3812.000000
4691.000000
5524.000000
6310.000000
7069.000000
7843.000000
8624.000000
9403.000000
10175.000000
10940.000000
11721.000000
12533.000000
13367.000000
14215.000000
15079.000000
15923.000000
16760.000000
17566.000000
18398.000000
19248.000000
20132.000000
21021.000000
21905.000000
22771.000000
23646.000000
24518.000000
25394.000000
26275.000000
27156.000000
28019.000000
28867.000000
29711.000000
30560.000000
31424.000000
32296.000000
33178.000000
34043.000000
34888.000000
35730.000000
36576.000000
37431.000000
38287.000000
39121.000000
39977.000000
40853.000000
41730.000000
42608.000000
43462.000000
44314.000000
45175.000000
46053.000000
46926.000000
47790.000000
48661.000000
49521.000000
50367.000000
51207.000000
52056.000000
52915.000000
53784.000000
54646.000000
55510.000000
56382.000000
57265.000000
58164.000000
59045.000000
59907.000000
60739.000000
61565.000000
62400.000000
63263.000000
64155.000000
65030.000000
65900.000000
66742.000000
67578.000000
68416.000000
69258.000000
70105.000000
70954.000000
71790.000000
72630.000000
73514.000000
74430.000000
75330.000000
76237.000000
77136.000000
78024.000000
78873.000000
79712.000000
80559.000000
81431.000000
82300.000000
83166.000000
84012.000000
84839.000000
85674.000000
86497.000000
87343.000000
88191.000000
89056.000000
89938.000000
90809.000000
91648.000000
92472.000000
93310.000000
94173.000000
95034.000000
95909.000000
96763.000000
97598.000000
98422.000000
99250.000000
100097.000000
100967.000000
101850.000000
102731.000000
103600.000000
104465.000000
105303.000000
106141.000000
106992.000000
107842.000000
108684.000000
109512.000000
110344.000000
111207.000000
112088.000000
112949.000000
113808.000000
114649.000000
115489.000000
116342.000000
117197.000000
118042.000000
118935.000000
119792.000000
120644.000000
121486.000000
122353.000000
123219.000000
124070.000000
124918.000000
125757.000000
126580.000000
127404.000000
128248.000000
129092.000000
129946.000000
130786.000000
131621.000000
132463.000000
133323.000000
134208.000000
135056.000000
135896.000000
136723.000000
137548.000000
138358.000000
139162.000000
139977.000000
140815.000000
141659.000000
142510.000000
143380.000000
144233.000000
145066.000000
145890.000000
146724.000000
147572.000000
148427.000000
149293.000000
150157.000000
150995.000000
151812.000000
152618.000000
153433.000000
154246.000000
155079.000000
155928.000000
156783.000000
157658.000000
158525.000000
159405.000000
160258.000000
161113.000000
161950.000000
162777.000000
163611.000000
164462.000000
165326.000000
166184.000000
167047.000000
167893.000000
168738.000000
169583.000000
170426.000000
171278.000000
172136.000000
172983.000000
173851.000000
174716.000000
175592.000000
176499.000000
177401.000000
178274.000000
179137.000000
179971.000000
180806.000000
181653.000000
182533.000000
183423.000000
184324.000000
185214.000000
186072.000000
186909.000000
187737.000000
188580.000000
189427.000000
190275.000000
191129.000000
191974.000000
192825.000000
193660.000000
194501.000000
195342.000000
196180.000000
197024.000000
197869.000000
198695.000000
199499.000000
200307.000000
201107.000000
201925.000000
202807.000000
203676.000000
204530.000000
205366.000000
206179.000000
206978.000000
207773.000000
208563.000000
209367.000000
210212.000000
211101.000000
212020.000000
212949.000000
213858.000000
214748.000000
215619.000000
216476.000000
217298.000000
218113.000000
218945.000000
219783.000000
220649.000000
221528.000000
222416.000000
223298.000000
224157.000000
225006.000000
225819.000000
226638.000000
227469.000000
228334.000000
229208.000000
230075.000000
230931.000000
231803.000000
232678.000000
233542.000000
234406.000000
235260.000000
236106.000000
236948.000000
237766.000000
238584.000000
239403.000000
240203.000000
241016.000000
241820.000000
242661.000000
243521.000000
244387.000000
245247.000000
246102.000000
246945.000000
247802.000000
248642.000000
249477.000000
250293.000000
251098.000000
251910.000000
252718.000000
253560.000000
254419.000000
255276.000000
256114.000000
256954.000000
257795.000000
258628.000000
259459.000000
260268.000000
261080.000000
261889.000000
262695.000000
263504.000000
264331.000000
265173.000000
266005.000000
266826.000000
267652.000000
268490.000000
269346.000000
270195.000000
271033.000000
271858.000000
272671.000000
273484.000000
274279.000000
275082.000000
275910.000000
276740.000000
277580.000000
278430.000000
279304.000000
280191.000000
281083.000000
281964.000000
282818.000000
283661.000000
284495.000000
285330.000000
286171.000000
287030.000000
287883.000000
288737.000000
289577.000000
290405.000000
291234.000000
292093.000000
292962.000000
293836.000000
294716.000000
295590.000000
296446.000000
297302.000000
298142.000000
298980.000000
299802.000000
300619.000000
301449.000000
302286.000000
303118.000000
303959.000000
304799.000000
305629.000000
306463.000000
307316.000000
308181.000000
309044.000000
309919.000000
310775.000000
311637.000000
312494.000000
313352.000000
314217.000000
315056.000000
315878.000000
316711.000000
317549.000000
318391.000000
319242.000000
320097.000000
320946.000000
321811.000000
322664.000000
323522.000000
324381.000000
325243.000000
326093.000000
326934.000000
327778.000000
328617.000000
329457.000000
330309.000000
331150.000000
331992.000000
332851.000000
333730.000000
334582.000000
335427.000000
336268.000000
337106.000000
337965.000000
338822.000000
339671.000000
340511.000000
341346.000000
342173.000000
343001.000000
343840.000000
344700.000000
345571.000000
346431.000000
347280.000000
348096.000000
348928.000000
349761.000000
350595.000000
351456.000000
352310.000000
353165.000000
354007.000000
354869.000000
355717.000000
356564.000000
357414.000000
358249.000000
359064.000000
359893.000000
360724.000000
361554.000000
362384.000000
363204.000000
364041.000000
364896.000000
365753.000000
366627.000000
367498.000000
368344.000000
369181.000000
370012.000000
370865.000000
371751.000000
372639.000000
373533.000000
374390.000000
375215.000000
376026.000000
376831.000000
377652.000000
378478.000000
379327.000000
380193.000000
381096.000000
381984.000000
382869.000000
383734.000000
384571.000000
385381.000000
386184.000000
387005.000000
387879.000000
388734.000000
389565.000000
390390.000000
391189.000000
391958.000000
392718.000000
393489.000000
394274.000000
395077.000000
395886.000000
396744.000000
397617.000000
398483.000000
399356.000000
400216.000000
401057.000000
401889.000000
402723.000000
403579.000000
404433.000000
405296.000000
406127.000000
406954.000000
407795.000000
408664.000000
409532.000000
410383.000000
411227.000000
412055.000000
412878.000000
413703.000000
414535.000000
415357.000000
416168.000000
416983.000000
417801.000000
418632.000000
419476.000000
420316.000000
421150.000000
421976.000000
422796.000000
423598.000000
424402.000000
425214.000000
426036.000000
426870.000000
427714.000000
428537.000000
429345.000000
430163.000000
430979.000000
431803.000000
432621.000000
433441.000000
434253.000000
435059.000000
435874.000000
436693.000000
437527.000000
438360.000000
439205.000000
440055.000000
440902.000000
441718.000000
442531.000000
443345.000000
444150.000000
444975.000000
445791.000000
446603.000000
447417.000000
448214.000000
449021.000000
449841.000000
450665.000000
451481.000000
452288.000000
453094.000000
453891.000000
454694.000000
455526.000000
456379.000000
457229.000000
458067.000000
458903.000000
459716.000000
460525.000000
461343.000000
462181.000000
463030.000000
463880.000000
464725.000000
465578.000000
466417.000000
467262.000000
468079.000000
468881.000000
469681.000000
470508.000000
471358.000000
472203.000000
473047.000000
473890.000000
474745.000000
475616.000000
476474.000000
477334.000000
478172.000000
478993.000000
479819.000000
480626.000000
481436.000000
482260.000000
483103.000000
483953.000000
484806.000000
485663.000000
486510.000000
487340.000000
488173.000000
489011.000000
489862.000000
490730.000000
491619.000000
492487.000000
493357.000000
494210.000000
495077.000000
495938.000000
496803.000000
497660.000000
498500.000000
499327.000000
500117.000000
500885.000000
501653.000000
502435.000000
503229.000000
504036.000000
504866.000000
505715.000000
506573.000000
507445.000000
508290.000000
509109.000000
509917.000000
510741.000000
511582.000000
512434.000000
513309.000000
514165.000000
515010.000000
515844.000000
516687.000000
517543.000000
518414.000000
519284.000000
520151.000000
521013.000000
521865.000000
522698.000000
523533.000000
524377.000000
525220.000000
526045.000000
526867.000000
527682.000000
528493.000000
529341.000000
530186.000000
531027.000000
531859.000000
532680.000000
533500.000000
534316.000000
535119.000000
535926.000000
536744.000000
537574.000000
538399.000000
539215.000000
540039.000000
540878.000000
541704.000000
542528.000000
543332.000000
544124.000000
544914.000000
545714.000000
546537.000000
547376.000000
548218.000000
549043.000000
549854.000000
550680.000000
551509.000000
552333.000000
553152.000000
553965.000000
554782.000000
555592.000000
556422.000000
557248.000000
558078.000000
558902.000000
559729.000000
560527.000000
561320.000000
562111.000000
562913.000000
563774.000000
564635.000000
565501.000000
566377.000000
567250.000000
568111.000000
568979.000000
569862.000000
570728.000000
571594.000000
572436.000000
573277.000000
574113.000000
574957.000000
575818.000000
576668.000000
577540.000000
578392.000000
579241.000000
580103.000000
580980.000000
581838.000000
582714.000000
583559.000000
584393.000000
585215.000000
586053.000000
586896.000000
587746.000000
588606.000000
589463.000000
590332.000000
591174.000000
592010.000000
592823.000000
593636.000000
594452.000000
595280.000000
596114.000000
596959.000000
597788.000000
598626.000000
599460.000000
600300.000000
601135.000000
601984.000000
602814.000000
603623.000000
604425.000000
605241.000000
606056.000000
606877.000000
607694.000000
608509.000000
609325.000000
610150.000000
610980.000000
611820.000000
612676.000000
613512.000000
614354.000000
615177.000000
615981.000000
616791.000000
617621.000000
618457.000000
619291.000000
620118.000000
620936.000000
621753.000000
622588.000000
623434.000000
624289.000000
625142.000000
625982.000000
626808.000000
627648.000000
628481.000000
629320.000000
630163.000000
630997.000000
631842.000000
632725.000000
633610.000000
634500.000000
635361.000000
636218.000000
637043.000000
637861.000000
638683.000000
639516.000000
640362.000000
641213.000000
642065.000000
642956.000000
643834.000000
644702.000000
645564.000000
646426.000000
647305.000000
648206.000000
649110.000000
650020.000000
650914.000000
651809.000000
652711.000000
653615.000000
654511.000000
655403.000000
656285.000000
657131.000000
657982.000000
658832.000000
659680.000000
660527.000000
661378.000000
662240.000000
663103.000000
663986.000000
664849.000000
665725.000000
666631.000000
667574.000000
668486.000000
669367.000000
670227.000000
671059.000000
671868.000000
672675.000000
673498.000000
674354.000000
675237.000000
676160.000000
677090.000000
678009.000000
678915.000000
679784.000000
680631.000000
681463.000000
682303.000000
683156.000000
684046.000000
684972.000000
685890.000000
686795.000000
687661.000000
688514.000000
689353.000000
690190.000000
691049.000000
691936.000000
692822.000000
693713.000000
694598.000000
695471.000000
696356.000000
697233.000000
698103.000000
698977.000000
699833.000000
700664.000000
701493.000000
702345.000000
703213.000000
704098.000000
704976.000000
705859.000000
706734.000000
707626.000000
708558.000000
709511.000000
710438.000000
711320.000000
712197.000000
713056.000000
713899.000000
714763.000000
715660.000000
716570.000000
717470.000000
718361.000000
719242.000000
720105.000000
720972.000000
721847.000000
722710.000000
723573.000000
724445.000000
725318.000000
726180.000000
727043.000000
727909.000000
728771.000000
729654.000000
730552.000000
731435.000000
732307.000000
733177.000000
734060.000000
734932.000000
735801.000000
736664.000000
737503.000000
738347.000000
739189.000000
740049.000000
740931.000000
741816.000000
742672.000000
743499.000000
744329.000000
745175.000000
746026.000000
746910.000000
747794.000000
748643.000000
749473.000000
750260.000000
751048.000000
751856.000000
752652.000000
753456.000000
754295.000000
755145.000000
756015.000000
756887.000000
757757.000000
758611.000000
759441.000000
760290.000000
761173.000000
762063.000000
762968.000000
763865.000000
764733.000000
765601.000000
766494.000000
767379.000000
768265.000000
769148.000000
770035.000000
770924.000000
771802.000000
772694.000000
773597.000000
774491.000000
775390.000000
776269.000000
777121.000000
777980.000000
778859.000000
779747.000000
780660.000000
781558.000000
782434.000000
783281.000000
784110.000000
784938.000000
785770.000000
786608.000000
787451.000000
788320.000000
789186.000000
790073.000000
790953.000000
791828.000000
792697.000000
793567.000000
794431.000000
795309.000000
796199.000000
797103.000000
797988.000000
798852.000000
799705.000000
800563.000000
801427.000000
802281.000000
803147.000000
804014.000000
804885.000000
805762.000000
806658.000000
807555.000000
808449.000000
809362.000000
810251.000000
811130.000000
811997.000000
812887.000000
813787.000000
814699.000000
815593.000000
816469.000000
817344.000000
818221.000000
819103.000000
819994.000000
820860.000000
821713.000000
822576.000000
823471.000000
824378.000000
825298.000000
826192.000000
827087.000000
827967.000000
828844.000000
829744.000000
830652.000000
831568.000000
832468.000000
833354.000000
834224.000000
835116.000000
835995.000000
836867.000000
837749.000000
838620.000000
839474.000000
840333.000000
841207.000000
842126.000000
843093.000000
844034.000000
844953.000000
845834.000000
846697.000000
847555.000000
848422.000000
849296.000000
850182.000000
851098.000000
852015.000000
852936.000000
853841.000000
854713.000000
855567.000000
856428.000000
857315.000000
858226.000000
859128.000000
860028.000000
860910.000000
861783.000000
862667.000000
863573.000000
864493.000000
865422.000000
866321.000000
867198.000000
868076.000000
868937.000000
869807.000000
870680.000000
871562.000000
872443.000000
873316.000000
874187.000000
875066.000000
875953.000000
876845.000000
877733.000000
878614.000000
879488.000000
880347.000000
881198.000000
882041.000000
882883.000000
883738.000000
884614.000000
885487.000000
886363.000000
887224.000000
888083.000000
888940.000000
889813.000000
890685.000000
891561.000000
892453.000000
893319.000000
894182.000000
895040.000000
895917.000000
896795.000000
897674.000000
