ECG (ms)
486.000000
1353.000000
2229.000000
3156.000000
4089.000000
4956.000000
5818.000000
6707.000000
7635.000000
8510.000000
9387.000000
10314.000000
11221.000000
12063.000000
12979.000000
13920.000000
14801.000000
15632.000000
16485.000000
17388.000000
18341.000000
19233.000000
20160.000000
21134.000000
22086.000000
22961.000000
23873.000000
24825.000000
25695.000000
26531.000000
27441.000000
28391.000000
29249.000000
30123.000000
31070.000000
31975.000000
32809.000000
33675.000000
34566.000000
35390.000000
36252.000000
37152.000000
38007.000000
38878.000000
39855.000000
40801.000000
41643.000000
42503.000000
43393.000000
44226.000000
45057.000000
45965.000000
46890.000000
47734.000000
48618.000000
49505.000000
50338.000000
51174.000000
52036.000000
52911.000000
53730.000000
54572.000000
55492.000000
56412.000000
57264.000000
58175.000000
59109.000000
59953.000000
60822.000000
61699.000000
62515.000000
63335.000000
64185.000000
65053.000000
65880.000000
66740.000000
67625.000000
68454.000000
69289.000000
70168.000000
71014.000000
71827.000000
72688.000000
73578.000000
74378.000000
75212.000000
76055.000000
76844.000000
77676.000000
78530.000000
79336.000000
80159.000000
81001.000000
81821.000000
82621.000000
83456.000000
84282.000000
85070.000000
85900.000000
86789.000000
87617.000000
88448.000000
89313.000000
90178.000000
90990.000000
91841.000000
92721.000000
93551.000000
94382.000000
95261.000000
96128.000000
96954.000000
97819.000000
98691.000000
99523.000000
100362.000000
101246.000000
102105.000000
102918.000000
103788.000000
104695.000000
105531.000000
106390.000000
107319.000000
108265.000000
109118.000000
109990.000000
110891.000000
111729.000000
112630.000000
113609.000000
114564.000000
115437.000000
116377.000000
117346.000000
118231.000000
119115.000000
120011.000000
120876.000000
121724.000000
122675.000000
123658.000000
124549.000000
125482.000000
126403.000000
127262.000000
128141.000000
129045.000000
129892.000000
130758.000000
131667.000000
132542.000000
133374.000000
134234.000000
135087.000000
135886.000000
136736.000000
137624.000000
138453.000000
139329.000000
140273.000000
141125.000000
142003.000000
142915.000000
143775.000000
144592.000000
145467.000000
146372.000000
147206.000000
148091.000000
149007.000000
149845.000000
150715.000000
151655.000000
152542.000000
153411.000000
154309.000000
155167.000000
155956.000000
156774.000000
157634.000000
158518.000000
159349.000000
160250.000000
161193.000000
162053.000000
162969.000000
163909.000000
164768.000000
165630.000000
166496.000000
167297.000000
168129.000000
169075.000000
169986.000000
170896.000000
171916.000000
172861.000000
173805.000000
174810.000000
175738.000000
176622.000000
177524.000000
178422.000000
179278.000000
180203.000000
181185.000000
182083.000000
183037.000000
184012.000000
184894.000000
185794.000000
186706.000000
187555.000000
188423.000000
189315.000000
190159.000000
190997.000000
191868.000000
192699.000000
193510.000000
194409.000000
195354.000000
196199.000000
197063.000000
197928.000000
198746.000000
199595.000000
200486.000000
201379.000000
202211.000000
203074.000000
203990.000000
204847.000000
205763.000000
206688.000000
207549.000000
208449.000000
209371.000000
210232.000000
211074.000000
211962.000000
212817.000000
213639.000000
214511.000000
215384.000000
216201.000000
217058.000000
217927.000000
218747.000000
219591.000000
220489.000000
221371.000000
222286.000000
223249.000000
224131.000000
225035.000000
225979.000000
226857.000000
227735.000000
228633.000000
229476.000000
230343.000000
231242.000000
232106.000000
232938.000000
233819.000000
234735.000000
235584.000000
236466.000000
237377.000000
238250.000000
239086.000000
239976.000000
240893.000000
241730.000000
242613.000000
243519.000000
244360.000000
245248.000000
246179.000000
247048.000000
247932.000000
248857.000000
249744.000000
250573.000000
251440.000000
252314.000000
253131.000000
253997.000000
254902.000000
255765.000000
256683.000000
257627.000000
258473.000000
259384.000000
260310.000000
261126.000000
261963.000000
262800.000000
263556.000000
264410.000000
265297.000000
266129.000000
266974.000000
267865.000000
268796.000000
269667.000000
270605.000000
271550.000000
272419.000000
273346.000000
274276.000000
275119.000000
275985.000000
276870.000000
277683.000000
278509.000000
279348.000000
280160.000000
280977.000000
281906.000000
282865.000000
283725.000000
284606.000000
285492.000000
286328.000000
287197.000000
288115.000000
289004.000000
289892.000000
290814.000000
291681.000000
292581.000000
293511.000000
294367.000000
295238.000000
296133.000000
296978.000000
297816.000000
298716.000000
299638.000000
300477.000000
301348.000000
302228.000000
303052.000000
303903.000000
304795.000000
305636.000000
306538.000000
307482.000000
308339.000000
309233.000000
310138.000000
310969.000000
311837.000000
312716.000000
313528.000000
314382.000000
315270.000000
316099.000000
316973.000000
317881.000000
318716.000000
319578.000000
320463.000000
321292.000000
322153.000000
323062.000000
323927.000000
324803.000000
325726.000000
326603.000000
327440.000000
328338.000000
329226.000000
330064.000000
330960.000000
331872.000000
332710.000000
333580.000000
334501.000000
335408.000000
336274.000000
337219.000000
338189.000000
339086.000000
340009.000000
340938.000000
341786.000000
342669.000000
343566.000000
344404.000000
345283.000000
346201.000000
347059.000000
347951.000000
348888.000000
349767.000000
350649.000000
351574.000000
352528.000000
353411.000000
354308.000000
355242.000000
356136.000000
357001.000000
357993.000000
358988.000000
359873.000000
360796.000000
361728.000000
362579.000000
363502.000000
364439.000000
365318.000000
366205.000000
367159.000000
368086.000000
368945.000000
369856.000000
370809.000000
371703.000000
372560.000000
373473.000000
374434.000000
375342.000000
376207.000000
377119.000000
378045.000000
378935.000000
379780.000000
380669.000000
381580.000000
382453.000000
383267.000000
384110.000000
384979.000000
385804.000000
386663.000000
387620.000000
388537.000000
389428.000000
390362.000000
391249.000000
392072.000000
392939.000000
393836.000000
394662.000000
395557.000000
396568.000000
397464.000000
398370.000000
399325.000000
400259.000000
401096.000000
401949.000000
402783.000000
403572.000000
404430.000000
405385.000000
406278.000000
407210.000000
408181.000000
409082.000000
410032.000000
410950.000000
411788.000000
412679.000000
413590.000000
414423.000000
415296.000000
416238.000000
417174.000000
418032.000000
418951.000000
419894.000000
420750.000000
421587.000000
422469.000000
423350.000000
424124.000000
425037.000000
425950.000000
426832.000000
427676.000000
428598.000000
429547.000000
430391.000000
431240.000000
432113.000000
432923.000000
433733.000000
434622.000000
435470.000000
436299.000000
437201.000000
438055.000000
438870.000000
439723.000000
440627.000000
441486.000000
442389.000000
443346.000000
444255.000000
445118.000000
446037.000000
446989.000000
447854.000000
448751.000000
449669.000000
450508.000000
451398.000000
452340.000000
453223.000000
454172.000000
455205.000000
456129.000000
457114.000000
458129.000000
459043.000000
459989.000000
460950.000000
461811.000000
462695.000000
463616.000000
464488.000000
465379.000000
466316.000000
467187.000000
468027.000000
468919.000000
469843.000000
470691.000000
471609.000000
472568.000000
473451.000000
474396.000000
475346.000000
476212.000000
477128.000000
478079.000000
478944.000000
479866.000000
480795.000000
481660.000000
482617.000000
483591.000000
484468.000000
485399.000000
486358.000000
487242.000000
488178.000000
489193.000000
490087.000000
491011.000000
491955.000000
492814.000000
493688.000000
494610.000000
495471.000000
496326.000000
497216.000000
498066.000000
498884.000000
499759.000000
500702.000000
501589.000000
502538.000000
503550.000000
504505.000000
505428.000000
506418.000000
507359.000000
508223.000000
509184.000000
510086.000000
510863.000000
511765.000000
512676.000000
513596.000000
514507.000000
515501.000000
516526.000000
517463.000000
518438.000000
519445.000000
520363.000000
521257.000000
522194.000000
523110.000000
523960.000000
524878.000000
525852.000000
526738.000000
527645.000000
528616.000000
529513.000000
530402.000000
531348.000000
532274.000000
533131.000000
534040.000000
534939.000000
535767.000000
536666.000000
537661.000000
538557.000000
539457.000000
540415.000000
541354.000000
542215.000000
543113.000000
544017.000000
544847.000000
545709.000000
546625.000000
547468.000000
548391.000000
549341.000000
550192.000000
551108.000000
552060.000000
552913.000000
553808.000000
554754.000000
555619.000000
556495.000000
557389.000000
558204.000000
559062.000000
559954.000000
560780.000000
561647.000000
562564.000000
563431.000000
564330.000000
565332.000000
566248.000000
567167.000000
568139.000000
569058.000000
569916.000000
570829.000000
571783.000000
572653.000000
573563.000000
574505.000000
575392.000000
576302.000000
577257.000000
578190.000000
579107.000000
580096.000000
581063.000000
581961.000000
582935.000000
583893.000000
584692.000000
585678.000000
586609.000000
587388.000000
588300.000000
589208.000000
590059.000000
590959.000000
591967.000000
592890.000000
593831.000000
594858.000000
595780.000000
596727.000000
597701.000000
598577.000000
599474.000000
600393.000000
601258.000000
602131.000000
603089.000000
604058.000000
604938.000000
605879.000000
606816.000000
607682.000000
608564.000000
609516.000000
610406.000000
611159.000000
611937.000000
612833.000000
614058.000000
615145.000000
616163.000000
617124.000000
618088.000000
619006.000000
619834.000000
620709.000000
621704.000000
622741.000000
623670.000000
624523.000000
625415.000000
626360.000000
627346.000000
628268.000000
629194.000000
630220.000000
631204.000000
632105.000000
633042.000000
633997.000000
634848.000000
635695.000000
636618.000000
637557.000000
638429.000000
639316.000000
640214.000000
641027.000000
641879.000000
642845.000000
643723.000000
644638.000000
645550.000000
646367.000000
647218.000000
648169.000000
649123.000000
649966.000000
650815.000000
651706.000000
652572.000000
653673.000000
654644.000000
655569.000000
656549.000000
657556.000000
658496.000000
659463.000000
660420.000000
661315.000000
662230.000000
663040.000000
663792.000000
664619.000000
665744.000000
666641.000000
667617.000000
668562.000000
669494.000000
670463.000000
671446.000000
672369.000000
673328.000000
674279.000000
675199.000000
676164.000000
677138.000000
678077.000000
679046.000000
680011.000000
680941.000000
681908.000000
682872.000000
683741.000000
684458.000000
685236.000000
686212.000000
687088.000000
688012.000000
689061.000000
689967.000000
690895.000000
691834.000000
692652.000000
693468.000000
694404.000000
695270.000000
696228.000000
697255.000000
698135.000000
699075.000000
700018.000000
700847.000000
701735.000000
702661.000000
703479.000000
704338.000000
705202.000000
705997.000000
706870.000000
707824.000000
708685.000000
709600.000000
710532.000000
711352.000000
712187.000000
713068.000000
713871.000000
714739.000000
715786.000000
716689.000000
717599.000000
718524.000000
719378.000000
720314.000000
721311.000000
722227.000000
723218.000000
724148.000000
725068.000000
726029.000000
726969.000000
727868.000000
728799.000000
729709.000000
730581.000000
731433.000000
732337.000000
733094.000000
734041.000000
734981.000000
735837.000000
736759.000000
737708.000000
738583.000000
739482.000000
740389.000000
741178.000000
742096.000000
742988.000000
743820.000000
744701.000000
745667.000000
746537.000000
747418.000000
748333.000000
749205.000000
750056.000000
750949.000000
751808.000000
752628.000000
753489.000000
754417.000000
755264.000000
756144.000000
757064.000000
757909.000000
758803.000000
759740.000000
760592.000000
761498.000000
762438.000000
763226.000000
764182.000000
765128.000000
765982.000000
766874.000000
767827.000000
768730.000000
769658.000000
770621.000000
771519.000000
772413.000000
773359.000000
774271.000000
775051.000000
776006.000000
776887.000000
777658.000000
778657.000000
779572.000000
780426.000000
781351.000000
782288.000000
783139.000000
784043.000000
784941.000000
785772.000000
786661.000000
787545.000000
788306.000000
789240.000000
790155.000000
791002.000000
791920.000000
792906.000000
793811.000000
794767.000000
795756.000000
796671.000000
797640.000000
798643.000000
799483.000000
800414.000000
801331.000000
802235.000000
803100.000000
804089.000000
805073.000000
805976.000000
806991.000000
807942.000000
808882.000000
809839.000000
810758.000000
811612.000000
812620.000000
813559.000000
814356.000000
815335.000000
816286.000000
817188.000000
818176.000000
819211.000000
820208.000000
821243.000000
822298.000000
823248.000000
824194.000000
825215.000000
826207.000000
827080.000000
828019.000000
829036.000000
829988.000000
830933.000000
831980.000000
833002.000000
833930.000000
834875.000000
835819.000000
836729.000000
837625.000000
838578.000000
839535.000000
840484.000000
841483.000000
842480.000000
843392.000000
844345.000000
845290.000000
846184.000000
847139.000000
848111.000000
849026.000000
850004.000000
850993.000000
851907.000000
852853.000000
853805.000000
854695.000000
855619.000000
856547.000000
857435.000000
858380.000000
859353.000000
860274.000000
861251.000000
862236.000000
863158.000000
864124.000000
865077.000000
865993.000000
866948.000000
867908.000000
868815.000000
869763.000000
870709.000000
871603.000000
872541.000000
873494.000000
874390.000000
875342.000000
876305.000000
877214.000000
878159.000000
879096.000000
879996.000000
880929.000000
881884.000000
882798.000000
883738.000000
884694.000000
885609.000000
886546.000000
887495.000000
888403.000000
889257.000000
889978.000000
890698.000000
891898.000000
892955.000000
893978.000000
895008.000000
896040.000000
896981.000000
897957.000000
898940.000000
899926.000000
900801.000000
901719.000000
902709.000000
903665.000000
904577.000000
905486.000000
906547.000000
907542.000000
908568.000000
909596.000000
910615.000000
911639.000000
912624.000000
913590.000000
914578.000000
915557.000000
916521.000000
917492.000000
918453.000000
919385.000000
920342.000000
921304.000000
922229.000000
923219.000000
924251.000000
925218.000000
926215.000000
927212.000000
928168.000000
929284.000000
930506.000000
931546.000000
932662.000000
933702.000000
934633.000000
935687.000000
936654.000000
937548.000000
938496.000000
939398.000000
940306.000000
941290.000000
942211.000000
943111.000000
944090.000000
945014.000000
945873.000000
946872.000000
947787.000000
948682.000000
949678.000000
950687.000000
951617.000000
952617.000000
953565.000000
954486.000000
955508.000000
956556.000000
957463.000000
958436.000000
959471.000000
960376.000000
961323.000000
962354.000000
963283.000000
964232.000000
965198.000000
966132.000000
967063.000000
968042.000000
969008.000000
969931.000000
970897.000000
971866.000000
972780.000000
973736.000000
974712.000000
975629.000000
976600.000000
977580.000000
978512.000000
979479.000000
980472.000000
981407.000000
982363.000000
983349.000000
984292.000000
985223.000000
986184.000000
987143.000000
988055.000000
989033.000000
990026.000000
990964.000000
991933.000000
992902.000000
993837.000000
994753.000000
995693.000000
996651.000000
997551.000000
998405.000000
999240.000000
1000363.000000
1001337.000000
1002252.000000
1003223.000000
1004193.000000
1005107.000000
1006059.000000
1007012.000000
1007930.000000
1008879.000000
1009870.000000
1010832.000000
1011763.000000
1012752.000000
1013734.000000
1014673.000000
1015685.000000
1016694.000000
1017632.000000
1018599.000000
1019575.000000
1020504.000000
1021444.000000
1022397.000000
1023327.000000
1024239.000000
1025184.000000
1026125.000000
1027026.000000
1027965.000000
1028905.000000
1029787.000000
1030706.000000
1031630.000000
1032509.000000
1033439.000000
1034385.000000
1035290.000000
1036253.000000
1037213.000000
1038124.000000
1039078.000000
1040044.000000
1040954.000000
1041912.000000
1042863.000000
1043762.000000
1044698.000000
1045624.000000
1046510.000000
1047446.000000
1048362.000000
1049259.000000
1050206.000000
1051153.000000
1052068.000000
1053034.000000
1053982.000000
1054879.000000
1055808.000000
1056723.000000
1057606.000000
1058540.000000
1059455.000000
1060326.000000
1061194.000000
1062064.000000
1062864.000000
1063764.000000
1064677.000000
1065502.000000
1066401.000000
1067354.000000
1068166.000000
1069021.000000
1069886.000000
1070686.000000
1071584.000000
1072600.000000
1073480.000000
1074464.000000
1075431.000000
1076309.000000
1077278.000000
1078253.000000
1079116.000000
1080046.000000
1080971.000000
1081817.000000
1082747.000000
1083721.000000
1084594.000000
1085589.000000
1086572.000000
1087446.000000
1088435.000000
1089383.000000
1090216.000000
1091123.000000
1092059.000000
1092892.000000
1093832.000000
1094754.000000
1095596.000000
1096533.000000
1097468.000000
1098312.000000
1099255.000000
1100191.000000
1101010.000000
1101764.000000
1102520.000000
1103689.000000
1104766.000000
1105745.000000
1106724.000000
1107688.000000
1108656.000000
1109643.000000
1110604.000000
1111623.000000
1112559.000000
1113441.000000
1114184.000000
1114986.000000
1115824.000000
1116628.000000
1117576.000000
1118551.000000
1119454.000000
1120288.000000
1121119.000000
1121982.000000
1122954.000000
1123903.000000
1125029.000000
1126118.000000
1127134.000000
1128169.000000
1129153.000000
1129996.000000
1130846.000000
1131745.000000
1132601.000000
1133676.000000
1134752.000000
1135704.000000
1136715.000000
1137631.000000
1138530.000000
1139462.000000
1140309.000000
1141228.000000
1142171.000000
1143020.000000
1143916.000000
1144877.000000
1145750.000000
1146687.000000
1147655.000000
1148525.000000
1149415.000000
1150348.000000
1151198.000000
1152088.000000
1153051.000000
1153928.000000
1154845.000000
1155897.000000
1156850.000000
1157809.000000
1158772.000000
1159700.000000
1160678.000000
1161673.000000
1162619.000000
1163574.000000
1164550.000000
1165477.000000
1166419.000000
1167372.000000
1168274.000000
1169228.000000
1170214.000000
1171160.000000
1172058.000000
1172945.000000
1173932.000000
1174889.000000
1175796.000000
1176752.000000
1177734.000000
1178688.000000
1179659.000000
1180639.000000
1181602.000000
1182520.000000
1183474.000000
1184437.000000
1185395.000000
1186391.000000
1187390.000000
1188324.000000
1189292.000000
1190245.000000
1191162.000000
1192121.000000
1193117.000000
1194168.000000
