ECG (ms)
341.000000
1387.000000
2418.000000
3474.000000
4517.000000
5505.000000
6489.000000
7485.000000
8550.000000
9594.000000
10637.000000
11647.000000
12610.000000
13559.000000
14530.000000
15514.000000
16489.000000
17448.000000
18396.000000
19360.000000
20332.000000
21305.000000
22280.000000
23236.000000
24147.000000
25072.000000
25964.000000
26822.000000
27610.000000
28401.000000
29288.000000
30326.000000
31360.000000
32407.000000
33407.000000
34402.000000
35403.000000
36411.000000
37396.000000
38354.000000
39324.000000
40334.000000
41375.000000
42426.000000
43434.000000
44516.000000
45589.000000
46679.000000
47761.000000
48862.000000
49799.000000
50681.000000
51701.000000
52535.000000
53326.000000
54198.000000
55346.000000
56360.000000
57341.000000
58368.000000
59471.000000
60532.000000
61410.000000
62227.000000
63060.000000
64165.000000
65262.000000
66271.000000
67203.000000
68086.000000
69024.000000
70020.000000
71063.000000
72049.000000
73106.000000
74155.000000
75173.000000
76244.000000
77276.000000
78238.000000
79172.000000
80195.000000
81312.000000
82407.000000
83423.000000
84390.000000
85319.000000
86325.000000
87398.000000
88467.000000
89509.000000
90561.000000
91590.000000
92588.000000
93656.000000
94707.000000
95734.000000
96747.000000
97778.000000
98806.000000
99787.000000
100737.000000
101735.000000
102759.000000
103763.000000
104738.000000
105686.000000
106634.000000
107635.000000
108651.000000
109660.000000
110637.000000
111499.000000
112317.000000
113142.000000
114011.000000
115033.000000
116025.000000
117031.000000
117997.000000
118956.000000
119936.000000
120923.000000
121885.000000
122860.000000
123861.000000
124852.000000
125852.000000
126796.000000
127730.000000
128703.000000
129686.000000
130669.000000
131611.000000
132537.000000
133451.000000
134381.000000
135355.000000
136353.000000
137330.000000
138291.000000
139270.000000
140273.000000
141255.000000
142220.000000
143193.000000
144152.000000
145068.000000
145971.000000
146923.000000
147922.000000
148912.000000
149830.000000
150743.000000
151676.000000
152608.000000
153556.000000
154471.000000
155436.000000
156426.000000
157430.000000
158397.000000
159342.000000
160297.000000
161200.000000
162107.000000
163076.000000
164088.000000
165062.000000
166040.000000
167050.000000
168057.000000
169012.000000
169974.000000
170936.000000
171869.000000
172771.000000
173701.000000
174652.000000
175572.000000
176496.000000
177409.000000
178304.000000
179168.000000
180064.000000
181012.000000
182006.000000
182961.000000
183986.000000
185005.000000
185957.000000
186887.000000
187848.000000
188836.000000
189777.000000
190747.000000
191735.000000
192654.000000
193537.000000
194455.000000
195384.000000
196337.000000
197246.000000
198144.000000
199069.000000
200022.000000
200972.000000
201863.000000
202797.000000
203731.000000
204642.000000
205525.000000
206448.000000
207371.000000
208286.000000
209179.000000
210117.000000
211064.000000
211917.000000
212786.000000
213659.000000
214668.000000
215651.000000
216593.000000
217410.000000
218197.000000
219015.000000
219812.000000
220609.000000
221384.000000
222171.000000
223053.000000
224156.000000
225146.000000
226059.000000
226947.000000
227853.000000
228735.000000
229606.000000
230481.000000
231389.000000
232364.000000
233411.000000
234428.000000
235407.000000
236390.000000
237400.000000
238403.000000
239368.000000
240355.000000
241352.000000
242327.000000
243269.000000
244215.000000
245175.000000
246161.000000
247140.000000
248075.000000
249001.000000
249950.000000
250922.000000
251904.000000
252861.000000
253832.000000
254841.000000
255856.000000
256867.000000
257840.000000
258804.000000
259795.000000
260793.000000
261796.000000
262795.000000
263818.000000
264848.000000
265857.000000
266868.000000
267896.000000
268916.000000
269918.000000
270967.000000
272008.000000
272999.000000
273922.000000
274861.000000
275905.000000
277001.000000
278046.000000
279050.000000
280097.000000
281146.000000
282140.000000
283157.000000
284196.000000
285219.000000
286225.000000
287239.000000
288261.000000
289258.000000
290283.000000
291330.000000
292370.000000
293372.000000
294376.000000
295371.000000
296329.000000
297304.000000
298289.000000
299302.000000
300277.000000
301234.000000
302237.000000
303232.000000
304219.000000
305154.000000
306122.000000
307092.000000
308043.000000
308983.000000
309946.000000
310920.000000
311867.000000
312820.000000
313785.000000
314765.000000
315739.000000
316739.000000
317753.000000
318736.000000
319760.000000
320791.000000
321740.000000
322640.000000
323528.000000
324443.000000
325368.000000
326253.000000
327187.000000
328149.000000
329133.000000
330121.000000
331136.000000
332153.000000
333131.000000
334111.000000
335091.000000
336074.000000
337056.000000
338048.000000
339017.000000
339964.000000
340950.000000
341943.000000
342916.000000
343856.000000
344856.000000
345848.000000
346836.000000
347842.000000
348862.000000
349846.000000
350859.000000
351887.000000
352876.000000
353892.000000
354918.000000
355918.000000
356901.000000
357880.000000
358856.000000
359821.000000
360827.000000
361849.000000
362879.000000
363923.000000
364963.000000
365955.000000
366921.000000
367914.000000
368894.000000
369853.000000
370832.000000
371839.000000
372850.000000
373814.000000
374785.000000
375758.000000
376685.000000
377608.000000
378571.000000
379528.000000
380462.000000
381422.000000
382412.000000
383371.000000
384298.000000
385255.000000
386225.000000
387173.000000
388098.000000
389046.000000
390042.000000
390966.000000
391912.000000
392880.000000
393842.000000
394786.000000
395761.000000
396741.000000
397684.000000
398645.000000
399613.000000
400563.000000
401492.000000
402457.000000
403435.000000
404406.000000
405421.000000
406437.000000
407407.000000
408400.000000
409389.000000
410336.000000
411267.000000
412192.000000
413084.000000
413939.000000
414730.000000
415564.000000
416653.000000
417638.000000
418596.000000
419604.000000
420644.000000
421664.000000
422665.000000
423694.000000
424735.000000
425759.000000
426791.000000
427851.000000
428902.000000
429929.000000
430956.000000
431996.000000
433011.000000
434067.000000
435128.000000
436115.000000
437059.000000
438013.000000
438991.000000
440005.000000
441002.000000
441996.000000
443031.000000
444068.000000
445058.000000
446032.000000
447019.000000
447994.000000
448976.000000
449906.000000
450855.000000
451819.000000
452793.000000
453779.000000
454785.000000
455799.000000
456768.000000
457740.000000
458735.000000
459723.000000
460691.000000
461707.000000
462725.000000
463699.000000
464665.000000
465649.000000
466584.000000
467515.000000
468504.000000
469486.000000
470460.000000
471458.000000
472459.000000
473436.000000
474419.000000
475424.000000
476404.000000
477359.000000
478332.000000
479335.000000
480301.000000
481283.000000
482262.000000
483237.000000
484173.000000
485101.000000
486109.000000
487095.000000
488113.000000
489095.000000
490077.000000
491090.000000
492099.000000
493064.000000
494033.000000
495016.000000
496052.000000
497053.000000
498043.000000
499036.000000
500047.000000
501077.000000
502149.000000
503222.000000
504270.000000
505321.000000
506343.000000
507317.000000
508328.000000
509380.000000
510468.000000
511549.000000
512646.000000
513708.000000
514754.000000
515784.000000
516748.000000
517684.000000
518682.000000
519735.000000
520752.000000
521770.000000
522807.000000
523828.000000
524784.000000
525750.000000
526708.000000
527612.000000
528467.000000
529357.000000
530338.000000
531353.000000
532356.000000
533383.000000
534427.000000
535428.000000
536423.000000
537410.000000
538386.000000
539349.000000
540353.000000
541357.000000
542343.000000
543349.000000
544370.000000
545351.000000
546315.000000
547316.000000
548295.000000
549250.000000
550218.000000
551217.000000
552197.000000
553156.000000
554143.000000
555140.000000
556114.000000
557095.000000
558091.000000
559056.000000
560001.000000
561000.000000
562018.000000
563026.000000
564014.000000
565038.000000
566057.000000
567034.000000
568043.000000
569089.000000
570101.000000
571114.000000
572159.000000
573190.000000
574185.000000
575093.000000
575968.000000
576920.000000
577953.000000
578995.000000
579994.000000
580985.000000
582050.000000
583130.000000
584171.000000
585228.000000
586279.000000
587307.000000
588327.000000
589386.000000
590458.000000
591505.000000
592541.000000
593606.000000
594699.000000
595788.000000
596820.000000
597808.000000
598839.000000
599919.000000
601003.000000
602041.000000
603072.000000
604151.000000
605225.000000
606229.000000
607184.000000
608110.000000
609126.000000
610169.000000
611232.000000
612262.000000
613302.000000
614317.000000
615290.000000
616222.000000
617146.000000
617956.000000
618758.000000
619714.000000
620647.000000
621662.000000
622753.000000
623826.000000
624838.000000
625890.000000
626905.000000
627863.000000
628791.000000
629727.000000
630713.000000
631692.000000
632694.000000
633735.000000
634770.000000
635764.000000
636798.000000
637819.000000
638801.000000
639811.000000
640833.000000
641796.000000
642733.000000
643697.000000
644670.000000
645629.000000
646575.000000
647598.000000
648623.000000
649599.000000
650572.000000
651566.000000
652522.000000
653455.000000
654412.000000
655424.000000
656399.000000
657357.000000
658375.000000
659402.000000
660403.000000
661465.000000
662510.000000
663483.000000
664406.000000
665389.000000
666495.000000
667582.000000
668631.000000
669683.000000
670728.000000
671738.000000
672690.000000
673583.000000
674499.000000
675536.000000
676580.000000
677639.000000
678674.000000
679699.000000
680735.000000
681797.000000
682850.000000
683864.000000
684858.000000
685847.000000
686855.000000
687857.000000
688830.000000
689768.000000
690699.000000
691659.000000
692649.000000
693666.000000
694692.000000
695717.000000
696738.000000
697755.000000
698769.000000
699789.000000
700747.000000
701701.000000
702696.000000
703737.000000
704790.000000
705821.000000
706874.000000
707905.000000
708876.000000
709779.000000
710720.000000
711753.000000
712807.000000
713862.000000
714954.000000
716023.000000
717068.000000
718137.000000
719240.000000
720316.000000
721318.000000
722220.000000
723061.000000
723903.000000
725140.000000
726255.000000
727353.000000
728447.000000
729496.000000
730532.000000
731626.000000
732730.000000
733806.000000
734818.000000
735801.000000
736819.000000
737886.000000
738999.000000
740076.000000
741120.000000
742158.000000
743204.000000
744227.000000
745246.000000
746247.000000
747176.000000
748114.000000
749130.000000
750165.000000
751177.000000
752165.000000
753163.000000
754172.000000
755171.000000
756147.000000
757094.000000
758032.000000
759004.000000
759984.000000
760976.000000
761974.000000
762992.000000
764016.000000
765005.000000
766005.000000
767046.000000
768059.000000
769049.000000
770063.000000
771094.000000
772153.000000
773153.000000
774048.000000
774898.000000
775872.000000
776883.000000
777924.000000
778927.000000
779976.000000
781074.000000
782127.000000
783190.000000
784296.000000
785384.000000
786360.000000
787318.000000
788323.000000
789318.000000
790320.000000
791367.000000
792402.000000
793424.000000
794486.000000
795505.000000
796515.000000
797495.000000
798485.000000
799502.000000
800508.000000
801506.000000
802539.000000
803538.000000
804515.000000
805503.000000
806466.000000
807384.000000
808219.000000
809046.000000
810085.000000
811064.000000
812047.000000
813024.000000
814003.000000
814949.000000
815849.000000
816740.000000
817652.000000
818625.000000
819549.000000
820465.000000
821395.000000
822334.000000
823232.000000
824113.000000
825048.000000
826008.000000
826966.000000
827918.000000
828895.000000
829891.000000
830862.000000
831818.000000
832796.000000
833812.000000
834798.000000
835820.000000
836855.000000
837888.000000
838880.000000
839897.000000
840925.000000
841957.000000
842944.000000
843958.000000
845013.000000
846062.000000
847079.000000
848105.000000
849140.000000
850154.000000
851184.000000
852250.000000
853284.000000
854320.000000
855330.000000
856316.000000
857321.000000
858374.000000
859404.000000
860328.000000
861135.000000
861924.000000
862830.000000
863983.000000
865058.000000
866072.000000
867027.000000
868047.000000
869099.000000
870137.000000
871111.000000
872086.000000
873066.000000
874061.000000
875032.000000
876039.000000
877098.000000
878126.000000
879139.000000
880171.000000
881187.000000
882183.000000
883174.000000
884138.000000
885098.000000
886111.000000
887172.000000
888183.000000
889188.000000
890180.000000
891180.000000
892142.000000
893089.000000
894060.000000
895072.000000
896050.000000
896972.000000
897857.000000
898840.000000
899843.000000
