ECG (ms)
374.000000
1210.000000
2051.000000
2891.000000
3762.000000
4629.000000
5465.000000
6294.000000
7101.000000
7865.000000
8628.000000
9394.000000
10159.000000
10966.000000
11814.000000
12667.000000
13512.000000
14357.000000
15209.000000
16038.000000
16857.000000
17695.000000
18551.000000
19385.000000
20227.000000
21064.000000
21926.000000
22760.000000
23623.000000
24489.000000
25343.000000
26162.000000
26989.000000
27823.000000
28640.000000
29440.000000
30239.000000
31064.000000
31881.000000
32705.000000
33533.000000
34398.000000
35295.000000
36156.000000
37017.000000
37912.000000
38834.000000
39665.000000
40504.000000
41332.000000
42159.000000
42965.000000
43815.000000
44700.000000
45574.000000
46413.000000
47272.000000
48148.000000
49035.000000
49902.000000
50803.000000
51721.000000
52597.000000
53470.000000
54393.000000
55295.000000
56143.000000
56995.000000
57829.000000
58657.000000
59473.000000
60284.000000
61148.000000
62040.000000
62900.000000
63727.000000
64600.000000
65477.000000
66319.000000
67135.000000
67975.000000
68834.000000
69662.000000
70479.000000
71310.000000
72157.000000
73014.000000
73838.000000
74661.000000
75473.000000
76280.000000
77077.000000
77889.000000
78745.000000
79594.000000
80397.000000
81209.000000
82044.000000
82873.000000
83688.000000
84494.000000
85325.000000
86154.000000
86962.000000
87762.000000
88580.000000
89407.000000
90229.000000
91041.000000
91881.000000
92770.000000
93621.000000
94436.000000
95267.000000
96139.000000
96991.000000
97827.000000
98684.000000
99549.000000
100399.000000
101211.000000
102035.000000
102871.000000
103688.000000
104493.000000
105304.000000
106135.000000
106976.000000
107795.000000
108605.000000
109431.000000
110249.000000
111050.000000
111838.000000
112642.000000
113448.000000
114238.000000
115037.000000
115884.000000
116736.000000
117549.000000
118360.000000
119127.000000
119860.000000
120592.000000
121334.000000
122085.000000
122875.000000
123721.000000
124556.000000
125356.000000
126156.000000
126953.000000
127736.000000
128512.000000
129314.000000
130136.000000
130967.000000
131774.000000
132635.000000
133508.000000
134380.000000
135198.000000
136049.000000
136903.000000
137744.000000
138574.000000
139431.000000
140302.000000
141158.000000
141981.000000
142809.000000
143652.000000
144500.000000
145329.000000
146168.000000
147023.000000
147862.000000
148668.000000
149484.000000
150329.000000
151156.000000
151959.000000
152772.000000
153589.000000
154388.000000
155181.000000
156019.000000
156889.000000
157737.000000
158554.000000
159408.000000
160269.000000
161096.000000
161926.000000
162747.000000
163583.000000
164395.000000
165204.000000
166030.000000
166856.000000
167670.000000
168471.000000
169291.000000
170119.000000
170917.000000
171714.000000
172531.000000
173357.000000
174159.000000
174957.000000
175779.000000
176606.000000
177416.000000
178220.000000
179021.000000
179848.000000
180668.000000
181456.000000
182276.000000
183109.000000
183901.000000
184681.000000
185475.000000
186275.000000
187073.000000
187859.000000
188701.000000
189569.000000
190409.000000
191212.000000
192019.000000
192834.000000
193647.000000
194439.000000
195235.000000
196052.000000
196881.000000
197681.000000
198475.000000
199285.000000
200093.000000
200867.000000
201629.000000
202358.000000
203087.000000
203862.000000
204636.000000
205414.000000
206236.000000
207074.000000
207901.000000
208704.000000
209512.000000
210312.000000
211093.000000
211870.000000
212655.000000
213465.000000
214259.000000
215041.000000
215826.000000
216622.000000
217425.000000
218214.000000
219009.000000
219812.000000
220608.000000
221398.000000
222202.000000
223068.000000
223938.000000
224752.000000
225590.000000
226435.000000
227282.000000
228088.000000
228904.000000
229738.000000
230617.000000
231439.000000
232269.000000
233101.000000
233939.000000
234770.000000
235586.000000
236414.000000
237247.000000
238064.000000
238860.000000
239671.000000
240511.000000
241351.000000
242144.000000
242946.000000
243755.000000
244566.000000
245356.000000
246161.000000
246990.000000
247848.000000
248671.000000
249475.000000
250295.000000
251131.000000
251921.000000
252711.000000
253503.000000
254300.000000
255081.000000
255860.000000
256649.000000
257440.000000
258210.000000
258999.000000
259796.000000
260621.000000
261447.000000
262265.000000
263102.000000
263937.000000
264729.000000
265537.000000
266358.000000
267177.000000
267971.000000
268769.000000
269590.000000
270395.000000
271194.000000
271990.000000
272795.000000
273629.000000
274439.000000
275268.000000
276116.000000
276944.000000
277735.000000
278538.000000
279355.000000
280175.000000
280979.000000
281791.000000
282634.000000
283481.000000
284297.000000
285118.000000
285956.000000
286798.000000
287599.000000
288407.000000
289239.000000
290098.000000
290909.000000
291734.000000
292558.000000
293381.000000
294183.000000
294978.000000
295804.000000
296647.000000
297487.000000
298325.000000
299216.000000
300113.000000
300968.000000
301803.000000
302638.000000
303465.000000
304273.000000
305072.000000
305911.000000
306757.000000
307587.000000
308419.000000
309264.000000
310120.000000
310945.000000
311777.000000
312624.000000
313452.000000
314268.000000
315082.000000
315944.000000
316840.000000
317712.000000
318589.000000
319467.000000
320324.000000
321163.000000
322033.000000
322921.000000
323793.000000
324630.000000
325478.000000
326299.000000
327100.000000
327904.000000
328745.000000
329588.000000
330405.000000
331202.000000
332046.000000
332979.000000
333870.000000
334750.000000
335608.000000
336447.000000
337249.000000
338090.000000
338916.000000
339717.000000
340505.000000
341316.000000
342150.000000
342986.000000
343798.000000
344642.000000
345494.000000
346340.000000
347148.000000
347947.000000
348702.000000
349458.000000
350216.000000
350981.000000
351751.000000
352548.000000
353360.000000
354167.000000
354970.000000
355773.000000
356592.000000
357384.000000
358177.000000
358975.000000
359784.000000
360583.000000
361395.000000
362228.000000
363071.000000
363913.000000
364735.000000
365579.000000
366426.000000
367255.000000
368068.000000
368879.000000
369704.000000
370501.000000
371320.000000
372164.000000
373047.000000
373893.000000
374737.000000
375573.000000
376387.000000
377174.000000
377979.000000
378797.000000
379612.000000
380436.000000
381303.000000
382176.000000
383020.000000
383846.000000
384671.000000
385488.000000
386298.000000
387087.000000
387895.000000
388730.000000
389560.000000
390363.000000
391170.000000
391977.000000
392827.000000
393647.000000
394463.000000
395321.000000
396185.000000
397027.000000
397838.000000
398678.000000
399502.000000
400299.000000
401100.000000
401923.000000
402775.000000
403612.000000
404465.000000
405325.000000
406158.000000
406981.000000
407856.000000
408749.000000
409587.000000
410413.000000
411249.000000
412082.000000
412898.000000
413717.000000
414571.000000
415410.000000
416231.000000
417075.000000
417922.000000
418763.000000
419552.000000
420354.000000
421156.000000
421981.000000
422784.000000
423598.000000
424420.000000
425253.000000
426076.000000
426909.000000
427742.000000
428560.000000
429351.000000
430161.000000
430999.000000
431847.000000
432653.000000
433453.000000
434265.000000
435092.000000
435914.000000
436732.000000
437566.000000
438410.000000
439242.000000
440046.000000
440867.000000
441717.000000
442554.000000
443364.000000
444183.000000
445026.000000
445877.000000
446696.000000
447502.000000
448323.000000
449155.000000
449958.000000
450754.000000
451567.000000
452401.000000
453232.000000
454036.000000
454830.000000
455585.000000
456336.000000
457099.000000
457862.000000
458618.000000
459397.000000
460199.000000
461003.000000
461774.000000
462535.000000
463323.000000
464105.000000
464881.000000
465644.000000
466425.000000
467233.000000
468039.000000
468831.000000
469644.000000
470484.000000
471324.000000
472119.000000
472920.000000
473720.000000
474533.000000
475340.000000
476136.000000
476923.000000
477732.000000
478542.000000
479338.000000
480132.000000
480941.000000
481754.000000
482571.000000
483392.000000
484242.000000
485082.000000
485915.000000
486724.000000
487546.000000
488384.000000
489191.000000
489985.000000
490815.000000
491664.000000
492541.000000
493391.000000
494265.000000
495149.000000
496041.000000
496877.000000
497728.000000
498589.000000
499440.000000
500282.000000
501170.000000
502059.000000
502919.000000
503763.000000
504619.000000
505499.000000
506348.000000
507166.000000
508029.000000
508914.000000
509774.000000
510609.000000
511473.000000
512381.000000
513260.000000
514090.000000
514959.000000
515839.000000
516689.000000
517525.000000
518364.000000
519221.000000
520080.000000
520914.000000
521734.000000
522584.000000
523418.000000
524236.000000
525037.000000
525874.000000
526734.000000
527549.000000
528370.000000
529231.000000
530129.000000
530972.000000
531780.000000
532604.000000
533418.000000
534234.000000
535025.000000
535823.000000
536659.000000
537514.000000
538366.000000
539236.000000
540169.000000
541129.000000
541999.000000
542828.000000
543672.000000
544476.000000
545243.000000
546002.000000
546768.000000
547559.000000
548365.000000
549189.000000
550001.000000
550804.000000
551624.000000
552446.000000
553243.000000
554031.000000
554833.000000
555661.000000
556475.000000
557274.000000
558091.000000
558934.000000
559800.000000
560649.000000
561529.000000
562396.000000
563269.000000
564127.000000
564964.000000
565823.000000
566662.000000
567475.000000
568265.000000
569105.000000
569937.000000
570752.000000
571570.000000
572388.000000
573209.000000
574025.000000
574843.000000
575668.000000
576544.000000
577385.000000
578200.000000
579024.000000
579867.000000
580690.000000
581497.000000
582310.000000
583134.000000
583963.000000
584762.000000
585584.000000
586426.000000
587267.000000
588097.000000
588922.000000
589781.000000
590700.000000
591603.000000
592491.000000
593402.000000
594320.000000
595212.000000
596078.000000
596987.000000
597909.000000
598824.000000
599725.000000
600672.000000
601616.000000
602539.000000
603404.000000
604290.000000
605200.000000
606077.000000
606924.000000
607794.000000
608681.000000
609563.000000
610410.000000
611286.000000
612129.000000
612936.000000
613743.000000
614549.000000
615351.000000
616206.000000
617078.000000
617916.000000
618735.000000
619601.000000
620464.000000
621290.000000
622108.000000
622912.000000
623691.000000
624441.000000
625184.000000
625940.000000
626698.000000
627461.000000
628250.000000
629052.000000
629877.000000
630712.000000
631585.000000
632484.000000
633362.000000
634217.000000
635053.000000
635900.000000
636728.000000
637555.000000
638375.000000
639210.000000
640037.000000
640869.000000
641719.000000
642593.000000
643417.000000
644226.000000
645065.000000
645903.000000
646728.000000
647547.000000
648372.000000
649192.000000
650042.000000
650860.000000
651689.000000
652526.000000
653379.000000
654219.000000
655072.000000
655929.000000
656803.000000
657644.000000
658472.000000
659305.000000
660148.000000
660988.000000
661830.000000
662663.000000
663492.000000
664317.000000
665123.000000
665933.000000
666781.000000
667635.000000
668458.000000
669267.000000
670093.000000
670912.000000
671734.000000
672548.000000
673374.000000
674210.000000
675057.000000
675873.000000
676684.000000
677508.000000
678370.000000
679191.000000
679992.000000
680791.000000
681598.000000
682425.000000
683255.000000
684092.000000
684970.000000
685910.000000
686821.000000
687711.000000
688631.000000
689493.000000
690322.000000
691140.000000
691976.000000
692853.000000
693697.000000
694537.000000
695435.000000
696329.000000
697205.000000
698047.000000
698913.000000
699767.000000
700626.000000
701454.000000
702282.000000
703142.000000
704013.000000
704902.000000
705752.000000
706602.000000
707446.000000
708266.000000
709093.000000
709932.000000
710810.000000
711681.000000
712530.000000
713440.000000
714352.000000
715222.000000
716048.000000
716907.000000
717754.000000
718617.000000
719459.000000
720321.000000
721211.000000
722045.000000
722910.000000
723796.000000
724666.000000
725487.000000
726323.000000
727164.000000
728006.000000
728826.000000
729652.000000
730497.000000
731366.000000
732193.000000
733046.000000
733899.000000
734727.000000
735539.000000
736373.000000
737217.000000
738078.000000
738909.000000
739742.000000
740587.000000
741456.000000
742324.000000
743195.000000
744104.000000
744987.000000
745859.000000
746766.000000
747646.000000
748506.000000
749349.000000
750231.000000
751072.000000
751910.000000
752733.000000
753587.000000
754463.000000
755311.000000
756150.000000
756984.000000
757831.000000
758668.000000
759495.000000
760341.000000
761183.000000
762022.000000
762838.000000
763673.000000
764506.000000
765335.000000
766133.000000
766929.000000
767734.000000
768563.000000
769410.000000
770247.000000
771104.000000
771915.000000
772706.000000
773526.000000
774351.000000
775160.000000
776010.000000
776887.000000
777717.000000
778570.000000
779421.000000
780281.000000
781109.000000
781956.000000
782842.000000
783704.000000
784533.000000
785398.000000
786283.000000
787149.000000
787980.000000
788836.000000
789722.000000
790588.000000
791423.000000
792259.000000
793109.000000
793954.000000
794797.000000
795628.000000
796502.000000
797363.000000
798194.000000
798999.000000
799781.000000
800586.000000
801415.000000
802255.000000
803111.000000
803990.000000
804861.000000
805716.000000
806574.000000
807456.000000
808301.000000
809147.000000
809991.000000
810832.000000
811653.000000
812464.000000
813286.000000
814124.000000
814944.000000
815757.000000
816588.000000
817419.000000
818245.000000
819067.000000
819883.000000
820720.000000
821565.000000
822386.000000
823196.000000
824025.000000
824873.000000
825714.000000
826513.000000
827300.000000
828100.000000
828911.000000
829764.000000
830593.000000
831432.000000
832333.000000
833258.000000
834134.000000
834962.000000
835824.000000
836619.000000
837383.000000
838171.000000
838987.000000
839797.000000
840633.000000
841503.000000
842378.000000
843202.000000
844008.000000
844807.000000
845613.000000
846414.000000
847191.000000
847987.000000
848798.000000
849618.000000
850422.000000
851228.000000
852061.000000
852921.000000
853747.000000
854582.000000
855465.000000
856362.000000
857219.000000
858059.000000
858900.000000
859752.000000
860583.000000
861408.000000
862253.000000
863095.000000
863955.000000
864771.000000
865620.000000
866468.000000
867320.000000
868149.000000
868985.000000
869835.000000
870703.000000
871523.000000
872353.000000
873181.000000
874011.000000
874816.000000
875614.000000
876424.000000
877255.000000
878073.000000
878859.000000
879663.000000
880464.000000
881291.000000
882112.000000
882918.000000
883751.000000
884576.000000
885376.000000
886152.000000
886930.000000
887727.000000
888529.000000
889318.000000
890098.000000
890886.000000
891683.000000
892477.000000
893265.000000
894073.000000
894896.000000
895739.000000
896549.000000
897356.000000
898183.000000
899002.000000
899804.000000
900642.000000
