ECG (ms)
582.000000
1589.000000
2657.000000
3719.000000
4691.000000
5706.000000
6722.000000
7695.000000
8702.000000
9664.000000
10669.000000
11697.000000
12650.000000
13643.000000
14655.000000
15590.000000
16590.000000
17645.000000
18601.000000
19609.000000
20641.000000
21583.000000
22562.000000
23615.000000
24590.000000
25606.000000
26581.000000
27509.000000
28449.000000
29352.000000
30280.000000
31233.000000
32131.000000
33094.000000
34045.000000
34967.000000
35926.000000
36834.000000
37750.000000
38723.000000
39666.000000
40725.000000
41886.000000
42979.000000
44112.000000
45223.000000
46300.000000
47412.000000
48465.000000
49507.000000
50523.000000
51459.000000
52444.000000
53449.000000
54427.000000
55451.000000
56430.000000
57379.000000
58401.000000
59379.000000
60366.000000
61388.000000
62362.000000
63380.000000
64363.000000
65337.000000
66360.000000
67343.000000
68355.000000
69385.000000
70346.000000
71343.000000
72336.000000
73272.000000
74257.000000
75194.000000
76172.000000
77181.000000
78136.000000
79137.000000
80093.000000
81092.000000
82100.000000
83060.000000
84090.000000
85067.000000
86111.000000
87153.000000
88131.000000
89172.000000
90136.000000
91164.000000
92191.000000
93172.000000
94224.000000
95198.000000
96220.000000
97252.000000
98256.000000
99330.000000
100364.000000
101337.000000
102416.000000
103487.000000
104474.000000
105519.000000
106561.000000
107598.000000
108664.000000
109639.000000
110641.000000
111636.000000
112583.000000
113586.000000
114576.000000
115525.000000
116526.000000
117510.000000
118474.000000
119488.000000
120448.000000
121411.000000
122434.000000
123397.000000
124394.000000
125426.000000
126373.000000
127352.000000
128356.000000
129305.000000
130290.000000
131288.000000
132210.000000
133181.000000
134192.000000
135164.000000
136181.000000
137245.000000
138209.000000
139225.000000
140237.000000
141172.000000
142159.000000
143111.000000
144038.000000
145041.000000
146086.000000
147076.000000
148150.000000
149196.000000
150168.000000
151180.000000
152196.000000
153150.000000
154159.000000
155155.000000
156082.000000
157054.000000
158045.000000
158976.000000
159950.000000
160931.000000
161865.000000
162862.000000
163865.000000
164817.000000
165816.000000
166805.000000
167739.000000
168733.000000
169707.000000
170640.000000
171640.000000
172653.000000
173628.000000
174663.000000
175630.000000
176621.000000
177617.000000
178546.000000
179528.000000
180524.000000
181452.000000
182430.000000
183419.000000
184359.000000
185347.000000
186370.000000
187334.000000
188341.000000
189359.000000
190322.000000
191353.000000
192364.000000
193308.000000
194297.000000
195309.000000
196262.000000
197287.000000
198333.000000
199306.000000
200348.000000
201422.000000
202412.000000
203427.000000
204474.000000
205475.000000
206477.000000
207528.000000
208516.000000
209551.000000
210606.000000
211571.000000
212574.000000
213628.000000
214597.000000
215618.000000
216647.000000
217619.000000
218628.000000
219670.000000
220619.000000
221594.000000
222627.000000
223605.000000
224619.000000
225702.000000
226713.000000
227731.000000
228748.000000
229691.000000
230684.000000
231665.000000
232611.000000
233618.000000
234630.000000
235585.000000
236568.000000
237582.000000
238535.000000
239519.000000
240569.000000
241531.000000
242474.000000
243477.000000
244504.000000
245438.000000
246386.000000
247396.000000
248364.000000
249362.000000
250419.000000
251411.000000
252462.000000
253520.000000
254499.000000
255522.000000
256562.000000
257526.000000
258554.000000
259616.000000
260623.000000
261696.000000
262743.000000
263715.000000
264750.000000
265802.000000
266775.000000
267773.000000
268794.000000
269745.000000
270735.000000
271766.000000
272735.000000
273729.000000
274721.000000
275647.000000
276617.000000
277622.000000
278563.000000
279568.000000
280626.000000
281599.000000
282594.000000
283641.000000
284609.000000
285604.000000
286657.000000
287636.000000
288645.000000
289670.000000
290621.000000
291621.000000
292655.000000
293640.000000
294668.000000
295740.000000
296731.000000
297762.000000
298807.000000
299784.000000
300782.000000
301804.000000
302757.000000
303752.000000
304763.000000
305724.000000
306732.000000
307777.000000
308753.000000
309760.000000
310810.000000
311765.000000
312773.000000
313804.000000
314735.000000
315675.000000
316680.000000
317648.000000
318639.000000
319719.000000
320715.000000
321754.000000
322792.000000
323769.000000
324776.000000
325816.000000
326789.000000
327813.000000
328862.000000
329857.000000
330867.000000
331909.000000
332953.000000
333951.000000
334985.000000
336057.000000
337051.000000
338044.000000
339069.000000
340029.000000
341031.000000
342093.000000
343069.000000
344074.000000
345143.000000
346126.000000
347117.000000
348139.000000
349093.000000
350090.000000
351123.000000
352072.000000
353043.000000
354045.000000
354967.000000
355927.000000
356950.000000
357959.000000
358981.000000
360049.000000
361051.000000
362067.000000
363089.000000
364059.000000
365069.000000
366085.000000
367039.000000
368031.000000
369061.000000
370036.000000
371055.000000
372099.000000
373068.000000
374051.000000
375040.000000
375963.000000
376931.000000
377914.000000
378843.000000
379806.000000
380786.000000
381719.000000
382706.000000
383774.000000
384769.000000
385768.000000
386783.000000
387735.000000
388734.000000
389760.000000
390754.000000
391739.000000
392770.000000
393778.000000
394779.000000
395816.000000
396841.000000
397850.000000
398906.000000
399899.000000
400895.000000
401928.000000
402860.000000
403857.000000
404872.000000
405845.000000
406878.000000
407934.000000
408915.000000
409929.000000
410997.000000
411980.000000
412976.000000
413987.000000
414950.000000
415930.000000
416943.000000
417935.000000
418960.000000
420047.000000
421045.000000
422088.000000
423134.000000
424129.000000
425182.000000
426232.000000
427215.000000
428236.000000
429275.000000
430265.000000
431252.000000
432259.000000
433260.000000
434245.000000
435286.000000
436335.000000
437373.000000
438442.000000
439535.000000
440539.000000
441565.000000
442607.000000
443600.000000
444641.000000
445724.000000
446630.000000
447459.000000
448312.000000
449158.000000
450025.000000
451006.000000
451933.000000
452940.000000
453941.000000
454957.000000
456030.000000
457046.000000
458145.000000
459164.000000
460285.000000
461385.000000
462503.000000
463582.000000
464690.000000
465799.000000
466885.000000
468005.000000
469079.000000
470194.000000
471270.000000
472387.000000
473441.000000
474559.000000
475625.000000
476728.000000
477831.000000
478915.000000
480025.000000
481127.000000
482250.000000
483329.000000
484448.000000
485517.000000
486615.000000
487707.000000
488758.000000
489853.000000
490911.000000
491965.000000
493047.000000
494081.000000
495087.000000
496014.000000
496964.000000
497946.000000
498882.000000
499897.000000
500925.000000
501876.000000
502886.000000
503889.000000
504848.000000
505874.000000
506837.000000
507838.000000
508842.000000
509790.000000
510807.000000
511806.000000
512751.000000
513770.000000
514809.000000
515791.000000
516811.000000
517849.000000
518828.000000
519858.000000
520891.000000
521856.000000
522842.000000
523844.000000
524790.000000
525781.000000
526793.000000
527733.000000
528715.000000
529719.000000
530648.000000
531606.000000
532548.000000
533451.000000
534421.000000
535417.000000
536375.000000
537421.000000
538451.000000
539392.000000
540393.000000
541418.000000
542366.000000
543379.000000
544451.000000
545443.000000
546512.000000
547574.000000
548602.000000
549680.000000
550786.000000
551824.000000
552867.000000
553902.000000
554890.000000
555923.000000
556911.000000
557909.000000
558978.000000
560002.000000
561088.000000
562146.000000
563126.000000
564181.000000
565224.000000
566245.000000
567302.000000
568307.000000
569358.000000
570398.000000
571389.000000
572411.000000
573422.000000
574374.000000
575361.000000
576383.000000
577352.000000
578365.000000
579387.000000
580358.000000
581367.000000
582401.000000
583372.000000
584354.000000
585339.000000
586271.000000
587253.000000
588254.000000
589197.000000
590217.000000
591250.000000
592217.000000
593260.000000
594337.000000
595334.000000
596378.000000
597393.000000
598338.000000
599334.000000
600370.000000
601329.000000
602308.000000
603294.000000
604237.000000
605215.000000
606202.000000
607137.000000
608106.000000
609056.000000
609982.000000
610956.000000
611901.000000
612825.000000
613795.000000
614789.000000
615743.000000
616759.000000
617776.000000
618725.000000
619697.000000
620689.000000
621631.000000
622613.000000
623615.000000
624557.000000
625513.000000
626511.000000
627452.000000
628452.000000
629491.000000
630461.000000
631509.000000
632541.000000
633530.000000
634593.000000
635649.000000
636626.000000
637646.000000
638716.000000
639719.000000
640771.000000
641812.000000
642843.000000
643881.000000
644861.000000
645809.000000
646847.000000
647857.000000
648848.000000
649924.000000
650939.000000
651994.000000
653056.000000
654064.000000
655131.000000
656176.000000
657154.000000
658148.000000
659150.000000
660101.000000
661102.000000
662114.000000
663087.000000
664081.000000
665091.000000
666045.000000
667051.000000
668054.000000
669016.000000
670038.000000
671063.000000
672006.000000
673007.000000
674034.000000
675009.000000
676042.000000
677084.000000
678067.000000
679091.000000
680142.000000
681121.000000
682192.000000
683271.000000
684253.000000
685317.000000
686427.000000
687488.000000
688593.000000
689611.000000
690650.000000
691701.000000
692708.000000
693731.000000
694784.000000
695781.000000
696723.000000
697718.000000
698698.000000
699626.000000
700630.000000
701642.000000
702624.000000
703649.000000
704677.000000
705624.000000
706595.000000
707637.000000
708645.000000
709699.000000
710765.000000
711735.000000
712706.000000
713747.000000
714726.000000
715749.000000
716821.000000
717818.000000
718863.000000
719894.000000
720867.000000
721914.000000
723003.000000
724051.000000
725153.000000
726256.000000
727300.000000
728377.000000
729441.000000
730422.000000
731451.000000
732526.000000
733506.000000
734487.000000
735511.000000
736483.000000
737522.000000
738600.000000
739632.000000
740724.000000
741839.000000
742898.000000
743956.000000
745026.000000
746013.000000
747038.000000
748106.000000
749123.000000
750197.000000
751270.000000
752280.000000
753332.000000
754417.000000
755482.000000
756573.000000
757645.000000
758647.000000
759681.000000
760720.000000
761703.000000
762697.000000
763717.000000
764688.000000
765669.000000
766678.000000
767620.000000
768600.000000
769568.000000
770489.000000
771453.000000
772424.000000
773344.000000
774285.000000
775284.000000
776245.000000
777159.000000
778147.000000
779133.000000
780056.000000
780984.000000
781963.000000
782910.000000
783808.000000
784787.000000
785768.000000
786724.000000
787746.000000
788709.000000
789685.000000
790720.000000
791689.000000
792775.000000
793837.000000
794847.000000
795772.000000
796711.000000
797661.000000
798665.000000
799764.000000
800775.000000
801867.000000
802949.000000
803988.000000
805072.000000
806071.000000
807114.000000
808179.000000
809181.000000
810255.000000
811369.000000
812379.000000
813473.000000
814573.000000
815579.000000
816650.000000
817716.000000
818701.000000
819754.000000
820824.000000
821814.000000
822873.000000
823920.000000
824935.000000
825983.000000
826987.000000
828035.000000
829044.000000
830077.000000
831130.000000
832110.000000
833144.000000
834188.000000
835159.000000
836180.000000
837200.000000
838179.000000
839187.000000
840223.000000
841210.000000
842221.000000
843241.000000
844257.000000
845269.000000
846220.000000
847188.000000
848192.000000
849185.000000
850149.000000
851140.000000
852119.000000
853038.000000
853982.000000
854986.000000
855931.000000
856898.000000
857928.000000
858873.000000
859869.000000
860915.000000
861889.000000
862894.000000
863936.000000
864906.000000
865903.000000
866950.000000
867924.000000
868950.000000
869986.000000
870982.000000
872033.000000
873063.000000
874035.000000
874986.000000
876035.000000
877053.000000
878118.000000
879230.000000
880248.000000
881343.000000
882412.000000
883427.000000
884508.000000
885583.000000
886609.000000
887694.000000
888785.000000
889793.000000
890818.000000
891905.000000
892932.000000
893996.000000
895070.000000
896096.000000
897156.000000
898249.000000
899272.000000
900229.000000
901253.000000
902269.000000
903233.000000
904272.000000
905318.000000
906320.000000
907367.000000
908425.000000
909391.000000
910398.000000
911454.000000
912451.000000
913461.000000
914522.000000
915521.000000
916523.000000
917529.000000
918488.000000
919464.000000
920509.000000
921515.000000
922529.000000
923620.000000
924638.000000
925652.000000
926692.000000
927678.000000
928707.000000
929753.000000
930765.000000
931834.000000
932936.000000
933992.000000
934947.000000
935955.000000
937002.000000
937983.000000
939040.000000
940125.000000
941127.000000
942186.000000
943276.000000
944292.000000
945327.000000
946365.000000
947315.000000
948339.000000
949379.000000
950351.000000
951405.000000
952445.000000
953430.000000
954502.000000
955522.000000
956582.000000
957637.000000
958639.000000
959664.000000
960712.000000
961690.000000
962755.000000
963811.000000
964820.000000
965881.000000
966955.000000
967981.000000
969040.000000
970080.000000
971076.000000
972102.000000
973081.000000
974096.000000
975173.000000
976175.000000
977232.000000
978345.000000
979394.000000
980474.000000
981519.000000
982516.000000
983597.000000
984633.000000
985666.000000
986786.000000
987943.000000
989030.000000
990134.000000
991175.000000
992293.000000
993424.000000
994472.000000
995602.000000
996730.000000
997751.000000
998811.000000
999919.000000
1000937.000000
1001985.000000
1003045.000000
1004051.000000
1005054.000000
1006153.000000
1007192.000000
1008304.000000
1009441.000000
1010505.000000
1011593.000000
1012672.000000
1013687.000000
1014831.000000
1015936.000000
1016966.000000
1018015.000000
1019113.000000
1020164.000000
1021229.000000
1022188.000000
1023129.000000
1024163.000000
1025164.000000
1026211.000000
1027288.000000
1028260.000000
1029309.000000
1030320.000000
1031321.000000
1032418.000000
1033460.000000
1034557.000000
1035708.000000
1036786.000000
1037928.000000
1039051.000000
1040143.000000
1041226.000000
1042255.000000
1043314.000000
1044330.000000
1045377.000000
1046495.000000
1047511.000000
1048514.000000
1049598.000000
1050634.000000
1051686.000000
1052822.000000
1053892.000000
1054992.000000
1056080.000000
1057070.000000
1058073.000000
1059143.000000
1060157.000000
1061230.000000
1062322.000000
1063356.000000
1064429.000000
1065500.000000
1066521.000000
1067573.000000
1068623.000000
1069625.000000
1070639.000000
1071677.000000
1072674.000000
1073623.000000
1074625.000000
1075615.000000
1076546.000000
1077528.000000
1078568.000000
1079536.000000
1080428.000000
1081408.000000
1082378.000000
1083298.000000
1084330.000000
1085355.000000
1086332.000000
1087396.000000
1088367.000000
1089410.000000
1090476.000000
1091521.000000
1092654.000000
1093695.000000
1094798.000000
1095899.000000
1096933.000000
1098030.000000
1099049.000000
1100146.000000
1101291.000000
1102364.000000
1103469.000000
1104548.000000
1105575.000000
1106666.000000
1107762.000000
1108781.000000
1109838.000000
1110885.000000
1111881.000000
1112918.000000
1113935.000000
1114931.000000
1115989.000000
1117050.000000
1118042.000000
1119017.000000
1120024.000000
1121024.000000
1121955.000000
1122934.000000
1123934.000000
1124895.000000
1125863.000000
1126850.000000
1127776.000000
1128717.000000
1129730.000000
1130704.000000
1131673.000000
1132710.000000
1133755.000000
1134740.000000
1135749.000000
1136754.000000
1137706.000000
1138730.000000
1139780.000000
1140749.000000
1141693.000000
1142708.000000
1143687.000000
1144697.000000
1145774.000000
1146805.000000
1147825.000000
1148842.000000
1149792.000000
1150825.000000
1151879.000000
1152890.000000
1153937.000000
1155007.000000
1156006.000000
1157049.000000
1158071.000000
1159041.000000
1160049.000000
1161053.000000
1162043.000000
1163077.000000
1164065.000000
1165054.000000
1166094.000000
1167083.000000
1168150.000000
1169269.000000
1170331.000000
1171340.000000
1172371.000000
1173340.000000
1174356.000000
1175386.000000
1176340.000000
1177357.000000
1178440.000000
1179481.000000
1180516.000000
1181548.000000
1182523.000000
1183584.000000
1184640.000000
1185673.000000
1186751.000000
1187852.000000
1188895.000000
1189975.000000
1191073.000000
1192101.000000
1193105.000000
1194056.000000
