ECG (ms)
639.000000
1300.000000
1969.000000
2643.000000
3339.000000
4022.000000
4694.000000
5390.000000
6151.000000
6957.000000
7736.000000
8489.000000
9225.000000
9954.000000
10665.000000
11354.000000
12034.000000
12703.000000
13392.000000
14093.000000
14782.000000
15472.000000
16175.000000
16887.000000
17581.000000
18272.000000
18958.000000
19653.000000
20355.000000
21041.000000
21730.000000
22443.000000
23181.000000
23890.000000
24585.000000
25267.000000
25952.000000
26643.000000
27327.000000
28012.000000
28713.000000
29412.000000
30105.000000
30820.000000
31575.000000
32363.000000
33114.000000
33852.000000
34571.000000
35288.000000
35974.000000
36660.000000
37344.000000
38046.000000
38747.000000
39471.000000
40206.000000
40961.000000
41692.000000
42409.000000
43121.000000
43837.000000
44536.000000
45231.000000
45923.000000
46630.000000
47339.000000
48035.000000
48734.000000
49446.000000
50171.000000
50876.000000
51578.000000
52286.000000
53022.000000
53751.000000
54477.000000
55212.000000
55937.000000
56631.000000
57320.000000
58005.000000
58689.000000
59367.000000
60061.000000
60762.000000
61491.000000
62221.000000
62951.000000
63689.000000
64414.000000
65100.000000
65795.000000
66484.000000
67203.000000
67923.000000
68649.000000
69381.000000
70146.000000
70887.000000
71633.000000
72366.000000
73102.000000
73816.000000
74510.000000
75201.000000
75903.000000
76623.000000
77335.000000
78077.000000
78833.000000
79582.000000
80320.000000
81059.000000
81790.000000
82495.000000
83162.000000
83824.000000
84481.000000
85138.000000
85785.000000
86404.000000
87015.000000
87638.000000
88280.000000
88949.000000
89652.000000
90400.000000
91123.000000
91834.000000
92554.000000
93269.000000
93971.000000
94663.000000
95353.000000
96044.000000
96728.000000
97422.000000
98124.000000
98852.000000
99575.000000
100325.000000
101101.000000
101897.000000
102662.000000
103390.000000
104092.000000
104782.000000
105466.000000
106132.000000
106804.000000
107494.000000
108244.000000
109061.000000
109889.000000
110741.000000
111585.000000
112365.000000
113110.000000
113819.000000
114513.000000
115188.000000
115881.000000
116595.000000
117365.000000
118135.000000
118881.000000
119630.000000
120377.000000
121106.000000
121805.000000
122494.000000
123180.000000
123879.000000
124569.000000
125279.000000
125994.000000
126708.000000
127397.000000
128060.000000
128715.000000
129377.000000
130064.000000
130756.000000
131446.000000
132135.000000
132855.000000
133578.000000
134301.000000
135022.000000
135781.000000
136530.000000
137268.000000
138011.000000
138758.000000
139485.000000
140206.000000
140918.000000
141639.000000
142359.000000
143106.000000
143842.000000
144576.000000
145305.000000
146021.000000
146726.000000
147448.000000
148173.000000
148922.000000
149678.000000
150437.000000
151184.000000
151926.000000
152653.000000
153378.000000
154093.000000
154806.000000
155527.000000
156255.000000
156978.000000
157685.000000
158403.000000
159151.000000
159944.000000
160699.000000
161447.000000
162184.000000
162925.000000
163634.000000
164332.000000
165032.000000
165720.000000
166415.000000
167119.000000
167844.000000
168553.000000
169266.000000
169974.000000
170706.000000
171419.000000
172127.000000
172829.000000
173542.000000
174243.000000
174939.000000
175647.000000
176383.000000
177130.000000
177864.000000
178596.000000
179330.000000
180072.000000
180795.000000
181519.000000
182253.000000
183041.000000
183805.000000
184563.000000
185314.000000
186060.000000
186774.000000
187493.000000
188216.000000
188957.000000
189681.000000
190411.000000
191137.000000
191871.000000
192588.000000
193298.000000
194012.000000
194774.000000
195549.000000
196295.000000
197050.000000
197819.000000
198574.000000
199289.000000
199988.000000
200695.000000
201389.000000
202065.000000
202751.000000
203479.000000
204276.000000
205090.000000
205913.000000
206721.000000
207496.000000
208239.000000
208955.000000
209665.000000
210353.000000
211035.000000
211716.000000
212426.000000
213165.000000
213901.000000
214664.000000
215446.000000
216218.000000
216946.000000
217653.000000
218342.000000
219029.000000
219700.000000
220365.000000
221042.000000
221758.000000
222508.000000
223233.000000
223961.000000
224698.000000
225432.000000
226136.000000
226841.000000
227548.000000
228239.000000
228912.000000
229579.000000
230247.000000
230932.000000
231618.000000
232334.000000
233081.000000
233846.000000
234604.000000
235337.000000
236062.000000
236767.000000
237453.000000
238137.000000
238822.000000
239516.000000
240222.000000
240939.000000
241653.000000
242394.000000
243123.000000
243824.000000
244518.000000
245223.000000
245915.000000
246585.000000
247254.000000
247939.000000
248649.000000
249380.000000
250125.000000
250906.000000
251676.000000
252405.000000
253120.000000
253827.000000
254540.000000
255241.000000
255929.000000
256618.000000
257329.000000
258043.000000
258749.000000
259466.000000
260206.000000
260940.000000
261647.000000
262356.000000
263051.000000
263738.000000
264419.000000
265121.000000
265835.000000
266579.000000
267296.000000
267997.000000
268692.000000
269386.000000
270058.000000
270730.000000
271404.000000
272109.000000
272827.000000
273522.000000
274226.000000
274945.000000
275669.000000
276373.000000
277063.000000
277747.000000
278426.000000
279096.000000
279776.000000
280464.000000
281180.000000
281870.000000
282573.000000
283294.000000
284047.000000
284768.000000
285478.000000
286182.000000
286889.000000
287589.000000
288273.000000
288953.000000
289645.000000
290336.000000
291025.000000
291742.000000
292474.000000
293244.000000
293996.000000
294742.000000
295480.000000
296196.000000
296888.000000
297578.000000
298273.000000
298980.000000
299691.000000
300404.000000
301120.000000
301854.000000
302604.000000
303338.000000
304058.000000
304765.000000
305444.000000
306091.000000
306719.000000
307349.000000
308013.000000
308721.000000
309489.000000
310314.000000
311100.000000
311846.000000
312583.000000
313323.000000
314040.000000
314759.000000
315467.000000
316196.000000
316952.000000
317703.000000
318455.000000
319212.000000
319992.000000
320750.000000
321490.000000
322229.000000
322984.000000
323702.000000
324416.000000
325144.000000
325881.000000
326613.000000
327356.000000
328110.000000
328876.000000
329619.000000
330361.000000
331103.000000
331843.000000
332559.000000
333257.000000
333947.000000
334649.000000
335360.000000
336066.000000
336774.000000
337506.000000
338241.000000
338961.000000
339685.000000
340426.000000
341167.000000
341880.000000
342589.000000
343305.000000
344030.000000
344726.000000
345434.000000
346144.000000
346864.000000
347573.000000
348278.000000
348981.000000
349705.000000
350409.000000
351106.000000
351807.000000
352518.000000
353232.000000
353925.000000
354632.000000
355344.000000
356077.000000
356786.000000
357480.000000
358162.000000
358844.000000
359524.000000
360188.000000
360864.000000
361565.000000
362320.000000
363089.000000
363862.000000
364623.000000
365369.000000
366088.000000
366795.000000
367489.000000
368184.000000
368880.000000
369583.000000
370286.000000
371035.000000
371789.000000
372558.000000
373317.000000
374067.000000
374790.000000
375498.000000
376221.000000
376954.000000
377673.000000
378384.000000
379107.000000
379862.000000
380620.000000
381356.000000
382050.000000
382753.000000
383462.000000
384209.000000
384940.000000
385677.000000
386415.000000
387157.000000
387887.000000
388600.000000
389298.000000
390014.000000
390724.000000
391427.000000
392149.000000
392973.000000
393795.000000
394562.000000
395312.000000
396064.000000
396806.000000
397526.000000
398246.000000
398968.000000
399696.000000
400414.000000
401148.000000
401912.000000
402716.000000
403517.000000
404324.000000
405124.000000
405890.000000
406637.000000
407356.000000
408065.000000
408795.000000
409543.000000
410296.000000
411074.000000
411880.000000
412720.000000
413524.000000
414285.000000
415039.000000
415796.000000
416542.000000
417255.000000
417971.000000
418704.000000
419470.000000
420225.000000
421009.000000
421787.000000
422563.000000
423324.000000
424099.000000
424882.000000
425648.000000
426396.000000
427135.000000
427872.000000
428605.000000
429328.000000
430055.000000
430792.000000
431562.000000
432341.000000
433122.000000
433937.000000
434753.000000
435503.000000
436230.000000
436948.000000
437678.000000
438402.000000
439141.000000
439901.000000
440725.000000
441554.000000
442356.000000
443144.000000
443899.000000
444612.000000
445312.000000
446004.000000
446714.000000
447429.000000
448160.000000
448926.000000
449774.000000
450641.000000
451443.000000
452238.000000
453027.000000
453805.000000
454537.000000
455261.000000
455974.000000
456713.000000
457445.000000
458158.000000
458859.000000
459556.000000
460265.000000
460974.000000
461686.000000
462429.000000
463209.000000
464014.000000
464788.000000
465532.000000
466250.000000
466971.000000
467718.000000
468445.000000
469155.000000
469861.000000
470556.000000
471261.000000
471961.000000
472689.000000
473447.000000
474211.000000
474977.000000
475766.000000
476522.000000
477248.000000
477959.000000
478671.000000
479386.000000
480089.000000
480828.000000
481655.000000
482570.000000
483424.000000
484260.000000
485122.000000
485894.000000
486628.000000
487337.000000
488041.000000
488724.000000
489413.000000
490111.000000
490852.000000
491624.000000
492417.000000
493239.000000
494065.000000
494842.000000
495592.000000
496330.000000
497067.000000
497779.000000
498492.000000
499203.000000
499935.000000
500648.000000
501364.000000
502089.000000
502832.000000
503563.000000
504284.000000
505001.000000
505736.000000
506462.000000
507186.000000
507905.000000
508632.000000
509338.000000
510051.000000
510759.000000
511482.000000
512190.000000
512903.000000
513623.000000
514376.000000
515142.000000
515875.000000
516608.000000
517337.000000
518044.000000
518742.000000
519450.000000
520167.000000
520867.000000
521555.000000
522251.000000
522948.000000
523662.000000
524360.000000
525048.000000
525726.000000
526417.000000
527105.000000
527801.000000
528506.000000
529243.000000
529971.000000
530711.000000
531446.000000
532194.000000
532917.000000
533622.000000
534322.000000
535025.000000
535732.000000
536438.000000
537141.000000
537855.000000
538570.000000
539275.000000
539980.000000
540704.000000
541445.000000
542167.000000
542890.000000
543632.000000
544380.000000
545123.000000
545867.000000
546617.000000
547372.000000
548102.000000
548830.000000
549563.000000
550304.000000
551039.000000
551774.000000
552524.000000
553290.000000
554036.000000
554783.000000
555525.000000
556267.000000
556975.000000
557677.000000
558388.000000
559144.000000
559905.000000
560685.000000
561466.000000
562212.000000
562899.000000
563561.000000
564224.000000
564890.000000
565564.000000
566252.000000
566956.000000
567650.000000
568335.000000
569015.000000
569718.000000
570413.000000
571106.000000
571801.000000
572508.000000
573253.000000
574003.000000
574736.000000
575483.000000
576236.000000
576965.000000
577662.000000
578360.000000
579073.000000
579793.000000
580521.000000
581265.000000
582033.000000
582809.000000
583540.000000
584256.000000
584974.000000
585688.000000
586377.000000
587071.000000
587759.000000
588443.000000
589131.000000
589817.000000
590505.000000
591236.000000
591982.000000
592701.000000
593428.000000
594176.000000
594932.000000
595646.000000
596353.000000
597055.000000
597751.000000
598436.000000
599133.000000
599825.000000
600534.000000
601232.000000
601943.000000
602664.000000
603413.000000
604139.000000
604848.000000
605560.000000
606280.000000
607000.000000
607706.000000
608421.000000
609159.000000
609912.000000
610635.000000
611348.000000
612063.000000
612787.000000
613521.000000
614230.000000
614953.000000
615681.000000
616417.000000
617126.000000
617835.000000
618542.000000
619242.000000
619922.000000
620609.000000
621307.000000
622035.000000
622765.000000
623483.000000
624197.000000
624921.000000
625648.000000
626360.000000
627068.000000
627777.000000
628478.000000
629169.000000
629863.000000
630577.000000
631320.000000
632050.000000
632770.000000
633497.000000
634236.000000
634959.000000
635685.000000
636415.000000
637155.000000
637883.000000
638588.000000
639293.000000
640012.000000
640737.000000
641441.000000
642154.000000
642870.000000
643619.000000
644384.000000
645147.000000
645892.000000
646628.000000
647347.000000
648047.000000
648737.000000
649437.000000
650146.000000
650863.000000
651594.000000
652354.000000
653138.000000
653871.000000
654591.000000
655309.000000
656015.000000
656701.000000
657358.000000
658004.000000
658647.000000
659309.000000
659977.000000
660667.000000
661399.000000
662115.000000
662822.000000
663542.000000
664292.000000
665054.000000
665806.000000
666574.000000
667383.000000
668212.000000
669014.000000
669811.000000
670609.000000
671383.000000
672146.000000
672880.000000
673621.000000
674387.000000
675195.000000
675999.000000
676789.000000
677579.000000
678360.000000
679099.000000
679821.000000
680549.000000
681283.000000
682011.000000
682730.000000
683462.000000
684219.000000
685027.000000
685817.000000
686608.000000
687385.000000
688161.000000
688905.000000
689633.000000
690366.000000
691137.000000
691913.000000
692710.000000
693539.000000
694411.000000
695237.000000
696048.000000
696856.000000
697637.000000
698386.000000
699135.000000
699908.000000
700686.000000
701445.000000
702185.000000
702921.000000
703675.000000
704431.000000
705182.000000
705929.000000
706720.000000
707539.000000
708362.000000
709211.000000
710057.000000
710837.000000
711582.000000
712293.000000
712988.000000
713661.000000
714337.000000
715022.000000
715723.000000
716448.000000
717198.000000
717962.000000
718769.000000
719541.000000
720293.000000
721046.000000
721790.000000
722526.000000
723238.000000
723951.000000
724667.000000
725376.000000
726095.000000
726823.000000
727574.000000
728349.000000
729091.000000
729824.000000
730563.000000
731301.000000
732021.000000
732725.000000
733431.000000
734132.000000
734848.000000
735546.000000
736251.000000
736984.000000
737742.000000
738510.000000
739298.000000
740086.000000
740837.000000
741543.000000
742236.000000
742917.000000
743593.000000
744273.000000
744956.000000
745650.000000
746395.000000
747166.000000
747950.000000
748748.000000
749552.000000
750335.000000
751069.000000
751784.000000
752505.000000
753217.000000
753911.000000
754608.000000
755340.000000
756169.000000
756974.000000
757776.000000
758583.000000
759360.000000
760101.000000
760830.000000
761552.000000
762249.000000
762922.000000
763599.000000
764281.000000
764991.000000
765715.000000
766457.000000
767207.000000
767991.000000
768769.000000
769534.000000
770297.000000
771064.000000
771801.000000
772533.000000
773266.000000
774002.000000
774739.000000
775481.000000
776270.000000
777118.000000
777970.000000
778805.000000
779629.000000
780452.000000
781222.000000
781961.000000
782688.000000
783418.000000
784145.000000
784875.000000
785643.000000
786526.000000
787389.000000
788198.000000
788985.000000
789736.000000
790451.000000
791160.000000
791859.000000
792592.000000
793329.000000
794082.000000
794871.000000
795669.000000
796432.000000
797180.000000
797934.000000
798672.000000
799376.000000
800078.000000
800784.000000
801491.000000
802185.000000
802876.000000
803574.000000
804298.000000
805029.000000
805750.000000
806487.000000
807251.000000
807997.000000
808737.000000
809478.000000
810217.000000
810949.000000
811657.000000
812365.000000
813062.000000
813784.000000
814496.000000
815222.000000
815961.000000
816727.000000
817461.000000
818189.000000
818909.000000
819639.000000
820341.000000
821044.000000
821756.000000
822491.000000
823219.000000
823928.000000
824637.000000
825349.000000
826061.000000
826769.000000
827500.000000
828240.000000
828995.000000
829735.000000
830485.000000
831246.000000
831999.000000
832718.000000
833427.000000
834130.000000
834837.000000
835525.000000
836218.000000
836917.000000
837639.000000
838361.000000
839056.000000
839756.000000
840475.000000
841229.000000
841966.000000
842699.000000
843428.000000
844161.000000
844871.000000
845559.000000
846244.000000
846933.000000
847644.000000
848364.000000
849108.000000
849889.000000
850729.000000
851531.000000
852324.000000
853106.000000
853866.000000
854594.000000
855330.000000
856064.000000
856801.000000
857523.000000
858224.000000
858926.000000
859633.000000
860358.000000
861061.000000
861757.000000
862476.000000
863224.000000
863957.000000
864681.000000
865398.000000
866101.000000
866795.000000
867461.000000
868106.000000
868772.000000
869466.000000
870239.000000
871032.000000
871839.000000
872601.000000
873302.000000
873982.000000
874673.000000
875364.000000
876043.000000
876720.000000
877392.000000
878065.000000
878746.000000
879446.000000
880131.000000
880816.000000
881503.000000
882204.000000
882921.000000
883653.000000
884411.000000
885197.000000
886001.000000
886785.000000
887564.000000
888323.000000
889083.000000
889849.000000
890593.000000
891324.000000
892063.000000
892815.000000
893589.000000
894370.000000
895162.000000
895939.000000
896674.000000
897397.000000
898120.000000
898847.000000
899551.000000
900252.000000
900941.000000
901638.000000
