ECG (ms)
514.000000
1414.000000
2332.000000
3280.000000
4128.000000
4933.000000
5793.000000
7180.000000
8322.000000
9421.000000
10505.000000
11544.000000
12518.000000
13394.000000
14256.000000
15095.000000
15960.000000
17068.000000
18204.000000
19338.000000
20452.000000
21529.000000
22552.000000
23525.000000
24461.000000
25385.000000
26285.000000
27204.000000
28159.000000
29169.000000
30204.000000
31229.000000
32231.000000
33212.000000
34167.000000
35118.000000
36007.000000
36911.000000
37831.000000
38745.000000
39667.000000
40544.000000
41441.000000
42329.000000
43217.000000
44104.000000
45002.000000
45935.000000
47006.000000
48100.000000
49164.000000
50195.000000
51198.000000
52133.000000
53070.000000
54009.000000
54958.000000
55925.000000
56921.000000
57870.000000
58850.000000
59828.000000
60752.000000
61699.000000
62610.000000
63483.000000
64379.000000
65232.000000
66122.000000
67056.000000
68032.000000
69005.000000
69933.000000
70870.000000
71843.000000
72805.000000
73768.000000
74669.000000
75596.000000
76540.000000
77488.000000
78355.000000
79271.000000
80238.000000
81150.000000
82077.000000
83016.000000
83965.000000
84898.000000
85819.000000
86747.000000
87615.000000
88505.000000
89421.000000
90305.000000
91209.000000
92125.000000
93010.000000
93918.000000
94870.000000
95818.000000
96734.000000
97646.000000
98544.000000
99399.000000
100234.000000
101070.000000
101949.000000
102858.000000
103714.000000
104558.000000
105424.000000
106351.000000
107266.000000
108181.000000
109171.000000
110158.000000
111083.000000
112011.000000
112892.000000
113725.000000
114562.000000
115433.000000
116392.000000
117336.000000
118320.000000
119291.000000
120208.000000
121089.000000
121997.000000
122860.000000
123687.000000
124503.000000
125347.000000
126267.000000
127242.000000
128161.000000
129141.000000
130126.000000
131016.000000
131913.000000
132819.000000
133683.000000
134545.000000
135414.000000
136297.000000
137168.000000
138086.000000
139039.000000
139967.000000
140935.000000
141908.000000
142836.000000
143744.000000
144626.000000
145464.000000
146323.000000
147193.000000
148080.000000
148967.000000
149948.000000
150922.000000
151824.000000
152709.000000
153571.000000
154386.000000
155180.000000
155993.000000
156846.000000
157728.000000
158667.000000
159628.000000
160562.000000
161492.000000
162430.000000
163345.000000
164212.000000
165075.000000
165943.000000
166787.000000
167617.000000
168473.000000
169332.000000
170257.000000
171284.000000
172284.000000
173226.000000
174127.000000
175039.000000
176073.000000
177087.000000
178064.000000
179004.000000
179972.000000
180979.000000
181926.000000
182864.000000
183904.000000
184875.000000
185789.000000
186689.000000
187578.000000
188474.000000
189402.000000
190395.000000
191401.000000
192336.000000
193287.000000
194239.000000
195145.000000
196039.000000
196964.000000
197962.000000
199029.000000
200096.000000
201050.000000
201937.000000
202831.000000
203821.000000
204862.000000
205860.000000
206814.000000
207785.000000
208777.000000
209796.000000
210828.000000
211755.000000
212631.000000
213521.000000
214451.000000
215380.000000
216293.000000
217279.000000
218288.000000
219300.000000
220214.000000
221090.000000
221954.000000
222864.000000
223850.000000
224902.000000
225909.000000
226849.000000
227724.000000
228587.000000
229505.000000
230528.000000
231530.000000
232543.000000
233491.000000
234381.000000
235257.000000
236184.000000
237234.000000
238262.000000
239298.000000
240240.000000
241116.000000
241970.000000
242835.000000
243880.000000
244983.000000
246072.000000
247030.000000
247925.000000
248862.000000
249861.000000
250866.000000
251870.000000
252854.000000
253837.000000
254738.000000
255603.000000
256451.000000
257358.000000
258388.000000
259526.000000
260617.000000
261610.000000
262539.000000
263462.000000
264404.000000
265406.000000
266388.000000
267288.000000
268216.000000
269154.000000
270162.000000
271166.000000
272139.000000
273083.000000
274079.000000
275094.000000
276112.000000
277062.000000
277920.000000
278752.000000
279612.000000
280528.000000
281519.000000
282528.000000
283613.000000
284727.000000
285719.000000
286669.000000
287599.000000
288497.000000
289394.000000
290331.000000
291322.000000
292288.000000
293360.000000
294455.000000
295459.000000
296396.000000
297321.000000
298272.000000
299174.000000
300104.000000
301078.000000
302056.000000
303008.000000
303969.000000
304945.000000
305863.000000
306838.000000
307856.000000
308778.000000
309680.000000
310553.000000
311430.000000
312334.000000
313364.000000
314424.000000
315548.000000
316553.000000
317429.000000
318251.000000
319075.000000
320121.000000
321278.000000
322419.000000
323500.000000
324522.000000
325537.000000
326498.000000
327402.000000
328269.000000
329167.000000
330125.000000
331144.000000
332154.000000
333147.000000
334064.000000
334999.000000
335924.000000
336855.000000
337718.000000
338536.000000
339362.000000
340190.000000
341075.000000
342019.000000
343012.000000
344059.000000
345026.000000
346022.000000
347013.000000
347932.000000
348818.000000
349690.000000
350578.000000
351480.000000
352354.000000
353268.000000
354232.000000
355234.000000
356152.000000
357087.000000
358031.000000
358956.000000
359846.000000
360765.000000
361711.000000
362606.000000
363492.000000
364362.000000
365216.000000
366043.000000
366903.000000
367859.000000
368786.000000
369696.000000
370627.000000
371531.000000
372378.000000
373244.000000
374145.000000
375093.000000
376019.000000
376918.000000
377871.000000
378816.000000
379771.000000
380676.000000
381550.000000
382462.000000
383428.000000
384383.000000
385305.000000
386212.000000
387119.000000
388063.000000
388995.000000
389922.000000
390874.000000
391846.000000
392768.000000
393682.000000
394598.000000
395531.000000
396425.000000
397369.000000
398325.000000
399234.000000
400172.000000
401143.000000
402082.000000
403020.000000
403971.000000
404897.000000
405797.000000
406714.000000
407625.000000
408552.000000
409499.000000
410423.000000
411330.000000
412272.000000
413220.000000
414148.000000
415074.000000
416032.000000
416962.000000
417863.000000
418798.000000
419744.000000
420622.000000
421528.000000
422464.000000
423472.000000
424401.000000
425321.000000
426260.000000
427191.000000
428201.000000
429300.000000
430352.000000
431329.000000
432279.000000
433211.000000
434095.000000
435030.000000
436023.000000
436967.000000
437887.000000
438791.000000
439674.000000
440546.000000
441537.000000
442544.000000
443483.000000
444432.000000
445356.000000
446241.000000
447093.000000
448009.000000
449073.000000
450153.000000
451224.000000
452310.000000
453301.000000
454223.000000
455141.000000
456095.000000
457079.000000
458001.000000
458912.000000
459884.000000
460944.000000
461916.000000
462871.000000
463848.000000
464769.000000
465690.000000
466636.000000
467600.000000
468499.000000
469409.000000
470325.000000
471210.000000
472136.000000
473133.000000
474139.000000
475097.000000
476049.000000
477018.000000
477903.000000
478798.000000
479681.000000
480532.000000
481384.000000
482274.000000
483199.000000
484147.000000
485119.000000
486056.000000
486927.000000
487802.000000
488697.000000
489582.000000
490481.000000
491373.000000
492258.000000
493146.000000
494063.000000
494985.000000
495871.000000
496793.000000
497685.000000
498553.000000
499434.000000
500346.000000
501274.000000
502145.000000
503042.000000
503943.000000
504823.000000
505694.000000
506568.000000
507457.000000
508318.000000
509181.000000
510107.000000
511013.000000
511873.000000
512725.000000
513567.000000
514423.000000
515324.000000
516238.000000
517140.000000
518042.000000
518984.000000
519922.000000
520781.000000
521632.000000
522482.000000
523334.000000
524199.000000
525085.000000
526003.000000
526883.000000
527794.000000
528746.000000
529703.000000
530673.000000
531603.000000
532484.000000
533320.000000
534162.000000
535054.000000
535956.000000
536908.000000
537884.000000
538851.000000
539749.000000
540660.000000
541553.000000
542401.000000
543194.000000
543949.000000
544719.000000
545605.000000
546648.000000
547669.000000
548648.000000
549616.000000
550569.000000
551492.000000
552369.000000
553192.000000
554018.000000
554854.000000
555793.000000
556846.000000
557901.000000
558912.000000
559853.000000
560748.000000
561681.000000
562619.000000
563568.000000
564511.000000
565423.000000
566325.000000
567179.000000
568053.000000
569068.000000
570155.000000
571198.000000
572137.000000
573061.000000
574002.000000
574976.000000
575873.000000
576762.000000
577668.000000
578612.000000
579535.000000
580448.000000
581400.000000
582361.000000
583260.000000
584148.000000
585053.000000
585978.000000
586868.000000
587768.000000
588637.000000
589520.000000
590392.000000
591236.000000
592124.000000
593080.000000
594067.000000
594974.000000
595854.000000
596708.000000
597542.000000
598390.000000
599242.000000
600120.000000
600982.000000
601843.000000
602707.000000
603564.000000
604419.000000
605278.000000
606116.000000
606960.000000
607806.000000
608670.000000
609537.000000
610431.000000
611317.000000
612230.000000
613084.000000
613951.000000
614836.000000
615733.000000
616631.000000
617578.000000
618533.000000
619455.000000
620383.000000
621309.000000
622146.000000
622965.000000
623811.000000
624703.000000
625701.000000
626665.000000
627646.000000
628627.000000
629535.000000
630432.000000
631307.000000
632132.000000
632961.000000
633786.000000
634633.000000
635607.000000
636551.000000
637444.000000
638314.000000
639214.000000
640134.000000
641027.000000
641913.000000
642785.000000
643707.000000
644593.000000
645455.000000
646293.000000
647134.000000
647986.000000
648905.000000
649794.000000
650716.000000
651667.000000
652587.000000
653499.000000
654397.000000
655266.000000
656143.000000
657046.000000
657935.000000
658798.000000
659671.000000
660571.000000
661466.000000
662401.000000
663332.000000
664214.000000
665081.000000
665958.000000
666877.000000
667766.000000
668662.000000
669597.000000
670574.000000
671523.000000
672408.000000
673326.000000
674312.000000
675333.000000
676328.000000
677341.000000
678336.000000
679296.000000
680202.000000
681144.000000
682159.000000
683236.000000
684230.000000
685181.000000
686175.000000
687197.000000
688192.000000
689105.000000
689961.000000
690846.000000
691889.000000
692970.000000
694035.000000
694994.000000
695895.000000
696809.000000
697795.000000
698725.000000
699618.000000
700540.000000
701466.000000
702384.000000
703344.000000
704354.000000
705399.000000
706399.000000
707402.000000
708359.000000
709245.000000
710151.000000
711086.000000
712013.000000
713032.000000
714086.000000
715120.000000
716191.000000
717210.000000
718132.000000
719014.000000
719889.000000
720833.000000
721850.000000
722824.000000
723845.000000
724861.000000
725844.000000
726808.000000
727773.000000
728706.000000
729643.000000
730601.000000
731585.000000
732520.000000
733467.000000
734424.000000
735330.000000
736249.000000
737249.000000
738286.000000
739268.000000
740278.000000
741344.000000
742296.000000
743263.000000
744333.000000
745347.000000
746288.000000
747271.000000
748396.000000
749411.000000
750415.000000
751426.000000
752416.000000
753366.000000
754363.000000
755417.000000
756367.000000
757328.000000
758274.000000
759174.000000
760110.000000
761050.000000
762039.000000
762952.000000
763877.000000
764837.000000
765826.000000
766738.000000
767662.000000
768603.000000
769510.000000
770452.000000
771396.000000
772334.000000
773240.000000
774122.000000
775051.000000
776046.000000
777076.000000
778044.000000
778979.000000
779905.000000
780800.000000
781706.000000
782632.000000
783609.000000
784601.000000
785563.000000
786617.000000
787636.000000
788653.000000
789570.000000
790479.000000
791405.000000
792352.000000
793335.000000
794331.000000
795423.000000
796476.000000
797394.000000
798272.000000
799121.000000
799958.000000
800807.000000
801712.000000
802683.000000
803611.000000
804595.000000
805603.000000
806543.000000
807441.000000
808330.000000
809205.000000
810051.000000
810904.000000
811795.000000
812679.000000
813525.000000
814385.000000
815259.000000
816129.000000
817001.000000
817912.000000
818791.000000
819625.000000
820477.000000
821348.000000
822202.000000
823085.000000
823974.000000
824847.000000
825720.000000
826595.000000
827454.000000
828295.000000
829137.000000
830024.000000
831022.000000
831950.000000
832927.000000
833903.000000
834794.000000
835705.000000
836609.000000
837499.000000
838399.000000
839362.000000
840409.000000
841378.000000
842365.000000
843286.000000
844139.000000
844985.000000
845833.000000
846671.000000
847498.000000
848368.000000
849300.000000
850235.000000
851208.000000
852217.000000
853119.000000
853970.000000
854802.000000
855630.000000
856458.000000
857285.000000
858172.000000
859112.000000
860023.000000
860948.000000
861864.000000
862763.000000
863592.000000
864379.000000
865153.000000
865960.000000
866869.000000
867845.000000
868827.000000
869764.000000
870647.000000
871525.000000
872382.000000
873236.000000
874107.000000
874940.000000
875806.000000
876713.000000
877819.000000
878919.000000
879989.000000
881000.000000
881945.000000
882813.000000
883637.000000
884452.000000
885279.000000
886134.000000
887143.000000
888192.000000
889169.000000
890101.000000
890985.000000
891825.000000
892669.000000
893502.000000
894385.000000
895314.000000
896201.000000
897114.000000
898013.000000
898890.000000
899735.000000
900564.000000
901382.000000
902184.000000
903009.000000
903823.000000
904665.000000
905525.000000
906454.000000
907425.000000
908361.000000
909326.000000
910285.000000
911154.000000
912043.000000
912953.000000
913824.000000
914721.000000
915669.000000
916551.000000
917429.000000
918316.000000
919195.000000
