ECG (ms)
359.000000
1062.000000
1814.000000
2623.000000
3376.000000
4173.000000
4979.000000
5775.000000
6570.000000
7303.000000
8013.000000
8743.000000
9449.000000
10164.000000
10885.000000
11583.000000
12248.000000
12905.000000
13590.000000
14378.000000
15180.000000
16012.000000
16769.000000
17543.000000
18376.000000
19206.000000
19963.000000
20725.000000
21482.000000
22212.000000
22967.000000
23746.000000
24531.000000
25287.000000
26108.000000
27014.000000
27862.000000
28700.000000
29546.000000
30324.000000
31097.000000
31910.000000
32672.000000
33447.000000
34263.000000
35090.000000
35874.000000
36781.000000
37750.000000
38634.000000
39535.000000
40448.000000
41283.000000
42139.000000
43052.000000
43901.000000
44830.000000
45851.000000
46836.000000
47735.000000
48677.000000
49577.000000
50439.000000
51360.000000
52320.000000
53207.000000
54096.000000
54957.000000
55760.000000
56530.000000
57250.000000
57977.000000
58747.000000
59554.000000
60453.000000
61379.000000
62248.000000
63130.000000
64006.000000
64825.000000
65730.000000
66670.000000
67526.000000
68411.000000
69399.000000
70442.000000
71371.000000
72254.000000
73142.000000
73936.000000
74699.000000
75555.000000
76563.000000
77447.000000
78432.000000
79431.000000
80318.000000
81236.000000
82144.000000
82956.000000
83783.000000
84649.000000
85450.000000
86270.000000
87129.000000
87968.000000
88783.000000
89651.000000
90521.000000
91329.000000
92204.000000
93142.000000
93991.000000
94848.000000
95697.000000
96486.000000
97287.000000
98085.000000
98869.000000
99613.000000
100381.000000
101156.000000
101960.000000
102747.000000
103523.000000
104290.000000
105019.000000
105724.000000
106450.000000
107238.000000
107989.000000
108801.000000
109658.000000
110498.000000
111300.000000
112150.000000
113054.000000
113912.000000
114755.000000
115643.000000
116499.000000
117413.000000
118293.000000
119143.000000
119967.000000
120789.000000
121642.000000
122511.000000
123356.000000
124194.000000
125044.000000
125868.000000
126698.000000
127528.000000
128300.000000
129117.000000
129957.000000
130773.000000
131650.000000
132568.000000
133453.000000
134298.000000
135184.000000
136042.000000
136863.000000
137712.000000
138546.000000
139322.000000
140181.000000
141110.000000
142020.000000
142856.000000
143750.000000
144666.000000
145562.000000
146372.000000
147240.000000
148152.000000
149030.000000
149850.000000
150705.000000
151566.000000
152374.000000
153192.000000
154023.000000
154892.000000
155683.000000
156498.000000
157354.000000
158217.000000
159040.000000
159825.000000
160649.000000
161572.000000
162496.000000
163301.000000
164134.000000
164979.000000
165821.000000
166600.000000
167419.000000
168309.000000
169115.000000
169952.000000
170815.000000
171648.000000
172449.000000
173316.000000
174211.000000
175035.000000
175883.000000
176772.000000
177610.000000
178405.000000
179218.000000
180060.000000
180900.000000
181693.000000
182508.000000
183323.000000
184163.000000
184967.000000
185793.000000
186661.000000
187539.000000
188345.000000
189150.000000
189986.000000
190835.000000
191649.000000
192428.000000
193241.000000
194075.000000
194912.000000
195706.000000
196524.000000
197397.000000
198245.000000
199034.000000
199877.000000
200728.000000
201530.000000
202358.000000
203217.000000
204045.000000
204833.000000
205661.000000
206534.000000
207371.000000
208163.000000
208977.000000
209818.000000
210624.000000
211406.000000
212208.000000
213016.000000
213822.000000
214578.000000
215330.000000
216108.000000
216918.000000
217673.000000
218453.000000
219279.000000
220097.000000
220867.000000
221684.000000
222533.000000
223366.000000
224141.000000
224952.000000
225774.000000
226583.000000
227345.000000
228143.000000
228999.000000
229848.000000
230643.000000
231461.000000
232317.000000
233164.000000
233962.000000
234766.000000
235611.000000
236462.000000
237260.000000
238067.000000
238872.000000
239667.000000
240429.000000
241233.000000
242053.000000
242830.000000
243636.000000
244471.000000
245300.000000
246092.000000
246905.000000
247726.000000
248518.000000
249296.000000
250110.000000
250956.000000
251763.000000
252607.000000
253471.000000
254273.000000
255086.000000
255922.000000
256754.000000
257555.000000
258392.000000
259281.000000
260195.000000
261036.000000
261885.000000
262761.000000
263564.000000
264369.000000
265164.000000
265970.000000
266742.000000
267564.000000
268428.000000
269297.000000
270109.000000
270989.000000
271898.000000
272805.000000
273634.000000
274422.000000
275220.000000
276041.000000
276846.000000
277621.000000
278403.000000
279232.000000
280093.000000
280911.000000
281749.000000
282584.000000
283386.000000
284152.000000
284943.000000
285722.000000
286464.000000
287220.000000
288036.000000
288882.000000
289692.000000
290486.000000
291302.000000
292121.000000
292891.000000
293667.000000
294491.000000
295332.000000
296136.000000
296937.000000
297779.000000
298606.000000
299373.000000
300145.000000
300948.000000
301740.000000
302485.000000
303242.000000
304020.000000
304836.000000
305612.000000
306374.000000
307150.000000
307941.000000
308682.000000
309422.000000
310190.000000
310963.000000
311711.000000
312458.000000
313278.000000
314125.000000
314936.000000
315816.000000
316745.000000
317661.000000
318524.000000
319423.000000
320319.000000
321134.000000
321952.000000
322767.000000
323586.000000
324356.000000
325197.000000
326094.000000
326950.000000
327750.000000
328594.000000
329479.000000
330355.000000
331143.000000
331920.000000
332730.000000
333569.000000
334394.000000
335176.000000
336003.000000
336899.000000
337719.000000
338535.000000
339364.000000
340152.000000
340911.000000
341710.000000
342546.000000
343393.000000
344182.000000
345005.000000
345916.000000
346785.000000
347586.000000
348401.000000
349239.000000
350090.000000
350888.000000
351721.000000
352595.000000
353479.000000
354308.000000
355218.000000
356164.000000
357014.000000
357869.000000
358716.000000
359533.000000
360322.000000
361186.000000
362103.000000
362984.000000
363824.000000
364670.000000
365533.000000
366313.000000
367103.000000
367904.000000
368693.000000
369460.000000
370234.000000
371072.000000
371979.000000
372809.000000
373613.000000
374359.000000
375054.000000
375734.000000
376420.000000
377147.000000
377931.000000
378703.000000
379433.000000
380233.000000
381098.000000
381935.000000
382717.000000
383549.000000
384409.000000
385198.000000
385952.000000
386814.000000
387758.000000
388648.000000
389534.000000
390440.000000
391377.000000
392253.000000
393161.000000
394112.000000
395022.000000
395858.000000
396721.000000
397647.000000
398484.000000
399374.000000
400310.000000
401197.000000
402042.000000
402916.000000
403842.000000
404721.000000
405553.000000
406414.000000
407271.000000
408080.000000
408885.000000
409755.000000
410612.000000
411398.000000
412218.000000
413083.000000
413891.000000
414709.000000
415551.000000
416344.000000
417125.000000
417964.000000
418782.000000
419558.000000
420379.000000
421227.000000
422029.000000
422819.000000
423648.000000
424460.000000
425243.000000
426071.000000
426916.000000
427732.000000
428497.000000
429284.000000
430115.000000
430943.000000
431727.000000
432533.000000
433367.000000
434225.000000
435031.000000
435858.000000
436726.000000
437546.000000
438391.000000
439271.000000
440144.000000
440949.000000
441800.000000
442659.000000
443455.000000
444256.000000
445140.000000
446031.000000
446827.000000
447642.000000
448517.000000
449332.000000
450121.000000
450940.000000
451808.000000
452609.000000
453425.000000
454258.000000
455072.000000
455921.000000
456809.000000
457781.000000
458645.000000
459516.000000
460379.000000
461211.000000
462089.000000
462979.000000
463786.000000
464624.000000
465586.000000
466544.000000
467432.000000
468363.000000
469294.000000
470149.000000
471104.000000
472167.000000
473121.000000
474030.000000
474949.000000
475882.000000
476817.000000
477802.000000
478784.000000
479727.000000
480730.000000
481693.000000
482563.000000
483457.000000
484322.000000
485129.000000
485996.000000
486926.000000
487754.000000
488632.000000
489551.000000
490386.000000
491263.000000
492134.000000
492998.000000
493834.000000
494698.000000
495582.000000
496427.000000
497257.000000
498149.000000
499070.000000
499905.000000
500748.000000
501628.000000
502520.000000
503337.000000
504195.000000
505100.000000
506005.000000
506866.000000
507798.000000
508793.000000
509692.000000
510529.000000
511383.000000
512239.000000
513037.000000
513882.000000
514791.000000
515683.000000
516511.000000
517373.000000
518251.000000
519070.000000
519909.000000
520829.000000
521703.000000
522510.000000
523354.000000
524308.000000
525243.000000
526099.000000
527014.000000
527948.000000
528860.000000
529684.000000
530507.000000
531349.000000
532228.000000
533077.000000
533884.000000
534776.000000
535699.000000
536624.000000
537485.000000
538403.000000
539381.000000
540294.000000
541146.000000
542021.000000
542937.000000
543764.000000
544589.000000
545448.000000
546348.000000
547208.000000
548160.000000
549198.000000
550122.000000
551018.000000
551902.000000
552703.000000
553541.000000
554462.000000
555362.000000
556204.000000
557067.000000
557907.000000
558723.000000
559581.000000
560497.000000
561331.000000
562129.000000
562970.000000
563863.000000
564682.000000
565517.000000
566376.000000
567215.000000
567998.000000
568817.000000
569678.000000
570479.000000
571287.000000
572141.000000
572994.000000
573795.000000
574595.000000
575425.000000
576238.000000
577011.000000
577808.000000
578677.000000
579556.000000
580365.000000
581183.000000
581997.000000
582758.000000
583524.000000
584330.000000
585135.000000
585912.000000
586687.000000
587501.000000
588333.000000
589136.000000
589962.000000
590811.000000
591630.000000
592409.000000
593222.000000
594054.000000
594879.000000
595645.000000
596443.000000
597269.000000
598096.000000
598883.000000
599718.000000
600555.000000
601360.000000
602121.000000
602896.000000
603699.000000
604468.000000
605218.000000
606040.000000
606890.000000
607700.000000
608486.000000
609299.000000
610121.000000
610890.000000
611688.000000
612510.000000
613283.000000
614052.000000
614870.000000
615693.000000
616484.000000
617316.000000
618220.000000
619094.000000
619892.000000
620727.000000
621577.000000
622358.000000
623113.000000
623938.000000
624806.000000
625609.000000
626397.000000
627232.000000
628075.000000
628890.000000
629724.000000
630560.000000
631360.000000
632121.000000
632923.000000
633749.000000
634555.000000
635312.000000
636091.000000
636920.000000
637788.000000
638594.000000
639377.000000
640203.000000
641002.000000
641769.000000
642589.000000
643440.000000
644246.000000
645070.000000
645938.000000
646804.000000
647605.000000
648435.000000
649266.000000
650069.000000
650839.000000
651629.000000
652505.000000
653338.000000
654204.000000
655151.000000
656059.000000
656897.000000
657755.000000
658628.000000
659430.000000
660277.000000
661201.000000
662137.000000
662992.000000
663922.000000
664980.000000
665976.000000
666860.000000
667750.000000
668652.000000
669563.000000
670402.000000
671305.000000
672280.000000
673213.000000
674111.000000
675033.000000
675969.000000
676841.000000
677742.000000
678660.000000
679539.000000
680374.000000
681218.000000
682130.000000
683013.000000
683821.000000
684669.000000
685515.000000
686289.000000
687070.000000
687883.000000
688717.000000
689500.000000
690272.000000
691058.000000
691873.000000
692640.000000
693404.000000
694238.000000
695102.000000
695950.000000
696741.000000
697573.000000
698451.000000
699307.000000
700118.000000
700996.000000
701899.000000
702731.000000
703561.000000
704432.000000
705272.000000
706061.000000
706872.000000
707739.000000
708518.000000
709303.000000
710165.000000
711057.000000
711862.000000
712677.000000
713522.000000
714347.000000
715138.000000
715960.000000
716827.000000
717638.000000
718471.000000
719333.000000
720149.000000
720952.000000
721708.000000
722425.000000
723132.000000
723845.000000
724555.000000
725345.000000
726212.000000
726995.000000
727777.000000
728636.000000
729502.000000
730299.000000
731082.000000
731906.000000
732859.000000
733775.000000
734679.000000
735632.000000
736593.000000
737430.000000
738331.000000
739235.000000
740037.000000
740869.000000
741892.000000
742862.000000
743742.000000
744703.000000
745669.000000
746534.000000
747424.000000
748381.000000
749288.000000
750157.000000
751033.000000
751908.000000
752727.000000
753588.000000
754461.000000
755312.000000
756154.000000
757080.000000
758018.000000
758850.000000
759690.000000
760584.000000
761450.000000
762257.000000
763120.000000
764042.000000
764906.000000
765673.000000
766406.000000
767246.000000
768269.000000
769239.000000
770163.000000
770965.000000
771760.000000
772597.000000
773429.000000
774326.000000
775241.000000
776079.000000
776984.000000
777893.000000
778736.000000
779543.000000
780346.000000
781096.000000
781826.000000
782523.000000
783224.000000
783994.000000
784773.000000
785569.000000
786435.000000
787310.000000
788115.000000
788937.000000
789770.000000
790581.000000
791343.000000
792114.000000
792923.000000
793760.000000
794556.000000
795367.000000
796268.000000
797157.000000
797976.000000
798870.000000
799783.000000
800625.000000
801526.000000
802402.000000
803221.000000
804054.000000
804927.000000
805738.000000
806563.000000
807464.000000
808308.000000
809150.000000
810006.000000
810805.000000
811644.000000
812495.000000
813294.000000
814063.000000
814904.000000
815825.000000
816688.000000
817591.000000
818556.000000
819515.000000
820378.000000
821252.000000
822137.000000
822960.000000
823793.000000
824671.000000
825607.000000
826458.000000
827326.000000
828272.000000
829104.000000
829934.000000
830798.000000
831679.000000
832511.000000
833376.000000
834291.000000
835179.000000
836003.000000
836854.000000
837711.000000
838508.000000
839330.000000
840210.000000
841072.000000
841881.000000
842742.000000
843739.000000
844652.000000
845501.000000
846372.000000
847300.000000
848160.000000
848996.000000
849943.000000
850935.000000
851873.000000
852907.000000
853958.000000
854983.000000
855882.000000
856786.000000
857711.000000
858575.000000
859441.000000
860451.000000
861483.000000
862385.000000
863351.000000
864354.000000
865266.000000
866078.000000
866907.000000
867787.000000
868737.000000
869664.000000
870510.000000
871469.000000
872481.000000
873376.000000
874214.000000
875082.000000
876022.000000
876850.000000
877707.000000
878577.000000
879403.000000
880209.000000
881088.000000
882004.000000
882826.000000
883661.000000
884551.000000
885442.000000
886262.000000
887095.000000
887992.000000
888808.000000
889588.000000
890377.000000
891232.000000
892116.000000
892951.000000
893780.000000
894662.000000
895536.000000
896360.000000
897220.000000
898084.000000
898888.000000
899709.000000
900583.000000
901452.000000
902266.000000
903098.000000
903967.000000
904826.000000
905616.000000
906431.000000
907329.000000
908222.000000
909031.000000
909893.000000
910777.000000
911689.000000
912501.000000
913314.000000
914158.000000
915003.000000
915792.000000
916631.000000
917537.000000
918386.000000
919157.000000
919964.000000
920787.000000
921572.000000
922374.000000
923202.000000
924012.000000
924785.000000
925595.000000
926440.000000
927281.000000
928136.000000
929058.000000
929933.000000
930755.000000
931584.000000
932406.000000
933168.000000
933948.000000
934763.000000
935553.000000
936351.000000
937179.000000
938002.000000
938801.000000
939632.000000
940448.000000
941207.000000
941996.000000
942827.000000
943621.000000
944400.000000
945242.000000
946105.000000
946926.000000
947697.000000
948495.000000
949313.000000
950128.000000
950889.000000
951671.000000
952489.000000
953286.000000
954044.000000
954777.000000
955559.000000
956399.000000
957203.000000
958003.000000
958843.000000
959707.000000
960500.000000
961339.000000
962217.000000
963058.000000
963857.000000
964716.000000
965590.000000
966408.000000
967279.000000
968223.000000
969083.000000
969929.000000
970795.000000
971650.000000
972433.000000
973247.000000
974082.000000
974885.000000
975670.000000
976498.000000
977371.000000
978249.000000
979077.000000
979962.000000
980934.000000
981795.000000
982663.000000
983548.000000
984346.000000
985101.000000
985920.000000
986847.000000
987774.000000
988701.000000
989731.000000
990707.000000
991594.000000
992511.000000
993439.000000
994298.000000
995178.000000
996033.000000
996867.000000
997805.000000
998848.000000
999851.000000
1000773.000000
1001757.000000
1002673.000000
1003486.000000
1004322.000000
1005168.000000
1005968.000000
1006772.000000
1007691.000000
1008617.000000
1009458.000000
1010348.000000
1011252.000000
1012083.000000
1012976.000000
1013874.000000
1014717.000000
1015490.000000
1016311.000000
1017257.000000
1018212.000000
1019093.000000
1020079.000000
1021082.000000
1021975.000000
1022898.000000
1023852.000000
1024706.000000
1025555.000000
1026476.000000
1027320.000000
1028215.000000
1029114.000000
1029927.000000
1030778.000000
1031805.000000
1032792.000000
1033682.000000
1034619.000000
1035591.000000
1036496.000000
1037498.000000
1038497.000000
1039373.000000
1040336.000000
1041285.000000
1042114.000000
1042998.000000
1043870.000000
1044672.000000
1045490.000000
1046352.000000
1047234.000000
1048072.000000
1048999.000000
1049973.000000
1050906.000000
1051866.000000
1052816.000000
1053649.000000
1054496.000000
1055311.000000
1056082.000000
1056919.000000
1057786.000000
1058625.000000
1059488.000000
1060366.000000
1061182.000000
1061990.000000
1062836.000000
1063684.000000
1064463.000000
1065289.000000
1066165.000000
1067007.000000
1067789.000000
1068570.000000
1069448.000000
1070325.000000
1071127.000000
1071946.000000
1072779.000000
1073558.000000
1074307.000000
1075065.000000
1075869.000000
1076677.000000
1077457.000000
1078273.000000
1079115.000000
1079905.000000
1080704.000000
1081533.000000
1082296.000000
1083032.000000
1083786.000000
1084609.000000
1085454.000000
1086253.000000
1087063.000000
1087917.000000
1088793.000000
1089571.000000
1090362.000000
1091175.000000
1092028.000000
1092800.000000
1093567.000000
1094385.000000
1095239.000000
1096052.000000
1096834.000000
1097655.000000
1098510.000000
1099326.000000
1100089.000000
1100915.000000
1101749.000000
1102538.000000
1103316.000000
1104140.000000
1104955.000000
1105731.000000
1106543.000000
1107369.000000
1108241.000000
1109057.000000
1109870.000000
1110704.000000
1111544.000000
1112323.000000
1113070.000000
1113843.000000
1114605.000000
1115328.000000
1116034.000000
1116706.000000
1117382.000000
1118067.000000
1118760.000000
1119481.000000
1120235.000000
1120985.000000
1121701.000000
1122447.000000
1123301.000000
1124164.000000
1124928.000000
1125687.000000
1126478.000000
1127284.000000
1128059.000000
1128835.000000
1129675.000000
1130495.000000
1131252.000000
1132051.000000
1132852.000000
1133640.000000
1134401.000000
1135211.000000
1136043.000000
1136803.000000
1137569.000000
1138395.000000
1139225.000000
1140027.000000
1140823.000000
1141643.000000
1142439.000000
1143201.000000
1144042.000000
1144903.000000
1145703.000000
1146459.000000
1147250.000000
1148057.000000
1148811.000000
1149567.000000
1150366.000000
1151164.000000
1151908.000000
1152683.000000
1153523.000000
1154346.000000
1155101.000000
1155895.000000
1156693.000000
1157453.000000
1158241.000000
1159043.000000
1159853.000000
1160671.000000
1161607.000000
1162539.000000
1163390.000000
1164301.000000
1165220.000000
1166070.000000
1166860.000000
1167714.000000
1168645.000000
1169465.000000
1170266.000000
1171156.000000
1171977.000000
1172754.000000
1173629.000000
1174574.000000
1175500.000000
1176327.000000
1177174.000000
1178081.000000
1178971.000000
1179767.000000
1180566.000000
1181385.000000
1182204.000000
1183023.000000
1183896.000000
1184873.000000
1185763.000000
1186528.000000
1187238.000000
1187951.000000
1188783.000000
1189780.000000
1190744.000000
1191720.000000
1192669.000000
1193605.000000
1194503.000000
1195335.000000
1196126.000000
1196975.000000
1197861.000000
1198821.000000
1199733.000000
1200620.000000
1201584.000000
1202497.000000
1203318.000000
1204131.000000
1204971.000000
1205841.000000
1206673.000000
1207564.000000
1208505.000000
1209345.000000
1210152.000000
1211004.000000
1211828.000000
1212616.000000
1213430.000000
1214286.000000
1215116.000000
1215948.000000
1216806.000000
1217645.000000
1218530.000000
1219416.000000
1220269.000000
1221096.000000
1221905.000000
1222727.000000
1223561.000000
1224358.000000
1225187.000000
1226050.000000
1226881.000000
1227669.000000
1228514.000000
1229342.000000
1230136.000000
1230947.000000
1231774.000000
1232623.000000
1233428.000000
1234220.000000
1235057.000000
1235898.000000
1236686.000000
1237495.000000
1238302.000000
1239094.000000
1239900.000000
1240738.000000
1241563.000000
1242358.000000
1243178.000000
1244029.000000
1244861.000000
1245648.000000
1246471.000000
1247284.000000
1248074.000000
1248851.000000
1249647.000000
1250470.000000
1251250.000000
1252050.000000
1252903.000000
1253757.000000
1254567.000000
1255422.000000
1256290.000000
1257112.000000
1257932.000000
1258778.000000
1259620.000000
1260402.000000
1261171.000000
1261966.000000
1262782.000000
1263580.000000
1264387.000000
1265214.000000
1266016.000000
1266777.000000
1267590.000000
1268436.000000
1269286.000000
1270083.000000
1270889.000000
1271697.000000
1272471.000000
1273248.000000
1274030.000000
1274848.000000
1275643.000000
1276441.000000
1277296.000000
1278136.000000
1278927.000000
1279717.000000
1280544.000000
1281322.000000
1282124.000000
1282981.000000
1283768.000000
1284558.000000
1285385.000000
1286242.000000
1287043.000000
1287858.000000
1288722.000000
1289544.000000
1290335.000000
1291175.000000
1292034.000000
1292867.000000
1293662.000000
1294494.000000
1295387.000000
1296204.000000
1297013.000000
1297837.000000
1298702.000000
1299525.000000
1300343.000000
1301184.000000
1302037.000000
1302833.000000
1303705.000000
1304615.000000
1305460.000000
1306256.000000
1307077.000000
1307917.000000
1308717.000000
1309483.000000
1310270.000000
1311118.000000
1311932.000000
1312738.000000
1313582.000000
1314424.000000
1315212.000000
1316041.000000
1316895.000000
1317776.000000
1318592.000000
1319407.000000
1320257.000000
1321093.000000
1321887.000000
1322736.000000
1323637.000000
1324507.000000
1325298.000000
1326089.000000
1326926.000000
1327804.000000
1328629.000000
1329495.000000
