ECG (ms)
903.000000
1905.000000
2812.000000
3804.000000
4972.000000
5918.000000
6918.000000
8212.000000
9265.000000
10370.000000
11393.000000
12275.000000
13224.000000
14457.000000
15482.000000
16453.000000
17572.000000
18605.000000
19582.000000
20794.000000
21776.000000
22775.000000
23838.000000
24755.000000
26112.000000
27225.000000
28395.000000
29533.000000
30459.000000
31499.000000
32513.000000
33525.000000
34733.000000
35775.000000
36904.000000
37855.000000
38798.000000
40052.000000
41114.000000
42160.000000
43303.000000
44248.000000
45546.000000
46730.000000
47795.000000
48662.000000
49557.000000
50917.000000
51963.000000
53124.000000
54351.000000
55348.000000
56512.000000
57551.000000
58572.000000
59734.000000
60660.000000
61711.000000
62731.000000
63696.000000
65002.000000
66107.000000
67306.000000
68304.000000
69372.000000
70474.000000
71486.000000
72805.000000
73808.000000
75017.000000
76015.000000
76992.000000
78226.000000
79249.000000
80430.000000
81514.000000
82538.000000
83648.000000
84617.000000
85672.000000
86718.000000
87710.000000
88945.000000
89940.000000
91055.000000
92071.000000
93024.000000
94401.000000
95476.000000
96745.000000
97803.000000
98990.000000
100005.000000
101132.000000
102154.000000
103168.000000
104362.000000
105187.000000
106011.000000
106909.000000
108236.000000
109257.000000
110484.000000
111566.000000
112624.000000
113779.000000
114675.000000
115641.000000
116824.000000
117739.000000
118985.000000
120076.000000
121161.000000
122323.000000
123262.000000
124392.000000
125443.000000
126420.000000
127616.000000
128655.000000
129778.000000
130816.000000
131684.000000
132632.000000
133841.000000
134854.000000
135776.000000
136992.000000
138135.000000
139112.000000
140042.000000
141184.000000
142302.000000
143180.000000
144280.000000
145468.000000
146417.000000
147572.000000
148759.000000
149709.000000
150619.000000
151927.000000
153134.000000
154143.000000
155386.000000
156416.000000
157347.000000
158604.000000
159603.000000
160812.000000
161940.000000
162912.000000
164136.000000
165111.000000
166332.000000
167364.000000
168310.000000
169400.000000
170432.000000
171424.000000
172693.000000
173727.000000
174832.000000
175825.000000
176744.000000
177867.000000
178878.000000
179850.000000
180934.000000
181904.000000
182869.000000
184007.000000
184966.000000
185978.000000
186962.000000
187871.000000
188824.000000
189734.000000
190607.000000
191847.000000
192878.000000
193933.000000
195005.000000
195969.000000
196860.000000
197884.000000
198939.000000
199840.000000
200841.000000
201908.000000
202809.000000
203801.000000
204779.000000
205724.000000
207080.000000
208157.000000
209363.000000
210474.000000
211477.000000
212623.000000
213593.000000
214555.000000
215785.000000
216726.000000
217888.000000
218963.000000
219867.000000
221097.000000
222082.000000
223103.000000
224239.000000
225189.000000
226320.000000
227273.000000
228231.000000
229439.000000
230400.000000
231543.000000
232571.000000
233537.000000
234733.000000
235652.000000
236770.000000
237865.000000
238789.000000
239988.000000
241016.000000
242125.000000
243264.000000
244126.000000
244965.000000
246182.000000
247166.000000
248141.000000
249376.000000
250461.000000
251484.000000
252685.000000
253621.000000
254869.000000
255997.000000
256998.000000
258256.000000
259216.000000
260442.000000
261528.000000
262439.000000
263529.000000
264555.000000
265472.000000
266697.000000
267730.000000
268723.000000
269906.000000
270904.000000
271952.000000
273002.000000
273943.000000
275067.000000
276083.000000
277034.000000
278139.000000
279186.000000
280204.000000
281297.000000
282231.000000
283246.000000
284321.000000
285278.000000
286506.000000
287500.000000
288562.000000
289577.000000
290503.000000
291579.000000
292531.000000
293555.000000
294730.000000
295705.000000
296860.000000
297859.000000
298766.000000
299830.000000
300777.000000
301719.000000
302949.000000
303961.000000
304973.000000
306000.000000
306858.000000
307801.000000
308912.000000
309772.000000
310630.000000
311458.000000
312478.000000
313683.000000
314736.000000
315805.000000
316749.000000
317866.000000
318976.000000
319966.000000
321128.000000
322156.000000
323158.000000
324299.000000
325266.000000
326527.000000
327686.000000
328688.000000
329830.000000
330831.000000
331948.000000
333002.000000
333978.000000
335021.000000
336068.000000
336982.000000
338038.000000
339184.000000
340121.000000
341144.000000
342158.000000
343105.000000
344203.000000
345188.000000
346115.000000
347158.000000
348075.000000
349170.000000
350300.000000
351256.000000
352299.000000
353327.000000
354236.000000
355307.000000
356430.000000
357393.000000
358474.000000
359606.000000
360530.000000
361475.000000
362748.000000
363720.000000
364780.000000
365931.000000
366846.000000
367972.000000
368970.000000
369886.000000
371118.000000
372209.000000
373158.000000
374185.000000
375154.000000
376072.000000
377089.000000
378059.000000
379014.000000
380066.000000
380992.000000
382006.000000
383040.000000
383952.000000
384998.000000
386095.000000
387035.000000
388054.000000
389039.000000
389936.000000
391002.000000
391982.000000
392929.000000
394005.000000
394944.000000
395925.000000
397063.000000
397999.000000
399002.000000
400001.000000
400899.000000
402007.000000
403013.000000
403987.000000
405135.000000
406122.000000
407063.000000
408076.000000
409021.000000
409942.000000
411030.000000
412032.000000
412930.000000
413927.000000
415042.000000
416000.000000
417024.000000
418151.000000
419133.000000
420227.000000
421364.000000
422297.000000
423325.000000
424382.000000
425278.000000
426352.000000
427417.000000
428376.000000
429532.000000
430656.000000
431622.000000
432719.000000
433733.000000
434660.000000
435741.000000
436698.000000
437659.000000
438832.000000
439861.000000
440784.000000
441781.000000
442744.000000
443639.000000
444819.000000
445891.000000
446899.000000
448026.000000
448977.000000
450013.000000
451130.000000
452087.000000
453347.000000
454442.000000
455381.000000
456591.000000
457758.000000
458701.000000
460013.000000
461149.000000
462238.000000
463365.000000
464504.000000
465708.000000
466767.000000
467749.000000
468979.000000
470065.000000
471210.000000
472432.000000
473367.000000
474632.000000
475730.000000
476944.000000
478140.000000
479183.000000
480488.000000
481490.000000
482525.000000
483740.000000
484725.000000
485973.000000
487063.000000
488080.000000
489320.000000
490268.000000
491390.000000
492572.000000
493557.000000
494854.000000
495844.000000
496880.000000
498191.000000
499157.000000
500486.000000
501719.000000
502712.000000
503617.000000
504905.000000
506134.000000
507133.000000
508406.000000
509591.000000
510703.000000
511631.000000
512865.000000
514024.000000
515128.000000
516048.000000
517218.000000
518231.000000
519166.000000
520438.000000
521465.000000
522633.000000
523759.000000
524691.000000
525967.000000
526996.000000
528153.000000
529271.000000
530144.000000
531381.000000
532447.000000
533419.000000
534684.000000
535681.000000
536835.000000
537948.000000
538861.000000
540010.000000
541069.000000
542118.000000
543306.000000
544276.000000
545302.000000
546369.000000
547257.000000
548488.000000
549557.000000
550510.000000
551697.000000
552717.000000
553669.000000
554876.000000
555857.000000
557014.000000
558060.000000
558966.000000
560129.000000
561195.000000
562140.000000
563351.000000
564408.000000
565398.000000
566559.000000
567471.000000
568429.000000
569602.000000
570512.000000
571739.000000
572777.000000
573837.000000
574970.000000
575901.000000
576935.000000
578054.000000
578964.000000
580132.000000
581215.000000
582215.000000
583403.000000
584382.000000
585380.000000
586429.000000
587290.000000
588390.000000
589516.000000
590525.000000
591669.000000
592662.000000
593640.000000
594718.000000
595638.000000
596630.000000
597712.000000
598601.000000
599651.000000
600687.000000
601618.000000
602517.000000
603452.000000
604327.000000
605596.000000
606696.000000
607608.000000
608677.000000
609648.000000
610680.000000
611852.000000
612899.000000
613980.000000
614957.000000
615942.000000
617150.000000
618182.000000
619280.000000
620431.000000
621314.000000
622389.000000
623469.000000
624404.000000
625418.000000
626264.000000
627123.000000
628625.000000
629887.000000
631111.000000
632238.000000
633164.000000
634369.000000
635570.000000
636655.000000
637590.000000
638616.000000
639844.000000
640924.000000
641955.000000
643081.000000
644094.000000
645072.000000
646300.000000
647255.000000
648504.000000
649613.000000
650687.000000
651886.000000
652874.000000
653956.000000
655132.000000
656098.000000
657385.000000
658437.000000
659494.000000
660654.000000
661595.000000
662878.000000
663900.000000
664914.000000
666218.000000
667243.000000
668530.000000
669567.000000
670625.000000
671843.000000
672810.000000
674059.000000
675142.000000
676263.000000
677423.000000
678378.000000
679452.000000
680422.000000
681434.000000
682715.000000
683902.000000
685105.000000
686130.000000
687309.000000
688317.000000
689398.000000
690576.000000
691489.000000
692751.000000
693666.000000
694568.000000
695867.000000
696863.000000
697946.000000
699075.000000
700052.000000
701213.000000
702371.000000
703315.000000
704432.000000
705532.000000
706532.000000
707745.000000
708811.000000
709751.000000
710940.000000
712005.000000
712975.000000
714181.000000
715122.000000
716151.000000
717371.000000
718352.000000
719478.000000
720517.000000
721432.000000
722563.000000
723619.000000
724547.000000
725601.000000
726696.000000
727628.000000
728659.000000
729709.000000
730630.000000
731738.000000
732710.000000
733603.000000
734864.000000
735972.000000
737140.000000
738135.000000
739280.000000
740422.000000
741421.000000
742596.000000
743577.000000
744770.000000
745891.000000
746843.000000
748070.000000
749134.000000
750071.000000
751311.000000
752241.000000
753253.000000
754496.000000
755448.000000
756749.000000
757839.000000
758973.000000
760147.000000
761108.000000
762227.000000
763482.000000
764502.000000
765777.000000
766846.000000
767927.000000
769091.000000
770053.000000
771289.000000
772439.000000
773407.000000
774685.000000
775725.000000
776722.000000
777858.000000
778829.000000
780015.000000
781213.000000
782216.000000
783373.000000
784389.000000
785362.000000
786490.000000
787512.000000
788598.000000
789780.000000
790780.000000
791936.000000
792969.000000
793974.000000
795277.000000
796328.000000
797556.000000
798609.000000
799524.000000
800908.000000
801871.000000
803250.000000
804336.000000
805477.000000
806671.000000
807650.000000
808923.000000
810011.000000
811256.000000
812311.000000
813394.000000
814598.000000
815656.000000
816793.000000
817803.000000
818724.000000
819969.000000
821032.000000
822036.000000
823329.000000
824401.000000
825682.000000
826705.000000
827703.000000
828956.000000
829937.000000
831100.000000
832147.000000
833084.000000
834143.000000
835133.000000
836080.000000
837313.000000
838321.000000
839353.000000
840431.000000
841345.000000
842547.000000
843554.000000
844529.000000
845696.000000
846649.000000
847689.000000
848765.000000
849691.000000
850758.000000
851771.000000
852708.000000
853851.000000
854813.000000
855782.000000
856874.000000
857814.000000
858909.000000
859962.000000
860900.000000
861987.000000
862964.000000
863901.000000
864958.000000
865910.000000
866899.000000
867925.000000
868830.000000
869804.000000
870787.000000
871715.000000
872789.000000
873870.000000
874843.000000
876007.000000
877036.000000
877949.000000
879017.000000
880009.000000
881000.000000
882259.000000
883290.000000
884470.000000
885447.000000
886251.000000
887038.000000
888454.000000
889629.000000
890615.000000
891864.000000
893003.000000
893899.000000
894706.000000
895641.000000
896682.000000
897630.000000
898812.000000
899973.000000
900915.000000
901874.000000
903071.000000
904195.000000
905155.000000
906219.000000
907424.000000
908407.000000
909580.000000
910702.000000
911778.000000
913089.000000
914056.000000
915386.000000
916469.000000
917743.000000
918896.000000
919951.000000
921211.000000
922201.000000
923404.000000
924592.000000
925598.000000
926861.000000
927906.000000
929129.000000
930311.000000
931281.000000
932548.000000
933636.000000
934781.000000
936013.000000
936998.000000
938273.000000
939353.000000
940591.000000
941898.000000
943001.000000
944293.000000
945441.000000
946608.000000
947853.000000
948864.000000
950161.000000
951280.000000
952407.000000
953730.000000
954768.000000
956075.000000
957192.000000
958340.000000
959505.000000
960444.000000
961684.000000
962803.000000
963809.000000
965152.000000
966267.000000
967401.000000
968621.000000
969581.000000
970759.000000
971856.000000
972909.000000
974213.000000
975277.000000
976516.000000
977736.000000
978867.000000
980145.000000
981211.000000
982402.000000
983532.000000
984566.000000
985903.000000
986910.000000
988019.000000
989286.000000
990250.000000
991605.000000
992746.000000
993998.000000
995189.000000
996356.000000
997604.000000
998643.000000
999759.000000
1001018.000000
1002001.000000
1003292.000000
1004451.000000
1005426.000000
1006725.000000
1007848.000000
1009013.000000
1010225.000000
1011169.000000
1012341.000000
1013415.000000
1014653.000000
1015874.000000
1017114.000000
1018316.000000
1019453.000000
1020602.000000
1021745.000000
1022728.000000
1024004.000000
1025050.000000
1026102.000000
1027348.000000
1028360.000000
1029606.000000
1030745.000000
1031801.000000
1033015.000000
1034015.000000
1035148.000000
1036264.000000
1037288.000000
1038584.000000
1039575.000000
1040830.000000
1041857.000000
1042955.000000
1044214.000000
1045191.000000
1046343.000000
1047455.000000
1048524.000000
1049757.000000
1050743.000000
1051945.000000
1053031.000000
1054016.000000
1055274.000000
1056303.000000
1057318.000000
1058567.000000
1059521.000000
1060310.000000
1061065.000000
1062527.000000
1063749.000000
1064964.000000
1066049.000000
1067211.000000
1068354.000000
1069370.000000
1070554.000000
1071694.000000
1072871.000000
1074009.000000
1075130.000000
1076285.000000
1077331.000000
1078270.000000
1079481.000000
1080545.000000
1081406.000000
1082714.000000
1083807.000000
1084733.000000
1086157.000000
1087239.000000
1088536.000000
1089555.000000
1090860.000000
1092055.000000
1093052.000000
1094487.000000
1095484.000000
1096838.000000
1097888.000000
1099156.000000
1100330.000000
1101355.000000
1102532.000000
1103571.000000
1104569.000000
1105901.000000
1106970.000000
1108213.000000
1109309.000000
1110390.000000
1111678.000000
1112716.000000
1113871.000000
1114969.000000
1115925.000000
1117235.000000
1118368.000000
1119461.000000
1120731.000000
1121828.000000
1123058.000000
1124143.000000
1125341.000000
1126544.000000
1127509.000000
1128824.000000
1129969.000000
1131008.000000
1132350.000000
1133453.000000
1134657.000000
1135740.000000
1136769.000000
1138114.000000
1139177.000000
1140430.000000
1141404.000000
1142631.000000
1143715.000000
1144730.000000
1146114.000000
1147245.000000
1148542.000000
1149575.000000
1150666.000000
1151909.000000
1152836.000000
1154117.000000
1155203.000000
1156295.000000
1157284.000000
1158125.000000
1159536.000000
1160798.000000
1161899.000000
1163143.000000
1164285.000000
1165417.000000
1166604.000000
1167686.000000
1168887.000000
1170068.000000
1171163.000000
1172401.000000
1173572.000000
1174628.000000
1175849.000000
1176991.000000
1178246.000000
1179432.000000
1180548.000000
1181851.000000
1182904.000000
1184174.000000
1185338.000000
1186480.000000
1187810.000000
1188823.000000
1190040.000000
1191297.000000
1192203.000000
1193604.000000
1194802.000000
1195754.000000
1197102.000000
1198190.000000
1199407.000000
1200629.000000
1201668.000000
1202892.000000
1204017.000000
1205106.000000
1206344.000000
1207369.000000
1208657.000000
1209783.000000
1210938.000000
1212210.000000
1213172.000000
1214499.000000
1215641.000000
1216841.000000
1218080.000000
1219094.000000
1220384.000000
1221463.000000
1222514.000000
1223786.000000
1224867.000000
1226120.000000
1227255.000000
1228437.000000
1229675.000000
1230642.000000
1231901.000000
1233078.000000
1234279.000000
1235606.000000
1236705.000000
1238021.000000
1239039.000000
1240332.000000
1241524.000000
1242699.000000
1244007.000000
1245043.000000
1246297.000000
1247488.000000
1248515.000000
1249817.000000
1250866.000000
1252036.000000
1253292.000000
1254284.000000
1255541.000000
1256647.000000
1257730.000000
1259045.000000
1260062.000000
1261085.000000
1262318.000000
1263256.000000
1264548.000000
1265714.000000
1266814.000000
1267976.000000
1268915.000000
1270204.000000
1271230.000000
1272376.000000
1273553.000000
1274538.000000
1275740.000000
1276871.000000
1277872.000000
1279154.000000
1280219.000000
1281349.000000
1282622.000000
1283699.000000
1284936.000000
1286034.000000
1287192.000000
1288354.000000
1289298.000000
1290554.000000
1291583.000000
1292764.000000
