ECG (ms)
480.000000
1145.000000
1838.000000
2520.000000
3202.000000
3912.000000
4650.000000
5386.000000
6081.000000
6800.000000
7581.000000
8330.000000
9025.000000
9702.000000
10367.000000
11001.000000
11636.000000
12330.000000
13055.000000
13754.000000
14469.000000
15215.000000
15950.000000
16640.000000
17330.000000
18030.000000
18756.000000
19451.000000
20144.000000
20899.000000
21683.000000
22462.000000
23202.000000
23937.000000
24683.000000
25438.000000
26166.000000
26898.000000
27651.000000
28403.000000
29138.000000
29870.000000
30611.000000
31349.000000
32068.000000
32783.000000
33499.000000
34203.000000
34903.000000
35615.000000
36372.000000
37088.000000
37786.000000
38492.000000
39225.000000
39956.000000
40653.000000
41373.000000
42121.000000
42858.000000
43553.000000
44244.000000
44970.000000
45685.000000
46378.000000
47082.000000
47845.000000
48642.000000
49357.000000
50065.000000
50807.000000
51546.000000
52274.000000
52981.000000
53700.000000
54455.000000
55254.000000
56001.000000
56742.000000
57503.000000
58267.000000
58991.000000
59717.000000
60481.000000
61297.000000
62061.000000
62805.000000
63527.000000
64262.000000
65006.000000
65689.000000
66340.000000
67023.000000
67724.000000
68416.000000
69089.000000
69785.000000
70590.000000
71352.000000
72071.000000
72769.000000
73495.000000
74271.000000
75023.000000
75752.000000
76510.000000
77288.000000
78103.000000
78845.000000
79576.000000
80345.000000
81108.000000
81825.000000
82549.000000
83279.000000
84010.000000
84704.000000
85402.000000
86129.000000
86858.000000
87544.000000
88216.000000
88922.000000
89646.000000
90325.000000
90994.000000
91715.000000
92424.000000
93101.000000
93785.000000
94502.000000
95235.000000
95919.000000
96580.000000
97250.000000
97936.000000
98610.000000
99268.000000
99912.000000
100577.000000
101317.000000
102053.000000
102752.000000
103432.000000
104124.000000
104861.000000
105581.000000
106278.000000
106951.000000
107630.000000
108341.000000
109071.000000
109761.000000
110437.000000
111132.000000
111879.000000
112672.000000
113404.000000
114098.000000
114788.000000
115507.000000
116242.000000
116944.000000
117636.000000
118367.000000
119164.000000
119907.000000
120606.000000
121284.000000
121965.000000
122627.000000
123249.000000
123901.000000
124796.000000
125572.000000
126298.000000
127002.000000
127751.000000
128529.000000
129308.000000
130034.000000
130771.000000
131530.000000
132331.000000
133133.000000
133864.000000
134597.000000
135382.000000
136145.000000
136869.000000
137593.000000
138361.000000
139152.000000
139936.000000
140678.000000
141396.000000
142122.000000
142903.000000
143707.000000
144464.000000
145200.000000
145948.000000
146690.000000
147391.000000
148086.000000
148826.000000
149598.000000
150329.000000
151035.000000
151742.000000
152478.000000
153209.000000
153890.000000
154554.000000
155234.000000
156010.000000
156828.000000
157589.000000
158367.000000
159163.000000
159960.000000
160708.000000
161456.000000
162221.000000
162989.000000
163723.000000
164437.000000
165168.000000
165950.000000
166776.000000
167564.000000
168328.000000
169069.000000
169828.000000
170606.000000
171348.000000
172070.000000
172779.000000
173511.000000
174289.000000
175047.000000
175780.000000
176523.000000
177320.000000
178102.000000
178818.000000
179520.000000
180219.000000
180981.000000
181799.000000
182578.000000
183316.000000
184045.000000
184803.000000
185590.000000
186414.000000
187172.000000
187907.000000
188658.000000
189401.000000
190125.000000
190838.000000
191545.000000
192298.000000
193123.000000
193922.000000
194673.000000
195389.000000
196082.000000
196782.000000
197522.000000
198342.000000
199129.000000
199893.000000
200635.000000
201444.000000
202240.000000
202984.000000
203686.000000
204368.000000
205050.000000
205756.000000
206477.000000
207186.000000
207880.000000
208575.000000
209291.000000
210057.000000
210755.000000
211455.000000
212178.000000
212929.000000
213671.000000
214380.000000
215084.000000
215822.000000
216576.000000
217287.000000
217983.000000
218670.000000
219375.000000
220123.000000
220897.000000
221624.000000
222344.000000
223103.000000
223853.000000
224609.000000
225324.000000
226039.000000
226776.000000
227529.000000
228264.000000
228981.000000
229707.000000
230458.000000
231255.000000
231986.000000
232693.000000
233417.000000
234160.000000
234910.000000
235637.000000
236360.000000
237088.000000
237877.000000
238635.000000
239352.000000
240062.000000
240799.000000
241555.000000
242295.000000
242996.000000
243677.000000
244387.000000
245137.000000
245895.000000
246610.000000
247313.000000
248024.000000
248771.000000
249524.000000
250258.000000
250958.000000
251652.000000
252358.000000
253071.000000
253786.000000
254486.000000
255174.000000
255879.000000
256646.000000
257409.000000
258137.000000
258838.000000
259543.000000
260270.000000
261016.000000
261753.000000
262469.000000
263200.000000
263945.000000
264669.000000
265364.000000
266053.000000
266756.000000
267520.000000
268382.000000
269185.000000
269936.000000
270668.000000
271407.000000
272154.000000
272876.000000
273587.000000
274331.000000
275093.000000
275815.000000
276474.000000
277130.000000
277819.000000
278496.000000
279164.000000
279842.000000
280552.000000
281261.000000
281958.000000
282631.000000
283291.000000
283946.000000
284645.000000
285377.000000
286117.000000
286824.000000
287541.000000
288308.000000
289062.000000
289787.000000
290485.000000
291180.000000
291905.000000
292662.000000
293428.000000
294143.000000
294842.000000
295535.000000
296267.000000
297037.000000
297789.000000
298514.000000
299224.000000
299949.000000
300721.000000
301477.000000
302206.000000
302931.000000
303705.000000
304497.000000
305246.000000
306001.000000
306761.000000
307561.000000
308327.000000
309047.000000
309756.000000
310463.000000
311222.000000
312018.000000
312763.000000
313501.000000
314241.000000
315005.000000
315780.000000
316516.000000
317240.000000
317933.000000
318619.000000
319317.000000
320059.000000
320880.000000
321674.000000
322415.000000
323167.000000
323944.000000
324756.000000
325602.000000
326382.000000
327105.000000
327805.000000
328486.000000
329201.000000
329907.000000
330597.000000
331307.000000
332067.000000
332771.000000
333456.000000
334107.000000
334744.000000
335374.000000
335998.000000
336603.000000
337204.000000
337818.000000
338436.000000
339045.000000
339685.000000
340357.000000
341005.000000
341641.000000
342292.000000
342951.000000
343608.000000
344251.000000
344891.000000
345518.000000
346135.000000
346759.000000
347440.000000
348419.000000
349176.000000
349904.000000
350667.000000
351406.000000
352132.000000
352847.000000
353568.000000
354272.000000
354943.000000
355592.000000
356246.000000
356875.000000
357533.000000
358273.000000
359016.000000
359748.000000
360482.000000
361222.000000
361927.000000
362637.000000
363338.000000
364076.000000
365110.000000
365982.000000
366744.000000
367468.000000
368183.000000
368956.000000
369833.000000
370670.000000
371532.000000
372372.000000
373173.000000
373935.000000
374653.000000
375354.000000
376071.000000
376911.000000
377708.000000
378500.000000
379233.000000
379917.000000
380612.000000
381419.000000
382182.000000
382904.000000
383610.000000
384329.000000
385117.000000
385939.000000
386780.000000
387595.000000
388330.000000
389039.000000
389761.000000
390585.000000
391406.000000
392226.000000
392990.000000
393744.000000
394501.000000
395238.000000
395970.000000
396764.000000
397649.000000
398466.000000
399259.000000
400024.000000
400776.000000
401549.000000
402330.000000
403064.000000
403782.000000
404548.000000
405359.000000
406145.000000
406914.000000
407647.000000
408368.000000
409100.000000
409816.000000
410524.000000
411270.000000
412056.000000
412836.000000
413559.000000
414271.000000
414964.000000
415612.000000
416260.000000
416941.000000
417623.000000
418297.000000
419039.000000
419860.000000
420626.000000
421367.000000
422089.000000
422785.000000
423471.000000
424203.000000
424988.000000
425766.000000
426530.000000
427265.000000
428015.000000
428789.000000
429519.000000
430236.000000
430977.000000
431776.000000
432557.000000
433343.000000
434077.000000
434816.000000
435597.000000
436398.000000
437159.000000
437886.000000
438636.000000
439427.000000
440311.000000
441104.000000
441852.000000
442577.000000
443315.000000
444055.000000
444801.000000
445528.000000
446278.000000
447051.000000
447857.000000
448621.000000
449343.000000
450051.000000
450756.000000
451471.000000
452201.000000
452900.000000
453592.000000
454303.000000
455043.000000
455748.000000
456437.000000
457113.000000
457792.000000
458490.000000
459189.000000
459888.000000
460562.000000
461227.000000
461901.000000
462576.000000
463263.000000
463927.000000
464576.000000
465241.000000
465907.000000
466586.000000
467252.000000
467918.000000
468586.000000
469280.000000
469977.000000
470651.000000
471303.000000
471952.000000
472638.000000
473339.000000
474059.000000
474803.000000
475542.000000
476253.000000
476934.000000
477605.000000
478289.000000
478974.000000
479636.000000
480293.000000
480946.000000
481646.000000
482420.000000
483176.000000
483884.000000
484577.000000
485285.000000
485991.000000
486694.000000
487372.000000
488043.000000
488726.000000
489474.000000
490221.000000
490968.000000
491682.000000
492375.000000
493065.000000
493787.000000
494513.000000
495238.000000
495937.000000
496623.000000
497315.000000
498045.000000
498783.000000
499478.000000
500169.000000
500873.000000
501610.000000
502351.000000
503051.000000
503746.000000
504438.000000
505150.000000
505874.000000
506566.000000
507249.000000
507930.000000
508625.000000
509336.000000
510068.000000
510764.000000
511467.000000
512181.000000
512913.000000
513610.000000
514282.000000
514939.000000
515591.000000
516286.000000
517048.000000
517751.000000
518401.000000
519027.000000
519657.000000
520311.000000
521030.000000
521757.000000
522436.000000
523104.000000
523805.000000
524551.000000
525309.000000
526034.000000
526714.000000
527376.000000
528008.000000
528626.000000
529272.000000
530025.000000
530785.000000
531469.000000
532130.000000
532784.000000
533452.000000
534101.000000
534751.000000
535376.000000
535983.000000
536606.000000
537290.000000
537947.000000
538600.000000
539293.000000
540250.000000
541032.000000
541731.000000
542409.000000
543085.000000
543806.000000
544538.000000
545235.000000
545921.000000
546611.000000
547344.000000
548093.000000
548814.000000
549515.000000
550249.000000
551027.000000
551788.000000
552507.000000
553204.000000
553881.000000
554581.000000
555312.000000
556038.000000
556730.000000
557425.000000
558141.000000
558876.000000
559585.000000
560282.000000
561009.000000
561728.000000
562450.000000
563154.000000
563845.000000
564545.000000
565302.000000
566104.000000
566850.000000
567574.000000
568303.000000
569025.000000
569766.000000
570463.000000
571144.000000
571834.000000
572552.000000
573257.000000
573957.000000
574672.000000
575529.000000
576331.000000
577081.000000
577797.000000
578490.000000
579179.000000
579926.000000
580696.000000
581473.000000
582214.000000
582935.000000
583651.000000
584405.000000
585210.000000
586000.000000
586781.000000
587521.000000
588256.000000
588980.000000
589723.000000
590505.000000
591296.000000
592076.000000
592797.000000
593485.000000
594139.000000
594756.000000
595379.000000
596076.000000
596831.000000
597578.000000
598375.000000
599245.000000
600069.000000
600826.000000
