ECG (ms)
37.000000
786.000000
1500.000000
2211.000000
2974.000000
3746.000000
4507.000000
5246.000000
6000.000000
6794.000000
7528.000000
8258.000000
8976.000000
9745.000000
10528.000000
11280.000000
12046.000000
12837.000000
13610.000000
14382.000000
15095.000000
15800.000000
16530.000000
17290.000000
18033.000000
18800.000000
19599.000000
20378.000000
21142.000000
21881.000000
22598.000000
23270.000000
23956.000000
24639.000000
25316.000000
26019.000000
26756.000000
27478.000000
28164.000000
28847.000000
29578.000000
30370.000000
31127.000000
31859.000000
32612.000000
33394.000000
34172.000000
34913.000000
35631.000000
36364.000000
37163.000000
38021.000000
38804.000000
39563.000000
40380.000000
41221.000000
41987.000000
42730.000000
43496.000000
44298.000000
45050.000000
45791.000000
46604.000000
47474.000000
48290.000000
49087.000000
49964.000000
50821.000000
51586.000000
52328.000000
53134.000000
53936.000000
54683.000000
55462.000000
56519.000000
57435.000000
58224.000000
59020.000000
59839.000000
60630.000000
61390.000000
62175.000000
63000.000000
63807.000000
64586.000000
65396.000000
66253.000000
67097.000000
67876.000000
68675.000000
69498.000000
70281.000000
71032.000000
71820.000000
72686.000000
73521.000000
74288.000000
75067.000000
75842.000000
76620.000000
77389.000000
78177.000000
79022.000000
79873.000000
80687.000000
81636.000000
82567.000000
83403.000000
84156.000000
84908.000000
85657.000000
86429.000000
87189.000000
88016.000000
89028.000000
89937.000000
90704.000000
91435.000000
92147.000000
92843.000000
93545.000000
94278.000000
95095.000000
95906.000000
96645.000000
97396.000000
98180.000000
98976.000000
99720.000000
100457.000000
101201.000000
101999.000000
102786.000000
103546.000000
104385.000000
105225.000000
105990.000000
106729.000000
107492.000000
108254.000000
109013.000000
109750.000000
110465.000000
111205.000000
111999.000000
112753.000000
113458.000000
114145.000000
114839.000000
115551.000000
116255.000000
116948.000000
117666.000000
118475.000000
119254.000000
119973.000000
120691.000000
121412.000000
122129.000000
122812.000000
123478.000000
124135.000000
124779.000000
125409.000000
126030.000000
126713.000000
127412.000000
128133.000000
128886.000000
129620.000000
130316.000000
130993.000000
131686.000000
132380.000000
133051.000000
133712.000000
134377.000000
135054.000000
135764.000000
136460.000000
137169.000000
137903.000000
138625.000000
139321.000000
140006.000000
140693.000000
141397.000000
142093.000000
142785.000000
143489.000000
144206.000000
144916.000000
145603.000000
146307.000000
147055.000000
147811.000000
148515.000000
149204.000000
149892.000000
150573.000000
151247.000000
151925.000000
152636.000000
153432.000000
154190.000000
154904.000000
155596.000000
156299.000000
157010.000000
157694.000000
158370.000000
159073.000000
159855.000000
160640.000000
161390.000000
162111.000000
162851.000000
163618.000000
164379.000000
165107.000000
165816.000000
166561.000000
167314.000000
168030.000000
168729.000000
169448.000000
170183.000000
170899.000000
171609.000000
172354.000000
173108.000000
173826.000000
174518.000000
175232.000000
176022.000000
176788.000000
177500.000000
178214.000000
178948.000000
179685.000000
180406.000000
181117.000000
181839.000000
182573.000000
183283.000000
183965.000000
184659.000000
185393.000000
186115.000000
186825.000000
187583.000000
188413.000000
189250.000000
189993.000000
190733.000000
191476.000000
192181.000000
192878.000000
193586.000000
194307.000000
195030.000000
195745.000000
196482.000000
197225.000000
197934.000000
198641.000000
199380.000000
200154.000000
200896.000000
201607.000000
202331.000000
203076.000000
203806.000000
204509.000000
205217.000000
205958.000000
206694.000000
207402.000000
208120.000000
208853.000000
209587.000000
210308.000000
211058.000000
211867.000000
212654.000000
213423.000000
214169.000000
214912.000000
215694.000000
216424.000000
217126.000000
217827.000000
218563.000000
219339.000000
220086.000000
220836.000000
221623.000000
222421.000000
223163.000000
223893.000000
224633.000000
225345.000000
226033.000000
226743.000000
227477.000000
228235.000000
228987.000000
229771.000000
230539.000000
231271.000000
231981.000000
232704.000000
233451.000000
234179.000000
234883.000000
235580.000000
236306.000000
237063.000000
237804.000000
238528.000000
239292.000000
240081.000000
240829.000000
241569.000000
242318.000000
243058.000000
243770.000000
244496.000000
245268.000000
246053.000000
246807.000000
247566.000000
248333.000000
249139.000000
249906.000000
250661.000000
251471.000000
252296.000000
253087.000000
253844.000000
254617.000000
255446.000000
256306.000000
257085.000000
257813.000000
258555.000000
259406.000000
260230.000000
260977.000000
261733.000000
262563.000000
263356.000000
264086.000000
264806.000000
265543.000000
266265.000000
266976.000000
267674.000000
268371.000000
269071.000000
269919.000000
270783.000000
271536.000000
272247.000000
272984.000000
273796.000000
274657.000000
275431.000000
276173.000000
276958.000000
277809.000000
278681.000000
279448.000000
280235.000000
281185.000000
282054.000000
282805.000000
283542.000000
284326.000000
285247.000000
286042.000000
286780.000000
287531.000000
288357.000000
289177.000000
289935.000000
290686.000000
291468.000000
292248.000000
292991.000000
293720.000000
294482.000000
295287.000000
296083.000000
296837.000000
297555.000000
298305.000000
299181.000000
299961.000000
300683.000000
301391.000000
302130.000000
302894.000000
303636.000000
304373.000000
305162.000000
305955.000000
306719.000000
307453.000000
308184.000000
308928.000000
309655.000000
310348.000000
311037.000000
311754.000000
312541.000000
313289.000000
314012.000000
314701.000000
315397.000000
316135.000000
316852.000000
317550.000000
318285.000000
319076.000000
319825.000000
320550.000000
321303.000000
322039.000000
322770.000000
323462.000000
324137.000000
324805.000000
325477.000000
326178.000000
326885.000000
327569.000000
328274.000000
329009.000000
329748.000000
330450.000000
331155.000000
331877.000000
332604.000000
333296.000000
333992.000000
334700.000000
335433.000000
336161.000000
336893.000000
337670.000000
338492.000000
339249.000000
339991.000000
340747.000000
341477.000000
342179.000000
342866.000000
343569.000000
344628.000000
345589.000000
346418.000000
347199.000000
348007.000000
348840.000000
349643.000000
350404.000000
351152.000000
351951.000000
352814.000000
353661.000000
354451.000000
355236.000000
356050.000000
356844.000000
357618.000000
358342.000000
359061.000000
359755.000000
360497.000000
361228.000000
361952.000000
362791.000000
363649.000000
364398.000000
365123.000000
365867.000000
366624.000000
367354.000000
368053.000000
368763.000000
369516.000000
370320.000000
371084.000000
371829.000000
372659.000000
373523.000000
374279.000000
374997.000000
375730.000000
376498.000000
377259.000000
377999.000000
378809.000000
379712.000000
380507.000000
381248.000000
381986.000000
382722.000000
383437.000000
384143.000000
384877.000000
385648.000000
386402.000000
387126.000000
387883.000000
388673.000000
389446.000000
390240.000000
390974.000000
391662.000000
392327.000000
392985.000000
393635.000000
394639.000000
395426.000000
396188.000000
396992.000000
397817.000000
398578.000000
399317.000000
400054.000000
400784.000000
401522.000000
402231.000000
402933.000000
403690.000000
404470.000000
405207.000000
405929.000000
406688.000000
407458.000000
408224.000000
408967.000000
409785.000000
410615.000000
411363.000000
412074.000000
412792.000000
413529.000000
414281.000000
415028.000000
415768.000000
416627.000000
417544.000000
418322.000000
419037.000000
419776.000000
420533.000000
421264.000000
421967.000000
422674.000000
423427.000000
424224.000000
424972.000000
425713.000000
426485.000000
427287.000000
428061.000000
428820.000000
429562.000000
430291.000000
431021.000000
431770.000000
432546.000000
433302.000000
434026.000000
434774.000000
435583.000000
436399.000000
437129.000000
437847.000000
438589.000000
439356.000000
440087.000000
440833.000000
441632.000000
442437.000000
443205.000000
443973.000000
444841.000000
445628.000000
446337.000000
447023.000000
447710.000000
448457.000000
449311.000000
450082.000000
450835.000000
451635.000000
452407.000000
453147.000000
453877.000000
454629.000000
455379.000000
456101.000000
456831.000000
457568.000000
458319.000000
459031.000000
459766.000000
460529.000000
461273.000000
462011.000000
462769.000000
463601.000000
464336.000000
465032.000000
465726.000000
466542.000000
467420.000000
468208.000000
468952.000000
469748.000000
470574.000000
471349.000000
472076.000000
472823.000000
473585.000000
474338.000000
475063.000000
475794.000000
476586.000000
477389.000000
478155.000000
478931.000000
479751.000000
480584.000000
481331.000000
482041.000000
482791.000000
483571.000000
484326.000000
485048.000000
485815.000000
486706.000000
487561.000000
488299.000000
489002.000000
489719.000000
490459.000000
491175.000000
491901.000000
492720.000000
493627.000000
494392.000000
495116.000000
495837.000000
496558.000000
497268.000000
497987.000000
498744.000000
499539.000000
500286.000000
501036.000000
501813.000000
502574.000000
503304.000000
504045.000000
504827.000000
505591.000000
506323.000000
507047.000000
507791.000000
508537.000000
509278.000000
510028.000000
510756.000000
511460.000000
512209.000000
513040.000000
513827.000000
514554.000000
515256.000000
515974.000000
516750.000000
517515.000000
518230.000000
518953.000000
519698.000000
520471.000000
521205.000000
521957.000000
522736.000000
523525.000000
524269.000000
524994.000000
525752.000000
526515.000000
527265.000000
527965.000000
528648.000000
529356.000000
530347.000000
531264.000000
532035.000000
532782.000000
533625.000000
534469.000000
535232.000000
535945.000000
536658.000000
537400.000000
538197.000000
538977.000000
539759.000000
540756.000000
541694.000000
542451.000000
543163.000000
543874.000000
544589.000000
545309.000000
546028.000000
546779.000000
547587.000000
548369.000000
549124.000000
549917.000000
550711.000000
551456.000000
552187.000000
552933.000000
553714.000000
554454.000000
555176.000000
555945.000000
556700.000000
557419.000000
558115.000000
558820.000000
559578.000000
560373.000000
561133.000000
561859.000000
562631.000000
563480.000000
564369.000000
565136.000000
565879.000000
566648.000000
567417.000000
568186.000000
568932.000000
569710.000000
570550.000000
571341.000000
572116.000000
572898.000000
573757.000000
574624.000000
575383.000000
576102.000000
576873.000000
577761.000000
578556.000000
579287.000000
580017.000000
580827.000000
581649.000000
582444.000000
583241.000000
584100.000000
584936.000000
585697.000000
586411.000000
587132.000000
587925.000000
588718.000000
589491.000000
590243.000000
591017.000000
591842.000000
592609.000000
593337.000000
594114.000000
594921.000000
595744.000000
596522.000000
597281.000000
598051.000000
598858.000000
599624.000000
600387.000000
601219.000000
602104.000000
602892.000000
603675.000000
604506.000000
605286.000000
606031.000000
606813.000000
607627.000000
608420.000000
609181.000000
610166.000000
611129.000000
611904.000000
612636.000000
613384.000000
614129.000000
614855.000000
615610.000000
616476.000000
617293.000000
618023.000000
618720.000000
619425.000000
620190.000000
621033.000000
621924.000000
622788.000000
623754.000000
624658.000000
625440.000000
626192.000000
627071.000000
628027.000000
628896.000000
629664.000000
