ECG (ms)
423.000000
1106.000000
1795.000000
2471.000000
3172.000000
3905.000000
4637.000000
5347.000000
6036.000000
6736.000000
7438.000000
8123.000000
8798.000000
9491.000000
10195.000000
10878.000000
11556.000000
12231.000000
12930.000000
13629.000000
14332.000000
15038.000000
15764.000000
16464.000000
17152.000000
17843.000000
19209.000000
19848.000000
20453.000000
21075.000000
21734.000000
22405.000000
23142.000000
23931.000000
24746.000000
25497.000000
26289.000000
27054.000000
27783.000000
28535.000000
29271.000000
29977.000000
30706.000000
31432.000000
32137.000000
32858.000000
33564.000000
34258.000000
34936.000000
35626.000000
36327.000000
37740.000000
38411.000000
39093.000000
39761.000000
40423.000000
41102.000000
41828.000000
42564.000000
43275.000000
44018.000000
44790.000000
45583.000000
46316.000000
47069.000000
47798.000000
48494.000000
49187.000000
49870.000000
50556.000000
51223.000000
51885.000000
52555.000000
53932.000000
54582.000000
55204.000000
55819.000000
56429.000000
57065.000000
57769.000000
58480.000000
59186.000000
59913.000000
60668.000000
61366.000000
62078.000000
62791.000000
63502.000000
64200.000000
64893.000000
65602.000000
66282.000000
66960.000000
67641.000000
68316.000000
68969.000000
69605.000000
70933.000000
71571.000000
72194.000000
72820.000000
73453.000000
74126.000000
74819.000000
75512.000000
76247.000000
77001.000000
77730.000000
78441.000000
79171.000000
79909.000000
80626.000000
81327.000000
82044.000000
82761.000000
83475.000000
84172.000000
84849.000000
85512.000000
86192.000000
86894.000000
87578.000000
88253.000000
88932.000000
89632.000000
90352.000000
91046.000000
91715.000000
92383.000000
93046.000000
93727.000000
94432.000000
95830.000000
96483.000000
97153.000000
97818.000000
98466.000000
99105.000000
99760.000000
101248.000000
101917.000000
102567.000000
103241.000000
103931.000000
104607.000000
105273.000000
105944.000000
106606.000000
107360.000000
108097.000000
108831.000000
109586.000000
110371.000000
111106.000000
111818.000000
112522.000000
113246.000000
113941.000000
114623.000000
115302.000000
116003.000000
116719.000000
117412.000000
118112.000000
118821.000000
119530.000000
120218.000000
120915.000000
121615.000000
122335.000000
123012.000000
123681.000000
124354.000000
125745.000000
126401.000000
127025.000000
127663.000000
128302.000000
128953.000000
129637.000000
130407.000000
131126.000000
131888.000000
132689.000000
133441.000000
134227.000000
135003.000000
135733.000000
136468.000000
137196.000000
137923.000000
138649.000000
139378.000000
140122.000000
140821.000000
141545.000000
142269.000000
142964.000000
143651.000000
144345.000000
145050.000000
145729.000000
146410.000000
147113.000000
147844.000000
148536.000000
149223.000000
149908.000000
150637.000000
151327.000000
152019.000000
152722.000000
153426.000000
154095.000000
154761.000000
155435.000000
156119.000000
156792.000000
157481.000000
158193.000000
158899.000000
159587.000000
160303.000000
161007.000000
161682.000000
162341.000000
163000.000000
163674.000000
164332.000000
164981.000000
165635.000000
166984.000000
167641.000000
168276.000000
168918.000000
170252.000000
170931.000000
171617.000000
172323.000000
173050.000000
173784.000000
174554.000000
175327.000000
176060.000000
176789.000000
177540.000000
178272.000000
178981.000000
179712.000000
180433.000000
181114.000000
181786.000000
182446.000000
183113.000000
183756.000000
184394.000000
185055.000000
185734.000000
186393.000000
187067.000000
187737.000000
188388.000000
189011.000000
189616.000000
190250.000000
191519.000000
192148.000000
192777.000000
193404.000000
194027.000000
194652.000000
195317.000000
196044.000000
196765.000000
197471.000000
198195.000000
198929.000000
199677.000000
200376.000000
201063.000000
201743.000000
202453.000000
203143.000000
203828.000000
204538.000000
205288.000000
206076.000000
206806.000000
207519.000000
208223.000000
208943.000000
209667.000000
210408.000000
211109.000000
211786.000000
212453.000000
213141.000000
213844.000000
214553.000000
215241.000000
215911.000000
216619.000000
217356.000000
218134.000000
218872.000000
219563.000000
220276.000000
221012.000000
221765.000000
222491.000000
223200.000000
223906.000000
224632.000000
225347.000000
226074.000000
226845.000000
227568.000000
228289.000000
229016.000000
229736.000000
230431.000000
231120.000000
231804.000000
232503.000000
233177.000000
233862.000000
234557.000000
235272.000000
235950.000000
236626.000000
237303.000000
237983.000000
238665.000000
239350.000000
240043.000000
240724.000000
241379.000000
242039.000000
242722.000000
243425.000000
244115.000000
244791.000000
245444.000000
246106.000000
246784.000000
247469.000000
248169.000000
248843.000000
249503.000000
250156.000000
250823.000000
251527.000000
252197.000000
252856.000000
253517.000000
254913.000000
255562.000000
256195.000000
256837.000000
257476.000000
258117.000000
258796.000000
259547.000000
260361.000000
261112.000000
261895.000000
262696.000000
263463.000000
264167.000000
264870.000000
265569.000000
266301.000000
267015.000000
267747.000000
268483.000000
269198.000000
269893.000000
270586.000000
271282.000000
271964.000000
273372.000000
274048.000000
274711.000000
275360.000000
276009.000000
276695.000000
277400.000000
278119.000000
278884.000000
279675.000000
280421.000000
281141.000000
281857.000000
282591.000000
283310.000000
284003.000000
284692.000000
285389.000000
286067.000000
286739.000000
287417.000000
288147.000000
288907.000000
289632.000000
290328.000000
291029.000000
291735.000000
292468.000000
293184.000000
293870.000000
294535.000000
295184.000000
295840.000000
296539.000000
297283.000000
298016.000000
298701.000000
299378.000000
300063.000000
301500.000000
302171.000000
302807.000000
303431.000000
304060.000000
304732.000000
305460.000000
306170.000000
307647.000000
308338.000000
309014.000000
309675.000000
310345.000000
311031.000000
311712.000000
312405.000000
313104.000000
313799.000000
314483.000000
315163.000000
315875.000000
316575.000000
317265.000000
317961.000000
318695.000000
319405.000000
320118.000000
320860.000000
321584.000000
322273.000000
322954.000000
323642.000000
324341.000000
325013.000000
325676.000000
326339.000000
327004.000000
327659.000000
328318.000000
329000.000000
329679.000000
330361.000000
331056.000000
331769.000000
332454.000000
333123.000000
333804.000000
334480.000000
335143.000000
335820.000000
336530.000000
337215.000000
337893.000000
338592.000000
339322.000000
340012.000000
340700.000000
341402.000000
342107.000000
342787.000000
343484.000000
344188.000000
344875.000000
345552.000000
346235.000000
346944.000000
347633.000000
348312.000000
348992.000000
349697.000000
350377.000000
351057.000000
351734.000000
352410.000000
353068.000000
353732.000000
354416.000000
355091.000000
355758.000000
356436.000000
357139.000000
357832.000000
358511.000000
359195.000000
359882.000000
360568.000000
361232.000000
361898.000000
363308.000000
363976.000000
364610.000000
365883.000000
366510.000000
367843.000000
368474.000000
369088.000000
369720.000000
370438.000000
371209.000000
371984.000000
372732.000000
373511.000000
374338.000000
375171.000000
375934.000000
376684.000000
377442.000000
378197.000000
378901.000000
379578.000000
380257.000000
380960.000000
381650.000000
382336.000000
383038.000000
383774.000000
384493.000000
385243.000000
386008.000000
386765.000000
387497.000000
388242.000000
388984.000000
389681.000000
390400.000000
391114.000000
391830.000000
392542.000000
393276.000000
394031.000000
394730.000000
395452.000000
396174.000000
396875.000000
397583.000000
398295.000000
399715.000000
400391.000000
401081.000000
401758.000000
402420.000000
403090.000000
403790.000000
404518.000000
405217.000000
405928.000000
407361.000000
408023.000000
408646.000000
409255.000000
409860.000000
410497.000000
411172.000000
411853.000000
412520.000000
413264.000000
414038.000000
414820.000000
415581.000000
416345.000000
417085.000000
417812.000000
418515.000000
419191.000000
419862.000000
420528.000000
421205.000000
421876.000000
422546.000000
423959.000000
424621.000000
425256.000000
425895.000000
426554.000000
427230.000000
427938.000000
428670.000000
429406.000000
430163.000000
430946.000000
431710.000000
432469.000000
433253.000000
434005.000000
434759.000000
435486.000000
436198.000000
436896.000000
437578.000000
438261.000000
438938.000000
439628.000000
440341.000000
441034.000000
441735.000000
443191.000000
443864.000000
444508.000000
445157.000000
445800.000000
446446.000000
447123.000000
447857.000000
448572.000000
449328.000000
450106.000000
450840.000000
451579.000000
452329.000000
453048.000000
453765.000000
454475.000000
455184.000000
455880.000000
456565.000000
457253.000000
457935.000000
459338.000000
460007.000000
460657.000000
461295.000000
461943.000000
462624.000000
463304.000000
464023.000000
464778.000000
465546.000000
466300.000000
467023.000000
467741.000000
468491.000000
469260.000000
470016.000000
470740.000000
471432.000000
472125.000000
472827.000000
473538.000000
474253.000000
474938.000000
475599.000000
476247.000000
476908.000000
477603.000000
478292.000000
478960.000000
479626.000000
480294.000000
481009.000000
481770.000000
482527.000000
483239.000000
483920.000000
484603.000000
485321.000000
486046.000000
486754.000000
487448.000000
488120.000000
488796.000000
489512.000000
490270.000000
490985.000000
491683.000000
492374.000000
493077.000000
493795.000000
494517.000000
495203.000000
495868.000000
496540.000000
497233.000000
497941.000000
498651.000000
499332.000000
500001.000000
500670.000000
501365.000000
502113.000000
502826.000000
503516.000000
504196.000000
504874.000000
506307.000000
506974.000000
507610.000000
508259.000000
508921.000000
509587.000000
510312.000000
511107.000000
511933.000000
512700.000000
513526.000000
514337.000000
515092.000000
515825.000000
516558.000000
517294.000000
518005.000000
518708.000000
519415.000000
520129.000000
520816.000000
521499.000000
522190.000000
522874.000000
523533.000000
524171.000000
524798.000000
525453.000000
526927.000000
527618.000000
528271.000000
528921.000000
529583.000000
530252.000000
530895.000000
531590.000000
532281.000000
533697.000000
534386.000000
535054.000000
535727.000000
536433.000000
537211.000000
538010.000000
538758.000000
539551.000000
540369.000000
541161.000000
541906.000000
542690.000000
543490.000000
544251.000000
544983.000000
545755.000000
546539.000000
547283.000000
548012.000000
548770.000000
549516.000000
550228.000000
550943.000000
551666.000000
552371.000000
553064.000000
553777.000000
554503.000000
555216.000000
555908.000000
556619.000000
557356.000000
558066.000000
558774.000000
559490.000000
560222.000000
560918.000000
561612.000000
562321.000000
563035.000000
563738.000000
564449.000000
565188.000000
565910.000000
566622.000000
567339.000000
568057.000000
568741.000000
569414.000000
570094.000000
570778.000000
571450.000000
572144.000000
572836.000000
573531.000000
574221.000000
574910.000000
575622.000000
576317.000000
576996.000000
577669.000000
578349.000000
579015.000000
579676.000000
580345.000000
581030.000000
581721.000000
582417.000000
583105.000000
583778.000000
584465.000000
585897.000000
586573.000000
587223.000000
587892.000000
588609.000000
589323.000000
590065.000000
590869.000000
591659.000000
592407.000000
593200.000000
593971.000000
594706.000000
595470.000000
596230.000000
596949.000000
597691.000000
598424.000000
599142.000000
599870.000000
600607.000000
601355.000000
602069.000000
602808.000000
603537.000000
604248.000000
604980.000000
605715.000000
606436.000000
607162.000000
607897.000000
608607.000000
609312.000000
610020.000000
610709.000000
611379.000000
612052.000000
613469.000000
614144.000000
614803.000000
615466.000000
616120.000000
616795.000000
617507.000000
618271.000000
619000.000000
619763.000000
620556.000000
621308.000000
622050.000000
622804.000000
623524.000000
624231.000000
624924.000000
625612.000000
626278.000000
626946.000000
627641.000000
628326.000000
629023.000000
629742.000000
630458.000000
631164.000000
631864.000000
632569.000000
633251.000000
633927.000000
634613.000000
635322.000000
636003.000000
636679.000000
637373.000000
638091.000000
638811.000000
639505.000000
640198.000000
640917.000000
641624.000000
643025.000000
643711.000000
644390.000000
645068.000000
645740.000000
646459.000000
647250.000000
648054.000000
648800.000000
649600.000000
650420.000000
651180.000000
651982.000000
652751.000000
653474.000000
654229.000000
654981.000000
655708.000000
656426.000000
657154.000000
657894.000000
658598.000000
659315.000000
660035.000000
660759.000000
661461.000000
662164.000000
662879.000000
663590.000000
664289.000000
665755.000000
666432.000000
667078.000000
667724.000000
668401.000000
669089.000000
669783.000000
670504.000000
671238.000000
671936.000000
672711.000000
673450.000000
674183.000000
674948.000000
675735.000000
676470.000000
677200.000000
677952.000000
678686.000000
679388.000000
680814.000000
681488.000000
682128.000000
682767.000000
683435.000000
684143.000000
684858.000000
685631.000000
686460.000000
687229.000000
688028.000000
688827.000000
689594.000000
690376.000000
691131.000000
691874.000000
692574.000000
693235.000000
693879.000000
694532.000000
695265.000000
696038.000000
696846.000000
697669.000000
698529.000000
699380.000000
700152.000000
700940.000000
701720.000000
702475.000000
703185.000000
703914.000000
704646.000000
705419.000000
706167.000000
706906.000000
707653.000000
708445.000000
709194.000000
709917.000000
710645.000000
711385.000000
712099.000000
712805.000000
713517.000000
714257.000000
714958.000000
715666.000000
716389.000000
717111.000000
717829.000000
718543.000000
719271.000000
719981.000000
720710.000000
721451.000000
722159.000000
722869.000000
724354.000000
725036.000000
725680.000000
726330.000000
726984.000000
727638.000000
728340.000000
729098.000000
729838.000000
730628.000000
731430.000000
732180.000000
732970.000000
733742.000000
734473.000000
735198.000000
735928.000000
736651.000000
737366.000000
738086.000000
738812.000000
739514.000000
740221.000000
740945.000000
741645.000000
742352.000000
743084.000000
743798.000000
744494.000000
745196.000000
745927.000000
747356.000000
748047.000000
748715.000000
749375.000000
750040.000000
750737.000000
751501.000000
752248.000000
753062.000000
753885.000000
754649.000000
755462.000000
756286.000000
757048.000000
757838.000000
758629.000000
759374.000000
760131.000000
760877.000000
761596.000000
762308.000000
763030.000000
763761.000000
764477.000000
765185.000000
765915.000000
766664.000000
767410.000000
768131.000000
768839.000000
769554.000000
770289.000000
770995.000000
771701.000000
772411.000000
773119.000000
773809.000000
774505.000000
775205.000000
775895.000000
776572.000000
777247.000000
777940.000000
778617.000000
779301.000000
780000.000000
780701.000000
781383.000000
782062.000000
782747.000000
783409.000000
784068.000000
784723.000000
785374.000000
786022.000000
787378.000000
788032.000000
789338.000000
789987.000000
790623.000000
791280.000000
791962.000000
792695.000000
793401.000000
794149.000000
794927.000000
795684.000000
796461.000000
797254.000000
797994.000000
798742.000000
799475.000000
800189.000000
800903.000000
801642.000000
802379.000000
803097.000000
803858.000000
804640.000000
805357.000000
806082.000000
806808.000000
807520.000000
808227.000000
808940.000000
809645.000000
810337.000000
811033.000000
811754.000000
812450.000000
813163.000000
813894.000000
814607.000000
815312.000000
816026.000000
816737.000000
817422.000000
818116.000000
819622.000000
820339.000000
821044.000000
821740.000000
822429.000000
823150.000000
823901.000000
824623.000000
825371.000000
826116.000000
826841.000000
827582.000000
828330.000000
829047.000000
829761.000000
830485.000000
831250.000000
831976.000000
832687.000000
833406.000000
834110.000000
834795.000000
835494.000000
836199.000000
836922.000000
837619.000000
838300.000000
838985.000000
839688.000000
840379.000000
841065.000000
841768.000000
842479.000000
843177.000000
843883.000000
844601.000000
845316.000000
846015.000000
846710.000000
847423.000000
848138.000000
848833.000000
849530.000000
850242.000000
850943.000000
851672.000000
852409.000000
853110.000000
853790.000000
854484.000000
855923.000000
856600.000000
857243.000000
857891.000000
858539.000000
859197.000000
859920.000000
860724.000000
861479.000000
862283.000000
863135.000000
863888.000000
864680.000000
865458.000000
866197.000000
866976.000000
867754.000000
868513.000000
869238.000000
869962.000000
870698.000000
871438.000000
872170.000000
872900.000000
873620.000000
874337.000000
875039.000000
875756.000000
876456.000000
877132.000000
877795.000000
878440.000000
879072.000000
879731.000000
880396.000000
881056.000000
881725.000000
882435.000000
883145.000000
883830.000000
884514.000000
885198.000000
886673.000000
887358.000000
888023.000000
888720.000000
889447.000000
890160.000000
890879.000000
891644.000000
892457.000000
893208.000000
894008.000000
894806.000000
895571.000000
896385.000000
897174.000000
897925.000000
898683.000000
899441.000000
900162.000000
900907.000000
