ECG (ms)
440.000000
1135.000000
1827.000000
2513.000000
3210.000000
3912.000000
4599.000000
5295.000000
5997.000000
6693.000000
7380.000000
8079.000000
8784.000000
9476.000000
10162.000000
10863.000000
11571.000000
12258.000000
12945.000000
13640.000000
14334.000000
15010.000000
15688.000000
16376.000000
17069.000000
17750.000000
18430.000000
19123.000000
19822.000000
20509.000000
21194.000000
21889.000000
22588.000000
23273.000000
23954.000000
24642.000000
25330.000000
26003.000000
26677.000000
27356.000000
28034.000000
28694.000000
29362.000000
30036.000000
30708.000000
31377.000000
32055.000000
32739.000000
33421.000000
34102.000000
34793.000000
35487.000000
36169.000000
36855.000000
37548.000000
38235.000000
38919.000000
39612.000000
40306.000000
40980.000000
41667.000000
42361.000000
43051.000000
43730.000000
44415.000000
45108.000000
45797.000000
46478.000000
47175.000000
47877.000000
48569.000000
49257.000000
49956.000000
50647.000000
51330.000000
52008.000000
52690.000000
53360.000000
54021.000000
54679.000000
55328.000000
55981.000000
56636.000000
57291.000000
57958.000000
58642.000000
59335.000000
60019.000000
60702.000000
61396.000000
62094.000000
62781.000000
63464.000000
64154.000000
64845.000000
65529.000000
66202.000000
66878.000000
67565.000000
68247.000000
68925.000000
69609.000000
70304.000000
70994.000000
71675.000000
72373.000000
73077.000000
73783.000000
74483.000000
75191.000000
75916.000000
76649.000000
77371.000000
78102.000000
78843.000000
79568.000000
80301.000000
81037.000000
81753.000000
82466.000000
83180.000000
83891.000000
84586.000000
85291.000000
86007.000000
86711.000000
87412.000000
88119.000000
88825.000000
89516.000000
90216.000000
90917.000000
91605.000000
92293.000000
92993.000000
93699.000000
94392.000000
95080.000000
95781.000000
96491.000000
97186.000000
97887.000000
98602.000000
99317.000000
100016.000000
100730.000000
101444.000000
102141.000000
102838.000000
103549.000000
104261.000000
104961.000000
105670.000000
106395.000000
107105.000000
107809.000000
108515.000000
109224.000000
109913.000000
110602.000000
111302.000000
112003.000000
112690.000000
113377.000000
114075.000000
114778.000000
115477.000000
116174.000000
116883.000000
117601.000000
118317.000000
119019.000000
119727.000000
120446.000000
121160.000000
121874.000000
122596.000000
123330.000000
124062.000000
124787.000000
125523.000000
126269.000000
127006.000000
127735.000000
128470.000000
129208.000000
129931.000000
130651.000000
131383.000000
132120.000000
132843.000000
133561.000000
134287.000000
135018.000000
135734.000000
136454.000000
137184.000000
137911.000000
138626.000000
139352.000000
140085.000000
140808.000000
141531.000000
142264.000000
142990.000000
143708.000000
144434.000000
145164.000000
145883.000000
146603.000000
147330.000000
148049.000000
148772.000000
149505.000000
150236.000000
150952.000000
151674.000000
152403.000000
153110.000000
153816.000000
154533.000000
155249.000000
155956.000000
156678.000000
157406.000000
158121.000000
158842.000000
159566.000000
160278.000000
160985.000000
161703.000000
162424.000000
163131.000000
163836.000000
164549.000000
165266.000000
165971.000000
166676.000000
167391.000000
168111.000000
168816.000000
169526.000000
170244.000000
170956.000000
171657.000000
172360.000000
173065.000000
173766.000000
174457.000000
175154.000000
175856.000000
176545.000000
177237.000000
177934.000000
178625.000000
179316.000000
180020.000000
180729.000000
181426.000000
182136.000000
182858.000000
183570.000000
184275.000000
184993.000000
185712.000000
186418.000000
187131.000000
187850.000000
188560.000000
189266.000000
189979.000000
190691.000000
191392.000000
192098.000000
192812.000000
193526.000000
194230.000000
194942.000000
195657.000000
196361.000000
197068.000000
197789.000000
198501.000000
199208.000000
199927.000000
200654.000000
201364.000000
202078.000000
202809.000000
203535.000000
204254.000000
204986.000000
205713.000000
206426.000000
207143.000000
207869.000000
208583.000000
209294.000000
210017.000000
210734.000000
211440.000000
212148.000000
212870.000000
213585.000000
214283.000000
214984.000000
215691.000000
216391.000000
217080.000000
217780.000000
218482.000000
219170.000000
219864.000000
220571.000000
221279.000000
221974.000000
222680.000000
223386.000000
224078.000000
224775.000000
225479.000000
226174.000000
226860.000000
227558.000000
228262.000000
228952.000000
229643.000000
230349.000000
231062.000000
231765.000000
232473.000000
233193.000000
233911.000000
234622.000000
235345.000000
236065.000000
236766.000000
237474.000000
238187.000000
238882.000000
239573.000000
240267.000000
240952.000000
241630.000000
242318.000000
243009.000000
243689.000000
244377.000000
245075.000000
245765.000000
246452.000000
247144.000000
247831.000000
248505.000000
249190.000000
249878.000000
250551.000000
251226.000000
251907.000000
252595.000000
253271.000000
253947.000000
254633.000000
255313.000000
255983.000000
256662.000000
257345.000000
258014.000000
258684.000000
259368.000000
260058.000000
260734.000000
261416.000000
262109.000000
262802.000000
263481.000000
264169.000000
264867.000000
265557.000000
266245.000000
266946.000000
267658.000000
268357.000000
269062.000000
269780.000000
270500.000000
271204.000000
271911.000000
272627.000000
273346.000000
274048.000000
274763.000000
275485.000000
276191.000000
276896.000000
277612.000000
278333.000000
279030.000000
279726.000000
280433.000000
281138.000000
281831.000000
282533.000000
283245.000000
283947.000000
284649.000000
285362.000000
286078.000000
286787.000000
287508.000000
288238.000000
288950.000000
289659.000000
290382.000000
291109.000000
291820.000000
292530.000000
293243.000000
293945.000000
294639.000000
295344.000000
296054.000000
296750.000000
297449.000000
298167.000000
298884.000000
299593.000000
300317.000000
301048.000000
301765.000000
302493.000000
303234.000000
303956.000000
304679.000000
305422.000000
306155.000000
306873.000000
307614.000000
308355.000000
309081.000000
309824.000000
310570.000000
311295.000000
312016.000000
312750.000000
313477.000000
314188.000000
314897.000000
315619.000000
316336.000000
317040.000000
317746.000000
318471.000000
319194.000000
319901.000000
320623.000000
321358.000000
322076.000000
322791.000000
323521.000000
324255.000000
324974.000000
325706.000000
326449.000000
327188.000000
327912.000000
328649.000000
329392.000000
330129.000000
330853.000000
331587.000000
332329.000000
333062.000000
333787.000000
334523.000000
335260.000000
335982.000000
336709.000000
337446.000000
338168.000000
338886.000000
339621.000000
340361.000000
341086.000000
341817.000000
342563.000000
343295.000000
344023.000000
344765.000000
345505.000000
346226.000000
346951.000000
347682.000000
348404.000000
349120.000000
349853.000000
350581.000000
351295.000000
352022.000000
352761.000000
353479.000000
354203.000000
354941.000000
355669.000000
356386.000000
357124.000000
357863.000000
358589.000000
359326.000000
360069.000000
360795.000000
361525.000000
362258.000000
362979.000000
363684.000000
364383.000000
365069.000000
365759.000000
366458.000000
367145.000000
367839.000000
368541.000000
369253.000000
369961.000000
370679.000000
371401.000000
372106.000000
372813.000000
373536.000000
374261.000000
374973.000000
375684.000000
376404.000000
377127.000000
377834.000000
378555.000000
379285.000000
380006.000000
380722.000000
381449.000000
382185.000000
382903.000000
383629.000000
384368.000000
385092.000000
385810.000000
386544.000000
387276.000000
387991.000000
388714.000000
389445.000000
390174.000000
390889.000000
391613.000000
392344.000000
393065.000000
393788.000000
394527.000000
395265.000000
395990.000000
396725.000000
397471.000000
398203.000000
398926.000000
399659.000000
400397.000000
401118.000000
401838.000000
402570.000000
403298.000000
404014.000000
404741.000000
405485.000000
406223.000000
406957.000000
407699.000000
408451.000000
409181.000000
409918.000000
410674.000000
411425.000000
412163.000000
412914.000000
413679.000000
414423.000000
415167.000000
415924.000000
416676.000000
417417.000000
418165.000000
418915.000000
419653.000000
420376.000000
421109.000000
421848.000000
422568.000000
423287.000000
424020.000000
424752.000000
425473.000000
426213.000000
426957.000000
427687.000000
428424.000000
429169.000000
429911.000000
430638.000000
431378.000000
432126.000000
432858.000000
433591.000000
434338.000000
435083.000000
435815.000000
436552.000000
437302.000000
438038.000000
438774.000000
439524.000000
440282.000000
441030.000000
441790.000000
442557.000000
443302.000000
444049.000000
444797.000000
445530.000000
446259.000000
446997.000000
447733.000000
448454.000000
449177.000000
449909.000000
450641.000000
451359.000000
452086.000000
452832.000000
453579.000000
454315.000000
455063.000000
455817.000000
456553.000000
457290.000000
458034.000000
458759.000000
459484.000000
460229.000000
460972.000000
461702.000000
462442.000000
463190.000000
463918.000000
464646.000000
465385.000000
466114.000000
466833.000000
467570.000000
468310.000000
469035.000000
469762.000000
470497.000000
471234.000000
471960.000000
472691.000000
473437.000000
474181.000000
474912.000000
475657.000000
476401.000000
477126.000000
477863.000000
478603.000000
479332.000000
480076.000000
480833.000000
481572.000000
482308.000000
483060.000000
483804.000000
484532.000000
485266.000000
486005.000000
486726.000000
487445.000000
488182.000000
488918.000000
489642.000000
490382.000000
491131.000000
491865.000000
492586.000000
493320.000000
494050.000000
494769.000000
495507.000000
496259.000000
496993.000000
497723.000000
498468.000000
499221.000000
499964.000000
500706.000000
501461.000000
502202.000000
502936.000000
503686.000000
504426.000000
505149.000000
505883.000000
506618.000000
507338.000000
508056.000000
508784.000000
509518.000000
510240.000000
510972.000000
511719.000000
512457.000000
513192.000000
513942.000000
514693.000000
515430.000000
516176.000000
516928.000000
517670.000000
518415.000000
519173.000000
519913.000000
520650.000000
521403.000000
522146.000000
522878.000000
523626.000000
524372.000000
525107.000000
525855.000000
526612.000000
527353.000000
528100.000000
528860.000000
529611.000000
530352.000000
531121.000000
531882.000000
532628.000000
533394.000000
534155.000000
534893.000000
535641.000000
536392.000000
537119.000000
537839.000000
538572.000000
539302.000000
540023.000000
540764.000000
541507.000000
542233.000000
542973.000000
543728.000000
544477.000000
545220.000000
545990.000000
546754.000000
547502.000000
548259.000000
549026.000000
549784.000000
550552.000000
551334.000000
552115.000000
552870.000000
553640.000000
554423.000000
555186.000000
555927.000000
556666.000000
557406.000000
558144.000000
558869.000000
559591.000000
560327.000000
561069.000000
561798.000000
562542.000000
563294.000000
564034.000000
564778.000000
565531.000000
566269.000000
567009.000000
567760.000000
568507.000000
569247.000000
570002.000000
570750.000000
571486.000000
572240.000000
573004.000000
573751.000000
574497.000000
575254.000000
576006.000000
576740.000000
577479.000000
578218.000000
578942.000000
579664.000000
580399.000000
581118.000000
581826.000000
582537.000000
583249.000000
583950.000000
584647.000000
585354.000000
586076.000000
586792.000000
587505.000000
588233.000000
588967.000000
589690.000000
590423.000000
591167.000000
591903.000000
592631.000000
593382.000000
594136.000000
594870.000000
595612.000000
596370.000000
597107.000000
597843.000000
598597.000000
599352.000000
600090.000000
600834.000000
601587.000000
602326.000000
603061.000000
603810.000000
604552.000000
605282.000000
606026.000000
606764.000000
607491.000000
608234.000000
608977.000000
609707.000000
610455.000000
611209.000000
611949.000000
612694.000000
613450.000000
614193.000000
614923.000000
615661.000000
616394.000000
617113.000000
617839.000000
618575.000000
619295.000000
620002.000000
620720.000000
621443.000000
622151.000000
622861.000000
623588.000000
624311.000000
625029.000000
625760.000000
626508.000000
627250.000000
627983.000000
628720.000000
629474.000000
630243.000000
630991.000000
631744.000000
632506.000000
633259.000000
633996.000000
634745.000000
635497.000000
636243.000000
636977.000000
637711.000000
638461.000000
639219.000000
639970.000000
640705.000000
641452.000000
642201.000000
642940.000000
643674.000000
644419.000000
645174.000000
645920.000000
646663.000000
647421.000000
648185.000000
648934.000000
649691.000000
650463.000000
651240.000000
651998.000000
652761.000000
653532.000000
654295.000000
655041.000000
655797.000000
656559.000000
657319.000000
658067.000000
658827.000000
659604.000000
660382.000000
661142.000000
661914.000000
662696.000000
663470.000000
664241.000000
665034.000000
665840.000000
666626.000000
667419.000000
668218.000000
668993.000000
669763.000000
670550.000000
671319.000000
672064.000000
672816.000000
673569.000000
674304.000000
675036.000000
675778.000000
676524.000000
677257.000000
677986.000000
678726.000000
679469.000000
680203.000000
680946.000000
681702.000000
682452.000000
683197.000000
683960.000000
684732.000000
685494.000000
686257.000000
687032.000000
687796.000000
688554.000000
689327.000000
690108.000000
690877.000000
691642.000000
692426.000000
693205.000000
693976.000000
694762.000000
695539.000000
696290.000000
697051.000000
697819.000000
698566.000000
699311.000000
700078.000000
700837.000000
701593.000000
702368.000000
703131.000000
703890.000000
704667.000000
705439.000000
706192.000000
706951.000000
707708.000000
708445.000000
709195.000000
709951.000000
710698.000000
711445.000000
712218.000000
713006.000000
713775.000000
714551.000000
715348.000000
716135.000000
716913.000000
717706.000000
718486.000000
719247.000000
720022.000000
720791.000000
721542.000000
722303.000000
723068.000000
723820.000000
724578.000000
725358.000000
726134.000000
726903.000000
727695.000000
728484.000000
729251.000000
730021.000000
730811.000000
731588.000000
732352.000000
733141.000000
733929.000000
734699.000000
735488.000000
736288.000000
737070.000000
737872.000000
738675.000000
739449.000000
740217.000000
741000.000000
741771.000000
742533.000000
743311.000000
744088.000000
744848.000000
745612.000000
746380.000000
747135.000000
747891.000000
748663.000000
749458.000000
750235.000000
751012.000000
751809.000000
752608.000000
753379.000000
754162.000000
754954.000000
755726.000000
756485.000000
757259.000000
758028.000000
758781.000000
759541.000000
760306.000000
761055.000000
761819.000000
762598.000000
763372.000000
764144.000000
764940.000000
765724.000000
766484.000000
767253.000000
768020.000000
768764.000000
769496.000000
770241.000000
770992.000000
771730.000000
772465.000000
773220.000000
774003.000000
774784.000000
775554.000000
776330.000000
777124.000000
777931.000000
778724.000000
779520.000000
780329.000000
781152.000000
781958.000000
782771.000000
783598.000000
784433.000000
785246.000000
786066.000000
786865.000000
787638.000000
788414.000000
789198.000000
789979.000000
790744.000000
791525.000000
792314.000000
793098.000000
793888.000000
794683.000000
795465.000000
796230.000000
796982.000000
797739.000000
798491.000000
799229.000000
799972.000000
800721.000000
801454.000000
802190.000000
802938.000000
803683.000000
804428.000000
805188.000000
805938.000000
806684.000000
807418.000000
808156.000000
808895.000000
809627.000000
810350.000000
811077.000000
811801.000000
812515.000000
813213.000000
813902.000000
814591.000000
815278.000000
815963.000000
816655.000000
817352.000000
818059.000000
818773.000000
819482.000000
820199.000000
820919.000000
821641.000000
822367.000000
823086.000000
823790.000000
824490.000000
825187.000000
825885.000000
826620.000000
827377.000000
828131.000000
828876.000000
829608.000000
830336.000000
831058.000000
831772.000000
832476.000000
833173.000000
833861.000000
834543.000000
835222.000000
835892.000000
836560.000000
837234.000000
837917.000000
838615.000000
839325.000000
840048.000000
840767.000000
841484.000000
842209.000000
842933.000000
843665.000000
844390.000000
845097.000000
845805.000000
846513.000000
847208.000000
847901.000000
848598.000000
849292.000000
849977.000000
850674.000000
851377.000000
852086.000000
852800.000000
853524.000000
854248.000000
854981.000000
855721.000000
856461.000000
857201.000000
857956.000000
858724.000000
859485.000000
860232.000000
861003.000000
861769.000000
862512.000000
863249.000000
864003.000000
864745.000000
865470.000000
866205.000000
866948.000000
867691.000000
868418.000000
869159.000000
869904.000000
870639.000000
871376.000000
872124.000000
872880.000000
873630.000000
874386.000000
875150.000000
875900.000000
876662.000000
877439.000000
878203.000000
878961.000000
879742.000000
880517.000000
881281.000000
882045.000000
882816.000000
883573.000000
884316.000000
885067.000000
885812.000000
886538.000000
887273.000000
888017.000000
888748.000000
889480.000000
890225.000000
890972.000000
891707.000000
892446.000000
893202.000000
893970.000000
894726.000000
895475.000000
896232.000000
896993.000000
897760.000000
898520.000000
899274.000000
900041.000000
900810.000000
901556.000000
902318.000000
903070.000000
903815.000000
904574.000000
905334.000000
906087.000000
906855.000000
907618.000000
908368.000000
909128.000000
909887.000000
910635.000000
911387.000000
912161.000000
912932.000000
913697.000000
914466.000000
915255.000000
916047.000000
916827.000000
917600.000000
918354.000000
919109.000000
919861.000000
920605.000000
921342.000000
922067.000000
922790.000000
923521.000000
924258.000000
924998.000000
925740.000000
926467.000000
927187.000000
927914.000000
928634.000000
929348.000000
930070.000000
930800.000000
931525.000000
932253.000000
932990.000000
933720.000000
934446.000000
935180.000000
935919.000000
936652.000000
937394.000000
938140.000000
938869.000000
939597.000000
940327.000000
941058.000000
941780.000000
942502.000000
943234.000000
943969.000000
944697.000000
945431.000000
946182.000000
946929.000000
947668.000000
948407.000000
949159.000000
949911.000000
950654.000000
951396.000000
952142.000000
952889.000000
953629.000000
954372.000000
955118.000000
955862.000000
956619.000000
957393.000000
958159.000000
958920.000000
959697.000000
960481.000000
961259.000000
962017.000000
962781.000000
963549.000000
964312.000000
965057.000000
965811.000000
966568.000000
967312.000000
968056.000000
968808.000000
969549.000000
970292.000000
971047.000000
971805.000000
972551.000000
973310.000000
974071.000000
974815.000000
975563.000000
976328.000000
977091.000000
977850.000000
978630.000000
979415.000000
980187.000000
980947.000000
981723.000000
982501.000000
983272.000000
984036.000000
984813.000000
985588.000000
986341.000000
987100.000000
987856.000000
988596.000000
989337.000000
990086.000000
990824.000000
991556.000000
992300.000000
993046.000000
993776.000000
994517.000000
995269.000000
996009.000000
996754.000000
997510.000000
998257.000000
999003.000000
999765.000000
1000528.000000
1001279.000000
1002037.000000
1002793.000000
1003532.000000
1004280.000000
1005020.000000
1005745.000000
1006478.000000
1007214.000000
1007932.000000
1008656.000000
1009394.000000
1010121.000000
1010853.000000
1011601.000000
1012338.000000
1013073.000000
1013825.000000
1014583.000000
1015327.000000
1016081.000000
1016851.000000
1017609.000000
1018361.000000
1019137.000000
1019918.000000
1020678.000000
1021441.000000
1022213.000000
1022981.000000
1023737.000000
1024499.000000
1025273.000000
1026038.000000
1026790.000000
1027555.000000
1028323.000000
1029078.000000
1029854.000000
1030643.000000
1031416.000000
1032194.000000
1032991.000000
1033776.000000
1034556.000000
1035350.000000
1036130.000000
1036897.000000
1037677.000000
1038463.000000
1039228.000000
1040004.000000
1040793.000000
1041564.000000
1042337.000000
1043121.000000
1043894.000000
1044654.000000
1045428.000000
1046203.000000
1046971.000000
1047750.000000
1048544.000000
1049324.000000
1050102.000000
1050899.000000
1051694.000000
1052478.000000
1053271.000000
1054059.000000
1054826.000000
1055603.000000
1056376.000000
1057132.000000
1057890.000000
1058656.000000
1059406.000000
1060147.000000
1060896.000000
1061653.000000
1062394.000000
1063139.000000
1063894.000000
1064641.000000
1065384.000000
1066138.000000
1066888.000000
1067635.000000
1068399.000000
1069160.000000
1069907.000000
1070666.000000
1071429.000000
1072180.000000
1072941.000000
1073701.000000
1074444.000000
1075192.000000
1075944.000000
1076680.000000
1077430.000000
1078190.000000
1078936.000000
1079686.000000
1080451.000000
1081199.000000
1081947.000000
1082711.000000
1083465.000000
1084219.000000
1084980.000000
1085727.000000
1086475.000000
1087234.000000
1087994.000000
1088752.000000
1089522.000000
1090291.000000
1091050.000000
1091813.000000
1092584.000000
1093345.000000
1094094.000000
1094860.000000
1095636.000000
1096401.000000
1097182.000000
1097975.000000
1098744.000000
1099522.000000
1100305.000000
1101065.000000
1101831.000000
1102609.000000
1103382.000000
1104148.000000
1104927.000000
1105712.000000
1106476.000000
1107250.000000
1108023.000000
1108782.000000
1109544.000000
1110318.000000
1111079.000000
1111844.000000
1112628.000000
1113404.000000
1114181.000000
1114981.000000
1115777.000000
1116561.000000
1117357.000000
1118160.000000
1118946.000000
1119740.000000
1120541.000000
1121330.000000
1122118.000000
1122909.000000
1123676.000000
1124446.000000
1125228.000000
1126003.000000
1126767.000000
1127546.000000
1128335.000000
1129106.000000
1129884.000000
1130676.000000
1131465.000000
1132245.000000
1133040.000000
1133831.000000
1134608.000000
1135405.000000
1136203.000000
1136994.000000
1137795.000000
1138615.000000
1139432.000000
1140238.000000
1141061.000000
1141884.000000
1142677.000000
1143459.000000
1144223.000000
1144959.000000
1145700.000000
1146455.000000
1147198.000000
1147936.000000
1148694.000000
1149453.000000
1150210.000000
1150984.000000
1151772.000000
1152546.000000
1153329.000000
1154127.000000
1154910.000000
1155692.000000
1156484.000000
1157258.000000
1158034.000000
1158826.000000
1159610.000000
1160392.000000
1161194.000000
1161995.000000
1162777.000000
1163574.000000
1164381.000000
1165170.000000
1165966.000000
1166767.000000
1167546.000000
1168338.000000
1169142.000000
1169931.000000
1170730.000000
1171532.000000
1172335.000000
1173136.000000
1173945.000000
1174734.000000
1175524.000000
1176329.000000
1177118.000000
1177913.000000
1178711.000000
1179491.000000
1180272.000000
1181072.000000
1181862.000000
1182649.000000
1183463.000000
1184270.000000
1185066.000000
1185874.000000
1186677.000000
1187454.000000
1188246.000000
1189035.000000
1189809.000000
1190591.000000
1191380.000000
1192157.000000
1192925.000000
1193700.000000
1194469.000000
1195237.000000
1196011.000000
1196770.000000
1197528.000000
1198287.000000
1199031.000000
1199771.000000
1200520.000000
1201270.000000
1202009.000000
1202741.000000
1203461.000000
1204173.000000
1204888.000000
1205609.000000
1206329.000000
1207055.000000
1207785.000000
1208509.000000
1209221.000000
1209935.000000
1210646.000000
1211361.000000
1212065.000000
1212762.000000
1213458.000000
1214157.000000
1214854.000000
1215548.000000
1216248.000000
1216953.000000
1217658.000000
1218365.000000
1219085.000000
1219812.000000
1220532.000000
1221249.000000
1221977.000000
1222705.000000
1223422.000000
1224142.000000
1224868.000000
1225598.000000
1226328.000000
1227054.000000
1227767.000000
1228489.000000
1229210.000000
1229925.000000
1230650.000000
1231384.000000
1232113.000000
1232835.000000
1233569.000000
1234318.000000
1235056.000000
1235795.000000
1236542.000000
1237289.000000
1238025.000000
1238778.000000
1239543.000000
1240298.000000
1241047.000000
1241807.000000
1242567.000000
1243312.000000
1244054.000000
1244808.000000
1245552.000000
1246289.000000
1247039.000000
1247786.000000
1248520.000000
1249260.000000
1250007.000000
1250741.000000
1251472.000000
1252216.000000
1252957.000000
1253683.000000
1254420.000000
1255163.000000
1255897.000000
1256633.000000
1257378.000000
1258124.000000
1258869.000000
1259645.000000
1260424.000000
1261185.000000
1261945.000000
1262715.000000
1263483.000000
1264227.000000
1264970.000000
1265725.000000
1266489.000000
1267236.000000
1267978.000000
1268729.000000
1269480.000000
1270224.000000
1270965.000000
1271729.000000
1272492.000000
1273245.000000
1274015.000000
1274800.000000
1275577.000000
1276352.000000
1277139.000000
1277919.000000
1278684.000000
1279475.000000
1280275.000000
1281053.000000
1281843.000000
1282634.000000
1283408.000000
1284195.000000
1284983.000000
1285740.000000
1286503.000000
1287273.000000
1288024.000000
1288769.000000
1289537.000000
1290319.000000
1291097.000000
1291862.000000
1292652.000000
1293454.000000
1294241.000000
1295038.000000
1295829.000000
1296604.000000
1297349.000000
1298096.000000
1298841.000000
1299569.000000
1300310.000000
1301067.000000
1301810.000000
1302550.000000
1303302.000000
1304053.000000
1304789.000000
1305536.000000
1306289.000000
1307026.000000
1307766.000000
1308531.000000
1309297.000000
1310055.000000
1310834.000000
1311617.000000
1312379.000000
1313163.000000
1313965.000000
1314745.000000
1315538.000000
1316337.000000
1317118.000000
1317891.000000
1318676.000000
1319449.000000
1320228.000000
1321025.000000
1321824.000000
1322593.000000
1323370.000000
1324150.000000
1324915.000000
1325676.000000
1326445.000000
1327215.000000
1327976.000000
1328747.000000
1329511.000000
1330265.000000
1331034.000000
1331802.000000
1332548.000000
1333293.000000
1334040.000000
1334770.000000
1335497.000000
1336242.000000
1336994.000000
1337736.000000
1338483.000000
1339230.000000
1339969.000000
1340719.000000
1341473.000000
1342223.000000
1342972.000000
1343732.000000
1344493.000000
1345237.000000
1345990.000000
1346756.000000
1347511.000000
1348269.000000
1349036.000000
1349797.000000
1350552.000000
1351329.000000
1352114.000000
1352892.000000
1353681.000000
1354471.000000
1355240.000000
1356001.000000
1356769.000000
1357532.000000
1358282.000000
1359045.000000
1359809.000000
1360554.000000
1361298.000000
1362062.000000
1362815.000000
1363575.000000
1364353.000000
1365130.000000
1365896.000000
1366691.000000
1367487.000000
1368269.000000
1369068.000000
1369880.000000
1370687.000000
1371485.000000
1372298.000000
1373117.000000
1373908.000000
1374696.000000
1375490.000000
1376268.000000
1377036.000000
1377813.000000
1378573.000000
1379330.000000
1380097.000000
1380851.000000
1381602.000000
1382365.000000
1383129.000000
1383873.000000
1384629.000000
1385397.000000
1386148.000000
1386897.000000
1387656.000000
1388411.000000
1389152.000000
1389912.000000
1390673.000000
1391418.000000
1392167.000000
1392927.000000
1393675.000000
1394421.000000
1395181.000000
1395938.000000
1396688.000000
1397451.000000
1398224.000000
1398987.000000
1399761.000000
1400544.000000
1401310.000000
1402071.000000
1402836.000000
1403593.000000
1404330.000000
1405074.000000
1405839.000000
1406605.000000
1407358.000000
1408133.000000
1408902.000000
1409654.000000
1410411.000000
1411168.000000
1411907.000000
1412647.000000
1413394.000000
1414136.000000
1414876.000000
1415632.000000
1416387.000000
1417140.000000
1417905.000000
1418678.000000
1419441.000000
1420213.000000
1420990.000000
1421753.000000
1422529.000000
1423307.000000
1424062.000000
1424821.000000
1425581.000000
1426320.000000
1427047.000000
1427778.000000
1428501.000000
1429210.000000
1429927.000000
1430649.000000
1431360.000000
1432077.000000
1432808.000000
1433527.000000
1434241.000000
1434966.000000
1435692.000000
1436408.000000
1437123.000000
1437857.000000
1438597.000000
1439329.000000
1440069.000000
1440825.000000
1441582.000000
1442330.000000
1443091.000000
1443866.000000
1444623.000000
1445395.000000
1446170.000000
1446932.000000
1447700.000000
1448482.000000
1449252.000000
1450030.000000
1450829.000000
1451620.000000
1452400.000000
1453198.000000
1453986.000000
1454760.000000
1455543.000000
1456316.000000
1457077.000000
1457849.000000
1458628.000000
1459387.000000
1460155.000000
1460940.000000
1461724.000000
1462500.000000
1463307.000000
1464120.000000
1464913.000000
1465717.000000
1466523.000000
1467298.000000
1468067.000000
1468845.000000
1469600.000000
1470347.000000
1471099.000000
1471836.000000
1472559.000000
1473288.000000
1474023.000000
1474738.000000
1475452.000000
1476172.000000
1476899.000000
1477616.000000
1478334.000000
1479069.000000
1479809.000000
1480538.000000
1481277.000000
1482022.000000
1482751.000000
1483480.000000
1484216.000000
1484943.000000
1485680.000000
1486429.000000
1487172.000000
1487912.000000
1488668.000000
1489434.000000
1490189.000000
1490959.000000
1491732.000000
1492485.000000
1493257.000000
1494036.000000
1494799.000000
1495576.000000
1496360.000000
1497120.000000
1497878.000000
1498651.000000
1499408.000000
1500148.000000
1500899.000000
1501656.000000
1502399.000000
1503142.000000
1503904.000000
1504667.000000
1505419.000000
1506183.000000
1506966.000000
1507736.000000
1508493.000000
1509251.000000
1510004.000000
1510735.000000
1511479.000000
1512222.000000
1512951.000000
1513687.000000
1514439.000000
1515190.000000
1515922.000000
1516672.000000
1517431.000000
1518183.000000
1518931.000000
1519694.000000
1520468.000000
1521227.000000
1522005.000000
1522784.000000
1523543.000000
1524299.000000
1525069.000000
1525835.000000
1526594.000000
1527372.000000
1528152.000000
1528923.000000
1529699.000000
1530470.000000
1531215.000000
1531962.000000
1532712.000000
1533444.000000
1534172.000000
1534915.000000
1535649.000000
1536387.000000
1537143.000000
1537902.000000
1538649.000000
1539427.000000
1540219.000000
1540998.000000
1541776.000000
1542566.000000
1543344.000000
1544125.000000
1544915.000000
1545691.000000
1546457.000000
1547232.000000
1548015.000000
1548769.000000
1549540.000000
1550316.000000
1551066.000000
1551822.000000
1552589.000000
1553331.000000
1554064.000000
1554811.000000
1555551.000000
1556280.000000
1557022.000000
1557768.000000
1558498.000000
1559227.000000
1559957.000000
1560679.000000
1561389.000000
1562107.000000
1562817.000000
1563527.000000
1564237.000000
1564942.000000
1565654.000000
1566368.000000
1567080.000000
1567790.000000
1568501.000000
1569222.000000
1570000.000000
1570804.000000
1571599.000000
1572367.000000
1573122.000000
1573855.000000
1574571.000000
1575271.000000
1575950.000000
1576617.000000
1577270.000000
1577919.000000
1578570.000000
1579228.000000
1579892.000000
1580565.000000
1581248.000000
1581937.000000
1582638.000000
1583344.000000
1584042.000000
1584741.000000
1585440.000000
1586140.000000
1586839.000000
1587532.000000
1588228.000000
1588928.000000
1589623.000000
1590317.000000
1591017.000000
1591716.000000
1592405.000000
1593092.000000
1593786.000000
1594486.000000
1595198.000000
1595909.000000
1596626.000000
1597358.000000
1598097.000000
1598839.000000
1599585.000000
1600320.000000
1601049.000000
1601783.000000
1602515.000000
1603246.000000
1603978.000000
1604696.000000
1605407.000000
1606119.000000
1606836.000000
1607553.000000
1608267.000000
1608975.000000
1609688.000000
1610406.000000
1611121.000000
1611835.000000
1612558.000000
1613285.000000
1614008.000000
1614739.000000
1615478.000000
1616213.000000
1616948.000000
1617682.000000
1618413.000000
1619136.000000
1619848.000000
1620545.000000
1621233.000000
1621918.000000
1622597.000000
1623272.000000
1623951.000000
1624628.000000
1625309.000000
1626001.000000
1626702.000000
1627406.000000
1628105.000000
1628813.000000
1629511.000000
1630205.000000
1630907.000000
1631612.000000
1632312.000000
1633000.000000
1633689.000000
1634379.000000
1635068.000000
1635750.000000
1636432.000000
1637123.000000
1637818.000000
1638513.000000
1639208.000000
1639915.000000
1640626.000000
1641339.000000
1642042.000000
1642745.000000
1643451.000000
1644152.000000
1644856.000000
1645572.000000
1646295.000000
1647017.000000
1647744.000000
1648480.000000
1649217.000000
1649947.000000
1650690.000000
1651438.000000
1652176.000000
1652912.000000
1653664.000000
1654425.000000
1655164.000000
1655896.000000
1656642.000000
1657392.000000
1658135.000000
1658865.000000
1659596.000000
1660338.000000
1661073.000000
1661794.000000
1662522.000000
1663267.000000
1664006.000000
1664735.000000
1665468.000000
1666213.000000
1666954.000000
1667683.000000
1668419.000000
1669162.000000
1669895.000000
1670626.000000
1671369.000000
1672116.000000
1672854.000000
1673587.000000
1674332.000000
1675069.000000
1675795.000000
1676539.000000
1677286.000000
1678021.000000
1678773.000000
1679526.000000
1680277.000000
1681019.000000
1681772.000000
1682522.000000
1683259.000000
1683992.000000
1684723.000000
1685454.000000
1686198.000000
1686936.000000
1687672.000000
1688406.000000
1689129.000000
1689854.000000
1690591.000000
1691318.000000
1692049.000000
1692797.000000
1693547.000000
1694288.000000
1695043.000000
1695813.000000
1696584.000000
1697345.000000
1698115.000000
1698890.000000
1699645.000000
1700407.000000
1701171.000000
1701919.000000
1702656.000000
1703400.000000
1704147.000000
1704878.000000
1705605.000000
1706339.000000
1707075.000000
1707810.000000
1708536.000000
1709266.000000
1710004.000000
1710745.000000
1711475.000000
1712205.000000
1712946.000000
1713690.000000
1714421.000000
1715147.000000
1715881.000000
1716618.000000
1717345.000000
1718064.000000
1718793.000000
1719536.000000
1720277.000000
1721017.000000
1721764.000000
1722519.000000
1723276.000000
1724022.000000
1724781.000000
1725542.000000
1726292.000000
1727047.000000
1727810.000000
1728565.000000
1729323.000000
1730099.000000
1730868.000000
1731642.000000
1732431.000000
1733218.000000
1733987.000000
1734773.000000
1735563.000000
1736333.000000
1737117.000000
1737902.000000
1738666.000000
1739439.000000
1740218.000000
1740970.000000
1741714.000000
1742459.000000
1743188.000000
1743906.000000
1744624.000000
1745345.000000
1746052.000000
1746763.000000
1747485.000000
1748213.000000
1748933.000000
1749662.000000
1750400.000000
1751143.000000
1751878.000000
1752625.000000
1753375.000000
1754111.000000
1754851.000000
1755595.000000
1756330.000000
1757062.000000
1757805.000000
1758548.000000
1759281.000000
1760027.000000
1760777.000000
1761526.000000
1762286.000000
1763045.000000
1763787.000000
1764535.000000
1765287.000000
1766025.000000
1766761.000000
1767506.000000
1768239.000000
1768973.000000
1769715.000000
1770457.000000
1771181.000000
1771909.000000
1772641.000000
1773366.000000
1774092.000000
1774823.000000
1775546.000000
1776275.000000
1777013.000000
1777732.000000
1778452.000000
1779183.000000
1779901.000000
1780621.000000
1781357.000000
1782090.000000
1782815.000000
1783548.000000
1784288.000000
1785025.000000
1785757.000000
1786497.000000
1787249.000000
1788007.000000
1788756.000000
1789504.000000
1790268.000000
1791034.000000
1791787.000000
1792541.000000
1793300.000000
1794055.000000
1794789.000000
1795524.000000
1796269.000000
1797018.000000
1797752.000000
1798493.000000
1799244.000000
1800001.000000
1800750.000000
