ECG (ms)
927.000000
1876.000000
2940.000000
3887.000000
4915.000000
5935.000000
6841.000000
7839.000000
8764.000000
9667.000000
10672.000000
11586.000000
12599.000000
13533.000000
14562.000000
15487.000000
16386.000000
17078.000000
17273.000000
18273.000000
19258.000000
20315.000000
21196.000000
21927.000000
22917.000000
23727.000000
24476.000000
25229.000000
25983.000000
26737.000000
27589.000000
28571.000000
29490.000000
30424.000000
31313.000000
32229.000000
33110.000000
33965.000000
34775.000000
35585.000000
36422.000000
37254.000000
38170.000000
39063.000000
39998.000000
40876.000000
41741.000000
42582.000000
43409.000000
44233.000000
45106.000000
45923.000000
46798.000000
47703.000000
48518.000000
49504.000000
50397.000000
51308.000000
52210.000000
53179.000000
54097.000000
55021.000000
56004.000000
56912.000000
57944.000000
58917.000000
59888.000000
60891.000000
61782.000000
62750.000000
63713.000000
64654.000000
65635.000000
66585.000000
67456.000000
68355.000000
69273.000000
70200.000000
71162.000000
72281.000000
73245.000000
74275.000000
75245.000000
76204.000000
77178.000000
78101.000000
79132.000000
80160.000000
81090.000000
82089.000000
83016.000000
83992.000000
85024.000000
85949.000000
86990.000000
87981.000000
88903.000000
89928.000000
90897.000000
91830.000000
92908.000000
93846.000000
94759.000000
95698.000000
96570.000000
97521.000000
98586.000000
99549.000000
100628.000000
101576.000000
102529.000000
103523.000000
104454.000000
105474.000000
106525.000000
107509.000000
108594.000000
109597.000000
110576.000000
111594.000000
112524.000000
113520.000000
114558.000000
115489.000000
116514.000000
117475.000000
118407.000000
119389.000000
120306.000000
121297.000000
122315.000000
123266.000000
124340.000000
125318.000000
126228.000000
127194.000000
128114.000000
129005.000000
129899.000000
130805.000000
131707.000000
132746.000000
133712.000000
134634.000000
135563.000000
136409.000000
137290.000000
138221.000000
139102.000000
140034.000000
141029.000000
141936.000000
142882.000000
143763.000000
144692.000000
145626.000000
146497.000000
147457.000000
148456.000000
149349.000000
150312.000000
151247.000000
152139.000000
153092.000000
153942.000000
154823.000000
155699.000000
156610.000000
157647.000000
158575.000000
159552.000000
160521.000000
161421.000000
162419.000000
163347.000000
164303.000000
165306.000000
166213.000000
167167.000000
168151.000000
169057.000000
170037.000000
170998.000000
171887.000000
172842.000000
173737.000000
174598.000000
175487.000000
176306.000000
177113.000000
177885.000000
178747.000000
179839.000000
180802.000000
181701.000000
182632.000000
183478.000000
184305.000000
185188.000000
186055.000000
186919.000000
187895.000000
188815.000000
189713.000000
190666.000000
191593.000000
192461.000000
193400.000000
194370.000000
195310.000000
196343.000000
197329.000000
198262.000000
199277.000000
200217.000000
201142.000000
202133.000000
203109.000000
204042.000000
205096.000000
206032.000000
206955.000000
207953.000000
208882.000000
209850.000000
210863.000000
211752.000000
212692.000000
213640.000000
214530.000000
215510.000000
216531.000000
217462.000000
218425.000000
219301.000000
220177.000000
221130.000000
222027.000000
223006.000000
223990.000000
224938.000000
225955.000000
226907.000000
227891.000000
228818.000000
229685.000000
230628.000000
231550.000000
232483.000000
233467.000000
234345.000000
235278.000000
236202.000000
237074.000000
237959.000000
238793.000000
239567.000000
240382.000000
241402.000000
242279.000000
243251.000000
244179.000000
245057.000000
246011.000000
246898.000000
247762.000000
248655.000000
249502.000000
250459.000000
251402.000000
252342.000000
253321.000000
254200.000000
255142.000000
256022.000000
256967.000000
257882.000000
258842.000000
259831.000000
260740.000000
261712.000000
262688.000000
263595.000000
264601.000000
265513.000000
266425.000000
267385.000000
268296.000000
269327.000000
270292.000000
271184.000000
272139.000000
273022.000000
273970.000000
275034.000000
275943.000000
276950.000000
277933.000000
278828.000000
279815.000000
280755.000000
281615.000000
282577.000000
283462.000000
284410.000000
285367.000000
286301.000000
287246.000000
288127.000000
288912.000000
289685.000000
290483.000000
291692.000000
292747.000000
293685.000000
294701.000000
295694.000000
296594.000000
297538.000000
298513.000000
299468.000000
300547.000000
301524.000000
302528.000000
303537.000000
304495.000000
305369.000000
306322.000000
307236.000000
308239.000000
309279.000000
310219.000000
311236.000000
312183.000000
313151.000000
314200.000000
315134.000000
316093.000000
317040.000000
317914.000000
318862.000000
319836.000000
320739.000000
321747.000000
322673.000000
323584.000000
324507.000000
325354.000000
326264.000000
327265.000000
328190.000000
329199.000000
330171.000000
331082.000000
332084.000000
333026.000000
333895.000000
334803.000000
335706.000000
336576.000000
337541.000000
338506.000000
339441.000000
340434.000000
341311.000000
342224.000000
343187.000000
344076.000000
345051.000000
346010.000000
346908.000000
347892.000000
348828.000000
349716.000000
350665.000000
351555.000000
352522.000000
353529.000000
354456.000000
355465.000000
356413.000000
357292.000000
358242.000000
359149.000000
360008.000000
360951.000000
361830.000000
362724.000000
363653.000000
364602.000000
365477.000000
366369.000000
367279.000000
368169.000000
369007.000000
369926.000000
370850.000000
371739.000000
372776.000000
373704.000000
374657.000000
375583.000000
376446.000000
377361.000000
378244.000000
379096.000000
380036.000000
380947.000000
381824.000000
382746.000000
383638.000000
384487.000000
385422.000000
386339.000000
387211.000000
388178.000000
389127.000000
390000.000000
390926.000000
391824.000000
392721.000000
393694.000000
394587.000000
395555.000000
396498.000000
397385.000000
398331.000000
399250.000000
400123.000000
401093.000000
402034.000000
402904.000000
403844.000000
404762.000000
405651.000000
406627.000000
407529.000000
408433.000000
409359.000000
410178.000000
411008.000000
411845.000000
412655.000000
413417.000000
414262.000000
415305.000000
416163.000000
417051.000000
417949.000000
418801.000000
419712.000000
420639.000000
421518.000000
422478.000000
423403.000000
424263.000000
425206.000000
426149.000000
427010.000000
427921.000000
428818.000000
429670.000000
430619.000000
431541.000000
432407.000000
433347.000000
434278.000000
435132.000000
436047.000000
436965.000000
437846.000000
438769.000000
439682.000000
440506.000000
441358.000000
442409.000000
443439.000000
444397.000000
445473.000000
446442.000000
447422.000000
448390.000000
449287.000000
450293.000000
451277.000000
452194.000000
453171.000000
454083.000000
454973.000000
455945.000000
456846.000000
457778.000000
458719.000000
459584.000000
460565.000000
461601.000000
462540.000000
463590.000000
464524.000000
465475.000000
466479.000000
467412.000000
468471.000000
469498.000000
470463.000000
471523.000000
472467.000000
473518.000000
474472.000000
475391.000000
476430.000000
477389.000000
478344.000000
479334.000000
480252.000000
481243.000000
482200.000000
483066.000000
484041.000000
484963.000000
485902.000000
486973.000000
487945.000000
488998.000000
489955.000000
490867.000000
491807.000000
492700.000000
493561.000000
494507.000000
495498.000000
496449.000000
497487.000000
498467.000000
499377.000000
500369.000000
501297.000000
502342.000000
503357.000000
504298.000000
505325.000000
506277.000000
507209.000000
508216.000000
509099.000000
510022.000000
511015.000000
511915.000000
512924.000000
513919.000000
514840.000000
515890.000000
516874.000000
517790.000000
518781.000000
519729.000000
520667.000000
521786.000000
522782.000000
523743.000000
524789.000000
525703.000000
526653.000000
527678.000000
528602.000000
529636.000000
530654.000000
531594.000000
532662.000000
533678.000000
534602.000000
535615.000000
536575.000000
537525.000000
538567.000000
539502.000000
540498.000000
541532.000000
542409.000000
543330.000000
544257.000000
545141.000000
546147.000000
547094.000000
548035.000000
548995.000000
549885.000000
550927.000000
552022.000000
553056.000000
554136.000000
555084.000000
556085.000000
557075.000000
557990.000000
558987.000000
559934.000000
560869.000000
561953.000000
562911.000000
563862.000000
564777.000000
565636.000000
566583.000000
567606.000000
568549.000000
569588.000000
570496.000000
571423.000000
572383.000000
573263.000000
574239.000000
575235.000000
576127.000000
576983.000000
577773.000000
578604.000000
579419.000000
580498.000000
581534.000000
582423.000000
583372.000000
584232.000000
585002.000000
585963.000000
586891.000000
587853.000000
588879.000000
589709.000000
590694.000000
591672.000000
592550.000000
593591.000000
594556.000000
595449.000000
596434.000000
597428.000000
598367.000000
599383.000000
600329.000000
601254.000000
602254.000000
603155.000000
604104.000000
605152.000000
606081.000000
607111.000000
608070.000000
608980.000000
610011.000000
610947.000000
611895.000000
612939.000000
613865.000000
614880.000000
615849.000000
616735.000000
617711.000000
618694.000000
619600.000000
620626.000000
621601.000000
622537.000000
623548.000000
624490.000000
625416.000000
626497.000000
627399.000000
628320.000000
629351.000000
630326.000000
631411.000000
632437.000000
633408.000000
634415.000000
635305.000000
636253.000000
637210.000000
638120.000000
639198.000000
640244.000000
641181.000000
642168.000000
643050.000000
643980.000000
644930.000000
645830.000000
646826.000000
647752.000000
648703.000000
649721.000000
650650.000000
651668.000000
652649.000000
653576.000000
654577.000000
655565.000000
656502.000000
657515.000000
658486.000000
659438.000000
660471.000000
661366.000000
662300.000000
663276.000000
664274.000000
665274.000000
666208.000000
667222.000000
668238.000000
669221.000000
670248.000000
671208.000000
672159.000000
673195.000000
674124.000000
675136.000000
676112.000000
677023.000000
678053.000000
678970.000000
679992.000000
680957.000000
681944.000000
683004.000000
683931.000000
684894.000000
685987.000000
686993.000000
687896.000000
688897.000000
689882.000000
690842.000000
691879.000000
692817.000000
693816.000000
694703.000000
695602.000000
696524.000000
697400.000000
698379.000000
699346.000000
700272.000000
701260.000000
702237.000000
703124.000000
704075.000000
704985.000000
705863.000000
706875.000000
707848.000000
708757.000000
709723.000000
710640.000000
711538.000000
712527.000000
713457.000000
714352.000000
715333.000000
716255.000000
717186.000000
718184.000000
719117.000000
720042.000000
721059.000000
722004.000000
722907.000000
723857.000000
724779.000000
725662.000000
726659.000000
727613.000000
728504.000000
729469.000000
730383.000000
731251.000000
732212.000000
733153.000000
734016.000000
734946.000000
735845.000000
736700.000000
737622.000000
738505.000000
739356.000000
740285.000000
741191.000000
742050.000000
742975.000000
743874.000000
744739.000000
745685.000000
746621.000000
747484.000000
748407.000000
749361.000000
750219.000000
751131.000000
752084.000000
752971.000000
753978.000000
754963.000000
755849.000000
756818.000000
757772.000000
758664.000000
759691.000000
760648.000000
761578.000000
762577.000000
763482.000000
764393.000000
765308.000000
766184.000000
767198.000000
768165.000000
769099.000000
770142.000000
771059.000000
772000.000000
772979.000000
773869.000000
774881.000000
775901.000000
776825.000000
777872.000000
778852.000000
779814.000000
780869.000000
781809.000000
782729.000000
783751.000000
784681.000000
785656.000000
786655.000000
787557.000000
788532.000000
789492.000000
790384.000000
791467.000000
792500.000000
793441.000000
794508.000000
795493.000000
796409.000000
797408.000000
798340.000000
799220.000000
800220.000000
801216.000000
802135.000000
803177.000000
804181.000000
805124.000000
806183.000000
807199.000000
808129.000000
809124.000000
810063.000000
810935.000000
811917.000000
812891.000000
813803.000000
814849.000000
815814.000000
816764.000000
817795.000000
818716.000000
819655.000000
820552.000000
821395.000000
822308.000000
823272.000000
824146.000000
825084.000000
825994.000000
826850.000000
827748.000000
828635.000000
829450.000000
830325.000000
831256.000000
832102.000000
832969.000000
833957.000000
834867.000000
835855.000000
836822.000000
837703.000000
838614.000000
839422.000000
840171.000000
840955.000000
842090.000000
843185.000000
844154.000000
845184.000000
846164.000000
846986.000000
847916.000000
849009.000000
849909.000000
850922.000000
851894.000000
852802.000000
853825.000000
854832.000000
855770.000000
856797.000000
857740.000000
858686.000000
859682.000000
860575.000000
861528.000000
862497.000000
863436.000000
864405.000000
865287.000000
866180.000000
867127.000000
867984.000000
868926.000000
869886.000000
870797.000000
871858.000000
872872.000000
873799.000000
874784.000000
875703.000000
876579.000000
877540.000000
878466.000000
879384.000000
880374.000000
881274.000000
882178.000000
883159.000000
884074.000000
885042.000000
886048.000000
886932.000000
887821.000000
888689.000000
889463.000000
890199.000000
891414.000000
892494.000000
893494.000000
894524.000000
895423.000000
896333.000000
897309.000000
898181.000000
899147.000000
900161.000000
901073.000000
902140.000000
903155.000000
904082.000000
904979.000000
905849.000000
906708.000000
907712.000000
908673.000000
909695.000000
910776.000000
911730.000000
912759.000000
913721.000000
914700.000000
915710.000000
916639.000000
917672.000000
918685.000000
919650.000000
920716.000000
921609.000000
922557.000000
923678.000000
924663.000000
925734.000000
926827.000000
927761.000000
928785.000000
929764.000000
930762.000000
931668.000000
932688.000000
933641.000000
934694.000000
935643.000000
936573.000000
937615.000000
938549.000000
939554.000000
940540.000000
941445.000000
942425.000000
943399.000000
944322.000000
945353.000000
946373.000000
947261.000000
948223.000000
949181.000000
950092.000000
951071.000000
951975.000000
952840.000000
953806.000000
954776.000000
955659.000000
956643.000000
957579.000000
958504.000000
959530.000000
960446.000000
961482.000000
962496.000000
963444.000000
964444.000000
965385.000000
966303.000000
967316.000000
968225.000000
969184.000000
970127.000000
971024.000000
972088.000000
973109.000000
974044.000000
975076.000000
976054.000000
976967.000000
977991.000000
978954.000000
979845.000000
980821.000000
981822.000000
982730.000000
983730.000000
984719.000000
985631.000000
986666.000000
987647.000000
988555.000000
989513.000000
990459.000000
991325.000000
992285.000000
993256.000000
994167.000000
995190.000000
996110.000000
996995.000000
997948.000000
998842.000000
999711.000000
1000745.000000
1001713.000000
1002641.000000
1003640.000000
1004534.000000
1005430.000000
1006390.000000
1007318.000000
1008253.000000
1009299.000000
1010254.000000
1011253.000000
1012281.000000
1013196.000000
1014192.000000
1015183.000000
1016115.000000
1017186.000000
1018168.000000
1019069.000000
1020007.000000
1020927.000000
1021804.000000
1022820.000000
1023831.000000
1024807.000000
1025898.000000
1026877.000000
1027808.000000
1028840.000000
1029786.000000
1030692.000000
1031723.000000
1032707.000000
1033698.000000
1034871.000000
1035879.000000
1036920.000000
1037943.000000
1038812.000000
1039647.000000
1040602.000000
1041801.000000
1042948.000000
1044000.000000
1045114.000000
1046140.000000
1047137.000000
1048200.000000
1049212.000000
1050216.000000
1051309.000000
1052359.000000
1053405.000000
1054465.000000
1055438.000000
1056504.000000
1057528.000000
1058551.000000
1059651.000000
1060632.000000
1061616.000000
1062662.000000
1063606.000000
1064653.000000
1065726.000000
1066696.000000
1067739.000000
1068696.000000
1069635.000000
1070664.000000
1071600.000000
1072529.000000
1073521.000000
1074452.000000
1075466.000000
1076491.000000
1077397.000000
1078348.000000
1079256.000000
1080111.000000
1080991.000000
1081966.000000
1082887.000000
1083868.000000
1084892.000000
1085841.000000
1086871.000000
1087798.000000
1088699.000000
1089684.000000
1090640.000000
1091656.000000
1092761.000000
1093740.000000
1094762.000000
1095728.000000
1096624.000000
1097606.000000
1098601.000000
1099542.000000
1100627.000000
1101609.000000
1102573.000000
1103508.000000
1104361.000000
1105251.000000
1106192.000000
1107096.000000
1108147.000000
1109112.000000
1110014.000000
1110958.000000
1111851.000000
1112729.000000
1113677.000000
1114621.000000
1115544.000000
1116499.000000
1117373.000000
1118336.000000
1119335.000000
1120286.000000
1121318.000000
1122261.000000
1123182.000000
1124147.000000
1125060.000000
1126043.000000
1126980.000000
1127910.000000
1128881.000000
1129778.000000
1130721.000000
1131721.000000
1132651.000000
1133677.000000
1134700.000000
1135643.000000
1136671.000000
1137656.000000
1138639.000000
1139738.000000
1140732.000000
1141742.000000
1142757.000000
1143691.000000
1144719.000000
1145686.000000
1146748.000000
1147738.000000
1148709.000000
1149564.000000
1150544.000000
1151479.000000
1152329.000000
1153098.000000
1153906.000000
1154936.000000
1156017.000000
1156952.000000
1157980.000000
1158980.000000
1159881.000000
1160927.000000
1161899.000000
1162827.000000
1163890.000000
1164917.000000
1165880.000000
1166920.000000
1167912.000000
1168830.000000
1169902.000000
1170909.000000
1171840.000000
1172901.000000
1173920.000000
1174893.000000
1175956.000000
1176898.000000
1177839.000000
1178874.000000
1179815.000000
1180899.000000
1181993.000000
1182995.000000
1184046.000000
1185038.000000
1185988.000000
1187121.000000
1188118.000000
1189156.000000
1190218.000000
1191167.000000
1192224.000000
1193218.000000
1194199.000000
1195274.000000
1196230.000000
1197289.000000
1198359.000000
1199341.000000
1200416.000000
1201407.000000
1202383.000000
1203471.000000
1204435.000000
1205446.000000
1206506.000000
1207464.000000
1208545.000000
1209565.000000
1210520.000000
1211590.000000
1212617.000000
1213567.000000
1214605.000000
1215594.000000
1216545.000000
1217663.000000
1218701.000000
1219662.000000
1220722.000000
1221745.000000
1222699.000000
1223757.000000
1224714.000000
1225734.000000
1226807.000000
1227786.000000
1228864.000000
1229841.000000
1230815.000000
1231842.000000
1232784.000000
1233840.000000
1234811.000000
1235792.000000
1236863.000000
1237811.000000
1238846.000000
1239818.000000
1240702.000000
1241631.000000
1242703.000000
1243671.000000
1244731.000000
