ECG (ms)
596.000000
1663.000000
2661.000000
3811.000000
4996.000000
6107.000000
7149.000000
8254.000000
9363.000000
10414.000000
11425.000000
12505.000000
13619.000000
14719.000000
15691.000000
16743.000000
17819.000000
18921.000000
19950.000000
21105.000000
22327.000000
23522.000000
24660.000000
25720.000000
26818.000000
27967.000000
29114.000000
30219.000000
31218.000000
32381.000000
33569.000000
34705.000000
35723.000000
36735.000000
37843.000000
38950.000000
40036.000000
40995.000000
41991.000000
43136.000000
44339.000000
45461.000000
46459.000000
47589.000000
48774.000000
49937.000000
51041.000000
52082.000000
53243.000000
54416.000000
55569.000000
56653.000000
57691.000000
58866.000000
60088.000000
61261.000000
62368.000000
63416.000000
64581.000000
65748.000000
66920.000000
68055.000000
69078.000000
70134.000000
71278.000000
72469.000000
73615.000000
74726.000000
75843.000000
77042.000000
78225.000000
79377.000000
80474.000000
81478.000000
82628.000000
83825.000000
85013.000000
86105.000000
87254.000000
88460.000000
89644.000000
90721.000000
91853.000000
93018.000000
94178.000000
95193.000000
96195.000000
97417.000000
98654.000000
99845.000000
100910.000000
102040.000000
103229.000000
104319.000000
105357.000000
106521.000000
107672.000000
108692.000000
109837.000000
111022.000000
112164.000000
113230.000000
114377.000000
115547.000000
116651.000000
117631.000000
118734.000000
119957.000000
121189.000000
122269.000000
123435.000000
124607.000000
125719.000000
126721.000000
127763.000000
128863.000000
129952.000000
131000.000000
132145.000000
133307.000000
134450.000000
135474.000000
136518.000000
137636.000000
138774.000000
139879.000000
140921.000000
142055.000000
143209.000000
144333.000000
145320.000000
146385.000000
147512.000000
148614.000000
149606.000000
150643.000000
151763.000000
152886.000000
153905.000000
154939.000000
156102.000000
157237.000000
158294.000000
159304.000000
160374.000000
161470.000000
162470.000000
163507.000000
164678.000000
165829.000000
166848.000000
167893.000000
169014.000000
170129.000000
171130.000000
172127.000000
173191.000000
174254.000000
175317.000000
176268.000000
177362.000000
178519.000000
179640.000000
180637.000000
181723.000000
182839.000000
183896.000000
184870.000000
185958.000000
187108.000000
188116.000000
189149.000000
190249.000000
191322.000000
192299.000000
193364.000000
194489.000000
195592.000000
196575.000000
197665.000000
198792.000000
199854.000000
200813.000000
201874.000000
202994.000000
204074.000000
205083.000000
206366.000000
207605.000000
208786.000000
209924.000000
211118.000000
212259.000000
213341.000000
214516.000000
215720.000000
216887.000000
217999.000000
219182.000000
220397.000000
221520.000000
222527.000000
223645.000000
224826.000000
225913.000000
227103.000000
228309.000000
229442.000000
230531.000000
231704.000000
232870.000000
233974.000000
235009.000000
236157.000000
237279.000000
238321.000000
239521.000000
240724.000000
241870.000000
242898.000000
243948.000000
245070.000000
246205.000000
247321.000000
248366.000000
249530.000000
250744.000000
251897.000000
253032.000000
254222.000000
255409.000000
256486.000000
257586.000000
258756.000000
259947.000000
261075.000000
262102.000000
263301.000000
264513.000000
265677.000000
266737.000000
267879.000000
269045.000000
270219.000000
271344.000000
272410.000000
273584.000000
274760.000000
275931.000000
277047.000000
278115.000000
279148.000000
280346.000000
281528.000000
282686.000000
283742.000000
284803.000000
285935.000000
287069.000000
288177.000000
289196.000000
290277.000000
291429.000000
292588.000000
293718.000000
294759.000000
295772.000000
296703.000000
297635.000000
298687.000000
299780.000000
300729.000000
301737.000000
302844.000000
303996.000000
305046.000000
306095.000000
307232.000000
308367.000000
309458.000000
310412.000000
311460.000000
312598.000000
313729.000000
314789.000000
315873.000000
317073.000000
318229.000000
319349.000000
320339.000000
321428.000000
322635.000000
323793.000000
324832.000000
325947.000000
327140.000000
328299.000000
329342.000000
330458.000000
331620.000000
332707.000000
333780.000000
334905.000000
336052.000000
337168.000000
338215.000000
339367.000000
340618.000000
341847.000000
342974.000000
344080.000000
345288.000000
346474.000000
347579.000000
348589.000000
349780.000000
351007.000000
352175.000000
353231.000000
354404.000000
355607.000000
356778.000000
357930.000000
359050.000000
360095.000000
361236.000000
362378.000000
363511.000000
364532.000000
365688.000000
366874.000000
368010.000000
369038.000000
370129.000000
371282.000000
372406.000000
373427.000000
374423.000000
375621.000000
376786.000000
377845.000000
378968.000000
380148.000000
381272.000000
382282.000000
383371.000000
384468.000000
385583.000000
386619.000000
387596.000000
388719.000000
389901.000000
391048.000000
392072.000000
393189.000000
394347.000000
395462.000000
396496.000000
397439.000000
398515.000000
399629.000000
400684.000000
401638.000000
402720.000000
403858.000000
404937.000000
405944.000000
407055.000000
408156.000000
409132.000000
410179.000000
411302.000000
412357.000000
413340.000000
414443.000000
415555.000000
416538.000000
417587.000000
418678.000000
419731.000000
420677.000000
421702.000000
422761.000000
423778.000000
424751.000000
425845.000000
426964.000000
428093.000000
429136.000000
430200.000000
431334.000000
432456.000000
433486.000000
434546.000000
435668.000000
436785.000000
437808.000000
438865.000000
440035.000000
441189.000000
442235.000000
443335.000000
444444.000000
445499.000000
446464.000000
447524.000000
448709.000000
449845.000000
450894.000000
452106.000000
453316.000000
454413.000000
455465.000000
456607.000000
457788.000000
458852.000000
459816.000000
460941.000000
462102.000000
463169.000000
464322.000000
465522.000000
466646.000000
467669.000000
468820.000000
469984.000000
471068.000000
472136.000000
473344.000000
474518.000000
475654.000000
476652.000000
477685.000000
478703.000000
479750.000000
480778.000000
481736.000000
482911.000000
484149.000000
485356.000000
486444.000000
487611.000000
488766.000000
489881.000000
490842.000000
491773.000000
492767.000000
493823.000000
494925.000000
495881.000000
496958.000000
498072.000000
499156.000000
500127.000000
501102.000000
502175.000000
503235.000000
504215.000000
505181.000000
506180.000000
507210.000000
508193.000000
509154.000000
510161.000000
511211.000000
512264.000000
513247.000000
514141.000000
515105.000000
516149.000000
517217.000000
518233.000000
519134.000000
520087.000000
521115.000000
522120.000000
523036.000000
523886.000000
524789.000000
525784.000000
526814.000000
527764.000000
528702.000000
529720.000000
530772.000000
531764.000000
532682.000000
533675.000000
534670.000000
535650.000000
536552.000000
537535.000000
538582.000000
539610.000000
540584.000000
541673.000000
542836.000000
543946.000000
544920.000000
545975.000000
547061.000000
548087.000000
549015.000000
549961.000000
551040.000000
552158.000000
553166.000000
554181.000000
555309.000000
556444.000000
557480.000000
558502.000000
559593.000000
560698.000000
561748.000000
562739.000000
563856.000000
564999.000000
566079.000000
567145.000000
568283.000000
569425.000000
570572.000000
571650.000000
572747.000000
573892.000000
575043.000000
576113.000000
577122.000000
578261.000000
579416.000000
580548.000000
581572.000000
582685.000000
583864.000000
585067.000000
586162.000000
587233.000000
588410.000000
589577.000000
590648.000000
591654.000000
592816.000000
593992.000000
595135.000000
596172.000000
597310.000000
598458.000000
599559.000000
600618.000000
601713.000000
602911.000000
604075.000000
605184.000000
606230.000000
607382.000000
608561.000000
609696.000000
610744.000000
611868.000000
613050.000000
614182.000000
615273.000000
616425.000000
617587.000000
618675.000000
619703.000000
620942.000000
622161.000000
623337.000000
624395.000000
625592.000000
626830.000000
628002.000000
629075.000000
630245.000000
631445.000000
632629.000000
633681.000000
634646.000000
635792.000000
636984.000000
637990.000000
638940.000000
639902.000000
641073.000000
642224.000000
643348.000000
644362.000000
645413.000000
646566.000000
647722.000000
648763.000000
649736.000000
650981.000000
652210.000000
653365.000000
654427.000000
655633.000000
656838.000000
657976.000000
659010.000000
660124.000000
661293.000000
662477.000000
663639.000000
664743.000000
665920.000000
667101.000000
668207.000000
669257.000000
670368.000000
671498.000000
672648.000000
673744.000000
674951.000000
676191.000000
677343.000000
678446.000000
679633.000000
680796.000000
681904.000000
682918.000000
683963.000000
685147.000000
686329.000000
687421.000000
688576.000000
689757.000000
690933.000000
692072.000000
693067.000000
694174.000000
695348.000000
696540.000000
697647.000000
698832.000000
700040.000000
701169.000000
702228.000000
703431.000000
704643.000000
705782.000000
706802.000000
707972.000000
709156.000000
710304.000000
711335.000000
712413.000000
713585.000000
714725.000000
715737.000000
716853.000000
718009.000000
719181.000000
720228.000000
721346.000000
722522.000000
723656.000000
724673.000000
725761.000000
726896.000000
728080.000000
729209.000000
730251.000000
731403.000000
732550.000000
733658.000000
734718.000000
735760.000000
736912.000000
738104.000000
739215.000000
740214.000000
741334.000000
742512.000000
743643.000000
744712.000000
745796.000000
746930.000000
747957.000000
748979.000000
750169.000000
751336.000000
752379.000000
753517.000000
754693.000000
755845.000000
756852.000000
757937.000000
759059.000000
760151.000000
761118.000000
762168.000000
763299.000000
764382.000000
765333.000000
766369.000000
767510.000000
768669.000000
769765.000000
770755.000000
771846.000000
773054.000000
774239.000000
775302.000000
776418.000000
777588.000000
778696.000000
779680.000000
780791.000000
781904.000000
782913.000000
783834.000000
784911.000000
786031.000000
787076.000000
788108.000000
789258.000000
790421.000000
791468.000000
792556.000000
793676.000000
794789.000000
795791.000000
796911.000000
798063.000000
799190.000000
800208.000000
801298.000000
802412.000000
803529.000000
804531.000000
805573.000000
806696.000000
807857.000000
808920.000000
810002.000000
811195.000000
812372.000000
813497.000000
814484.000000
815572.000000
816669.000000
817725.000000
818658.000000
819609.000000
820722.000000
821882.000000
822904.000000
823934.000000
825080.000000
826188.000000
827158.000000
828147.000000
829169.000000
830219.000000
831175.000000
832092.000000
833137.000000
834223.000000
835256.000000
836200.000000
837191.000000
838231.000000
839279.000000
840271.000000
841186.000000
842172.000000
843212.000000
844242.000000
845204.000000
846175.000000
847163.000000
848155.000000
849091.000000
850125.000000
851209.000000
852261.000000
853212.000000
854188.000000
855205.000000
856225.000000
857130.000000
858163.000000
859243.000000
860255.000000
861266.000000
862373.000000
863451.000000
864404.000000
865362.000000
866386.000000
867416.000000
868350.000000
869289.000000
870339.000000
871402.000000
872398.000000
873419.000000
874520.000000
875573.000000
876538.000000
877544.000000
878550.000000
879460.000000
880421.000000
881447.000000
882396.000000
883336.000000
884348.000000
885319.000000
886216.000000
887173.000000
888179.000000
889170.000000
890133.000000
891068.000000
892045.000000
893003.000000
893877.000000
894713.000000
895529.000000
896488.000000
897544.000000
898513.000000
899445.000000
900428.000000
