ECG (ms)
392.000000
1541.000000
2710.000000
3930.000000
5160.000000
6397.000000
7623.000000
8833.000000
9988.000000
11117.000000
12307.000000
13552.000000
14808.000000
15955.000000
17138.000000
18347.000000
19547.000000
20722.000000
21848.000000
22954.000000
24189.000000
25386.000000
26409.000000
27514.000000
28626.000000
29818.000000
31104.000000
32391.000000
33656.000000
34851.000000
36033.000000
37297.000000
38570.000000
39782.000000
40933.000000
42150.000000
43387.000000
44575.000000
45754.000000
46838.000000
48008.000000
49230.000000
50446.000000
51648.000000
52804.000000
53942.000000
55119.000000
56368.000000
57627.000000
58856.000000
60039.000000
61142.000000
62287.000000
63460.000000
64651.000000
65827.000000
66972.000000
68183.000000
69415.000000
70622.000000
71804.000000
72952.000000
74087.000000
75283.000000
76499.000000
77712.000000
78896.000000
80044.000000
81141.000000
82258.000000
83402.000000
84519.000000
85532.000000
86679.000000
87879.000000
89045.000000
90184.000000
91342.000000
92562.000000
93774.000000
94979.000000
96172.000000
97320.000000
98497.000000
99716.000000
100900.000000
102082.000000
103227.000000
104365.000000
105568.000000
106803.000000
108047.000000
109222.000000
110344.000000
111476.000000
112707.000000
113932.000000
115145.000000
116335.000000
117512.000000
118624.000000
119851.000000
121109.000000
122343.000000
123555.000000
124695.000000
125843.000000
127078.000000
128290.000000
129447.000000
130591.000000
131800.000000
133036.000000
134271.000000
135453.000000
136577.000000
137700.000000
138859.000000
140077.000000
141320.000000
142547.000000
143715.000000
144826.000000
145944.000000
147109.000000
148382.000000
149667.000000
150921.000000
152148.000000
153306.000000
154404.000000
155510.000000
156666.000000
157899.000000
159139.000000
160374.000000
161588.000000
162750.000000
163855.000000
164961.000000
166092.000000
167291.000000
168538.000000
169776.000000
171001.000000
172176.000000
173272.000000
174351.000000
175471.000000
176687.000000
177935.000000
179156.000000
180361.000000
181531.000000
182658.000000
183764.000000
184908.000000
186102.000000
187298.000000
188491.000000
189678.000000
190854.000000
191984.000000
193111.000000
194278.000000
195499.000000
196728.000000
197934.000000
199100.000000
200205.000000
201298.000000
202422.000000
203643.000000
204905.000000
206146.000000
207353.000000
208568.000000
209702.000000
210836.000000
211994.000000
213249.000000
214479.000000
215695.000000
216910.000000
218070.000000
219180.000000
220323.000000
221546.000000
222802.000000
224089.000000
225343.000000
226562.000000
227631.000000
228702.000000
229847.000000
231142.000000
232465.000000
233748.000000
235002.000000
236216.000000
237365.000000
238502.000000
239735.000000
240991.000000
242253.000000
243497.000000
244682.000000
245790.000000
246924.000000
248133.000000
249402.000000
250647.000000
251886.000000
253099.000000
254246.000000
255363.000000
256509.000000
257492.000000
258473.000000
259612.000000
260717.000000
261891.000000
263180.000000
264461.000000
265589.000000
266655.000000
267798.000000
268927.000000
269979.000000
271061.000000
272290.000000
273522.000000
274753.000000
275962.000000
277090.000000
278193.000000
279308.000000
280444.000000
281689.000000
282904.000000
284152.000000
285371.000000
286589.000000
287743.000000
288803.000000
289890.000000
291050.000000
292250.000000
293436.000000
294579.000000
295666.000000
296818.000000
297993.000000
299168.000000
300325.000000
301417.000000
302508.000000
303672.000000
304782.000000
305945.000000
307118.000000
308284.000000
309408.000000
310478.000000
311606.000000
312759.000000
313897.000000
315056.000000
316087.000000
317122.000000
318214.000000
319230.000000
320225.000000
321341.000000
322520.000000
323684.000000
324776.000000
325907.000000
327135.000000
328400.000000
329648.000000
330871.000000
332026.000000
333162.000000
334337.000000
335623.000000
336887.000000
338102.000000
339226.000000
340392.000000
341651.000000
342916.000000
344151.000000
345346.000000
346459.000000
347600.000000
348792.000000
350111.000000
351436.000000
352715.000000
353969.000000
355138.000000
356257.000000
357461.000000
358715.000000
359973.000000
361225.000000
362423.000000
363550.000000
364750.000000
365969.000000
367202.000000
368414.000000
369564.000000
370663.000000
371790.000000
373020.000000
374298.000000
375571.000000
376802.000000
377972.000000
379111.000000
380295.000000
381573.000000
382883.000000
384147.000000
385379.000000
386542.000000
387683.000000
388892.000000
390135.000000
391367.000000
392574.000000
393703.000000
394852.000000
396067.000000
397285.000000
398497.000000
399656.000000
400763.000000
401919.000000
403117.000000
404320.000000
405523.000000
406708.000000
407819.000000
408914.000000
410035.000000
411216.000000
412434.000000
413628.000000
414817.000000
415970.000000
417083.000000
418167.000000
419289.000000
420470.000000
421688.000000
422897.000000
424104.000000
425304.000000
426454.000000
427551.000000
428662.000000
429794.000000
431019.000000
432247.000000
433461.000000
434673.000000
435841.000000
436939.000000
438001.000000
439076.000000
440208.000000
441423.000000
442664.000000
443901.000000
445133.000000
446341.000000
447515.000000
448635.000000
449720.000000
450792.000000
451861.000000
453132.000000
454493.000000
455793.000000
457087.000000
458353.000000
459591.000000
460832.000000
462015.000000
463104.000000
464142.000000
465225.000000
466441.000000
467756.000000
469035.000000
470284.000000
471521.000000
472744.000000
473941.000000
475101.000000
476216.000000
477255.000000
478286.000000
479368.000000
480480.000000
481647.000000
482722.000000
483711.000000
484792.000000
485893.000000
487012.000000
488167.000000
489374.000000
490607.000000
491837.000000
493030.000000
494183.000000
495309.000000
496489.000000
497720.000000
498942.000000
500156.000000
501377.000000
502594.000000
503801.000000
504944.000000
506064.000000
507241.000000
508488.000000
509750.000000
510987.000000
512222.000000
513429.000000
514557.000000
515699.000000
516903.000000
518167.000000
519425.000000
520668.000000
521884.000000
523019.000000
524151.000000
525346.000000
526581.000000
527811.000000
529041.000000
530232.000000
531365.000000
532480.000000
533646.000000
534883.000000
536113.000000
537313.000000
538418.000000
539576.000000
540785.000000
542012.000000
543232.000000
544435.000000
545594.000000
546694.000000
547806.000000
548997.000000
550233.000000
551447.000000
552669.000000
553852.000000
554994.000000
556144.000000
557344.000000
558605.000000
559884.000000
561171.000000
562437.000000
563675.000000
564905.000000
566091.000000
567227.000000
568357.000000
569540.000000
570770.000000
571979.000000
573173.000000
574332.000000
575437.000000
576520.000000
577595.000000
578753.000000
579961.000000
581175.000000
582384.000000
583581.000000
584718.000000
585813.000000
586917.000000
588067.000000
589282.000000
590497.000000
591726.000000
592927.000000
594102.000000
595182.000000
596288.000000
597467.000000
598676.000000
599840.000000
600925.000000
602023.000000
603113.000000
604087.000000
605083.000000
606150.000000
607294.000000
608604.000000
609911.000000
611219.000000
612471.000000
613663.000000
614916.000000
616186.000000
617419.000000
618601.000000
619848.000000
621148.000000
622452.000000
623749.000000
625007.000000
626197.000000
627396.000000
628647.000000
629917.000000
631164.000000
632388.000000
633541.000000
634699.000000
635934.000000
637197.000000
638448.000000
639684.000000
640908.000000
642055.000000
643200.000000
644398.000000
645682.000000
646940.000000
648213.000000
649409.000000
650554.000000
651767.000000
653011.000000
654258.000000
655473.000000
656607.000000
657768.000000
658996.000000
660284.000000
661568.000000
662844.000000
664097.000000
665296.000000
666431.000000
667606.000000
668881.000000
670133.000000
671383.000000
672613.000000
673805.000000
674946.000000
676120.000000
677376.000000
678631.000000
679866.000000
681092.000000
682240.000000
683359.000000
684543.000000
685769.000000
687034.000000
688271.000000
689495.000000
690689.000000
691834.000000
692968.000000
694144.000000
695397.000000
696678.000000
697948.000000
699222.000000
700441.000000
701567.000000
702703.000000
703904.000000
705134.000000
706379.000000
707593.000000
708716.000000
709859.000000
711074.000000
712304.000000
713512.000000
714635.000000
715816.000000
717048.000000
718284.000000
719453.000000
720562.000000
721696.000000
722903.000000
724124.000000
725340.000000
726520.000000
727634.000000
728824.000000
730056.000000
731288.000000
732470.000000
733569.000000
734692.000000
735909.000000
737137.000000
738339.000000
739533.000000
740688.000000
741780.000000
742880.000000
744062.000000
745317.000000
746553.000000
747738.000000
748880.000000
750005.000000
751208.000000
752432.000000
753651.000000
754847.000000
756015.000000
757132.000000
758295.000000
759527.000000
760744.000000
761959.000000
763090.000000
764271.000000
765524.000000
766799.000000
768047.000000
769295.000000
770512.000000
771665.000000
772816.000000
774005.000000
775246.000000
776494.000000
777732.000000
778971.000000
780195.000000
781315.000000
782421.000000
783614.000000
784688.000000
785692.000000
786771.000000
787862.000000
789052.000000
790341.000000
791604.000000
792870.000000
794097.000000
795288.000000
796476.000000
797734.000000
799032.000000
800304.000000
801560.000000
802776.000000
803942.000000
805115.000000
806358.000000
807601.000000
808825.000000
810052.000000
811245.000000
812377.000000
813512.000000
814710.000000
815909.000000
817111.000000
818281.000000
819390.000000
820483.000000
821656.000000
822901.000000
824144.000000
825343.000000
826476.000000
827689.000000
828922.000000
830093.000000
831214.000000
832420.000000
833651.000000
834882.000000
836024.000000
837157.000000
838351.000000
839576.000000
840735.000000
841873.000000
843055.000000
844329.000000
845600.000000
846836.000000
848055.000000
849198.000000
850315.000000
851510.000000
852780.000000
854051.000000
855304.000000
856540.000000
857763.000000
859023.000000
860345.000000
861643.000000
862902.000000
864161.000000
865388.000000
866528.000000
867679.000000
868901.000000
870146.000000
871385.000000
872547.000000
873676.000000
874805.000000
876002.000000
877240.000000
878482.000000
879715.000000
880945.000000
882118.000000
883238.000000
884412.000000
885635.000000
886850.000000
888047.000000
889218.000000
890340.000000
891484.000000
892715.000000
893946.000000
895168.000000
896331.000000
897427.000000
898538.000000
899755.000000
901008.000000
902239.000000
903435.000000
904563.000000
905714.000000
906972.000000
908201.000000
909422.000000
910638.000000
911796.000000
912950.000000
914126.000000
915364.000000
916584.000000
917811.000000
919013.000000
920158.000000
921253.000000
922363.000000
923538.000000
924763.000000
925986.000000
927161.000000
928309.000000
929441.000000
930603.000000
931820.000000
933075.000000
934313.000000
935537.000000
936717.000000
937825.000000
938949.000000
940166.000000
941383.000000
942594.000000
943785.000000
944954.000000
946058.000000
947175.000000
948305.000000
949446.000000
950663.000000
951981.000000
953297.000000
954627.000000
955955.000000
957260.000000
958534.000000
959788.000000
961020.000000
962213.000000
963345.000000
964478.000000
965642.000000
966886.000000
968169.000000
969430.000000
970674.000000
971889.000000
973048.000000
974177.000000
975332.000000
976547.000000
977791.000000
979044.000000
980279.000000
981493.000000
982699.000000
983834.000000
984917.000000
986032.000000
987217.000000
988447.000000
989684.000000
990900.000000
992128.000000
993320.000000
994441.000000
995556.000000
996695.000000
997887.000000
999095.000000
1000323.000000
1001559.000000
1002744.000000
1003881.000000
1004971.000000
1006084.000000
1007254.000000
1008485.000000
1009696.000000
1010913.000000
1012104.000000
1013251.000000
1014347.000000
1015456.000000
1016603.000000
1017846.000000
1019087.000000
1020331.000000
1021566.000000
1022755.000000
1023840.000000
1024949.000000
1026038.000000
1027015.000000
1027995.000000
1029063.000000
1030192.000000
1031435.000000
1032712.000000
1033992.000000
1035227.000000
1036416.000000
1037568.000000
1038753.000000
1040026.000000
1041311.000000
1042570.000000
1043826.000000
1045034.000000
1046172.000000
1047292.000000
1048532.000000
1049797.000000
1051046.000000
1052293.000000
1053468.000000
1054582.000000
1055742.000000
1056984.000000
1058270.000000
1059528.000000
1060769.000000
1061958.000000
1063090.000000
1064213.000000
1065370.000000
1066625.000000
1067911.000000
1069178.000000
1070430.000000
1071681.000000
1072861.000000
1073983.000000
1075133.000000
1076326.000000
1077552.000000
1078793.000000
1080016.000000
1081203.000000
1082364.000000
1083463.000000
1084578.000000
1085790.000000
1087039.000000
1088263.000000
1089458.000000
1090607.000000
1091827.000000
1093074.000000
1094244.000000
1095360.000000
1096481.000000
1097649.000000
1098919.000000
1100195.000000
1101439.000000
1102682.000000
1103937.000000
1105137.000000
1106279.000000
1107435.000000
1108654.000000
1109943.000000
1111218.000000
1112474.000000
1113709.000000
1114919.000000
1116051.000000
1117184.000000
1118377.000000
1119643.000000
1120899.000000
1122122.000000
1123331.000000
1124495.000000
1125610.000000
1126778.000000
1127995.000000
1129260.000000
1130501.000000
1131735.000000
1132954.000000
1134110.000000
1135237.000000
1136390.000000
1137643.000000
1138942.000000
1140224.000000
1141480.000000
1142726.000000
1143936.000000
1145059.000000
1146190.000000
1147348.000000
1148581.000000
1149854.000000
1151115.000000
1152363.000000
1153583.000000
1154810.000000
1155957.000000
1157111.000000
1158295.000000
1159453.000000
1160600.000000
1161697.000000
1162797.000000
1163940.000000
1165167.000000
1166415.000000
1167541.000000
1168549.000000
1169586.000000
1170638.000000
1171747.000000
1172962.000000
1174232.000000
1175522.000000
1176787.000000
1178025.000000
1179239.000000
1180406.000000
1181532.000000
1182761.000000
1183998.000000
1185250.000000
1186473.000000
1187634.000000
1188832.000000
1190096.000000
1191381.000000
1192633.000000
1193858.000000
1194999.000000
1196118.000000
1197263.000000
1198508.000000
1199746.000000
1200976.000000
1202159.000000
1203319.000000
1204508.000000
1205676.000000
1206816.000000
1207941.000000
1209000.000000
1210056.000000
1211143.000000
1212284.000000
1213506.000000
1214747.000000
1215982.000000
1217204.000000
1218409.000000
1219557.000000
1220660.000000
1221767.000000
1222971.000000
1224191.000000
1225388.000000
1226508.000000
1227585.000000
1228697.000000
1229750.000000
1230850.000000
1231975.000000
1233030.000000
1234167.000000
1235359.000000
1236460.000000
1237528.000000
1238631.000000
1239899.000000
1241164.000000
1242423.000000
1243680.000000
1244964.000000
1246186.000000
1247331.000000
1248491.000000
1249755.000000
1251040.000000
1252324.000000
1253608.000000
1254836.000000
1256025.000000
1257211.000000
1258437.000000
1259725.000000
1261001.000000
1262272.000000
1263497.000000
1264668.000000
1265803.000000
1266974.000000
1268202.000000
1269470.000000
1270743.000000
1271973.000000
1273200.000000
1274362.000000
1275489.000000
1276662.000000
1277905.000000
1279163.000000
1280403.000000
1281636.000000
1282836.000000
1283962.000000
1285049.000000
1286214.000000
1287469.000000
1288722.000000
1289976.000000
1291186.000000
1292325.000000
1293477.000000
1294692.000000
1295918.000000
1297128.000000
1298374.000000
1299555.000000
1300661.000000
1301768.000000
1302999.000000
1304118.000000
1305131.000000
1306272.000000
1307470.000000
1308659.000000
1309818.000000
1310989.000000
1312212.000000
1313445.000000
1314554.000000
1315579.000000
1316672.000000
1317846.000000
1318965.000000
1320094.000000
1321312.000000
1322539.000000
1323700.000000
1324869.000000
1326089.000000
1327358.000000
1328624.000000
1329874.000000
1331096.000000
1332256.000000
1333408.000000
1334586.000000
1335822.000000
1337093.000000
1338327.000000
1339552.000000
1340772.000000
1341936.000000
1343054.000000
1344183.000000
1345380.000000
1346631.000000
1347884.000000
1349120.000000
1350342.000000
1351540.000000
1352718.000000
1353817.000000
1354934.000000
1356114.000000
1357343.000000
1358559.000000
1359757.000000
1360872.000000
1361939.000000
1363036.000000
1364190.000000
1365428.000000
1366661.000000
1367797.000000
1368884.000000
1370033.000000
1371285.000000
1372550.000000
1373799.000000
1375030.000000
1376233.000000
1377351.000000
1378450.000000
1379654.000000
1380930.000000
1382214.000000
1383464.000000
1384686.000000
1385842.000000
1386996.000000
1388249.000000
1389491.000000
1390710.000000
1391841.000000
1392990.000000
1394239.000000
1395483.000000
1396704.000000
1397891.000000
1399025.000000
1400191.000000
1401421.000000
1402479.000000
1403493.000000
1404609.000000
1405776.000000
1406851.000000
1407930.000000
1409064.000000
1410281.000000
1411528.000000
1412760.000000
1413982.000000
1415184.000000
1416336.000000
1417404.000000
1418484.000000
1419661.000000
1420896.000000
1422161.000000
1423427.000000
1424675.000000
1425896.000000
1427039.000000
1428167.000000
1429299.000000
1430470.000000
1431732.000000
1432983.000000
1434198.000000
1435399.000000
1436594.000000
1437730.000000
1438792.000000
1439866.000000
1440964.000000
1441994.000000
1442977.000000
1444050.000000
1445138.000000
1446250.000000
1447429.000000
1448690.000000
1449964.000000
1451199.000000
1452423.000000
1453597.000000
1454699.000000
1455818.000000
1457005.000000
1458271.000000
1459556.000000
1460816.000000
1462069.000000
1463282.000000
1464437.000000
1465557.000000
1466693.000000
1467912.000000
1469166.000000
1470426.000000
1471669.000000
1472910.000000
1474114.000000
1475252.000000
1476348.000000
1477486.000000
1478691.000000
1479940.000000
1481193.000000
1482424.000000
1483662.000000
1484853.000000
1485983.000000
1487109.000000
1488324.000000
1489568.000000
1490828.000000
1492074.000000
1493298.000000
1494471.000000
1495596.000000
1496730.000000
1497896.000000
1499128.000000
1500366.000000
1501615.000000
1502832.000000
1504031.000000
1505153.000000
1506248.000000
1507362.000000
1508550.000000
1509780.000000
1511019.000000
1512236.000000
1513436.000000
1514636.000000
1515779.000000
1516878.000000
1518013.000000
1519221.000000
1520482.000000
1521738.000000
1522980.000000
1524201.000000
1525394.000000
1526537.000000
1527654.000000
1528793.000000
1529978.000000
1531224.000000
1532486.000000
1533725.000000
1534922.000000
1536043.000000
1537092.000000
1538175.000000
1539370.000000
1540610.000000
1541851.000000
1543054.000000
1544219.000000
1545334.000000
1546425.000000
1547563.000000
1548745.000000
1549933.000000
1551100.000000
1552225.000000
1553284.000000
1554345.000000
1555463.000000
1556683.000000
1557901.000000
1559119.000000
1560306.000000
1561408.000000
1562494.000000
1563649.000000
1564841.000000
1565999.000000
1567141.000000
1568236.000000
1569268.000000
1570315.000000
1571426.000000
1572554.000000
1573677.000000
1574797.000000
1575906.000000
1577002.000000
1578180.000000
1579389.000000
1580569.000000
1581739.000000
1582849.000000
1583962.000000
1585119.000000
1586303.000000
1587482.000000
1588619.000000
1589704.000000
1590776.000000
1591754.000000
1592723.000000
1593855.000000
1595045.000000
1596248.000000
1597400.000000
1598516.000000
1599642.000000
1600850.000000
1602095.000000
1603329.000000
1604542.000000
1605728.000000
1606821.000000
1607957.000000
1609161.000000
1610365.000000
1611550.000000
1612659.000000
1613754.000000
1614896.000000
1616143.000000
1617394.000000
1618629.000000
1619854.000000
1621056.000000
1622175.000000
1623280.000000
1624431.000000
1625649.000000
1626906.000000
1628133.000000
1629314.000000
1630445.000000
1631635.000000
1632840.000000
1633989.000000
1635083.000000
1636231.000000
1637434.000000
1638668.000000
1639869.000000
1641010.000000
1642086.000000
1643163.000000
1644287.000000
1645470.000000
1646682.000000
1647904.000000
1649124.000000
1650335.000000
1651534.000000
1652730.000000
1653872.000000
1654975.000000
1656098.000000
1657295.000000
1658560.000000
1659825.000000
1661057.000000
1662282.000000
1663448.000000
1664526.000000
1665585.000000
1666702.000000
1668067.000000
1669434.000000
1670765.000000
1672084.000000
1673387.000000
1674653.000000
1675855.000000
1677040.000000
1678269.000000
1679549.000000
1680834.000000
1682089.000000
1683337.000000
1684568.000000
1685737.000000
1686871.000000
1688034.000000
1689231.000000
1690442.000000
1691670.000000
1692884.000000
1694103.000000
1695267.000000
1696334.000000
1697405.000000
1698538.000000
1699737.000000
1700925.000000
1702120.000000
1703298.000000
1704472.000000
1705582.000000
1706594.000000
1707623.000000
1708735.000000
1709828.000000
1710915.000000
1712038.000000
1713175.000000
1714354.000000
1715589.000000
1716850.000000
1718070.000000
1719290.000000
1720497.000000
1721690.000000
1722882.000000
1724058.000000
1725213.000000
1726326.000000
1727418.000000
1728586.000000
1729801.000000
1731007.000000
1732217.000000
1733433.000000
1734595.000000
1735703.000000
1736833.000000
1738036.000000
1739326.000000
1740629.000000
1741906.000000
1743156.000000
1744380.000000
1745498.000000
1746614.000000
1747753.000000
1748932.000000
1750164.000000
1751390.000000
1752605.000000
1753799.000000
1754999.000000
1756181.000000
1757305.000000
1758400.000000
1759520.000000
1760714.000000
1761952.000000
1763186.000000
1764406.000000
1765623.000000
1766812.000000
1767967.000000
1769095.000000
1770217.000000
1771367.000000
1772594.000000
1773857.000000
1775085.000000
1776298.000000
1777481.000000
1778637.000000
1779721.000000
1780828.000000
1782003.000000
1783224.000000
1784508.000000
1785767.000000
1787027.000000
1788283.000000
1789526.000000
1790725.000000
1791896.000000
1793086.000000
1794308.000000
1795576.000000
1796836.000000
1798057.000000
