ECG (ms)
887.000000
2042.000000
3254.000000
4436.000000
5561.000000
6717.000000
7896.000000
9087.000000
10274.000000
11425.000000
12626.000000
13870.000000
15118.000000
16357.000000
17549.000000
18776.000000
20035.000000
21293.000000
22558.000000
23797.000000
24964.000000
26157.000000
27358.000000
28555.000000
29703.000000
30861.000000
32052.000000
33246.000000
34428.000000
35561.000000
36726.000000
37914.000000
39101.000000
40242.000000
41362.000000
42515.000000
43679.000000
44805.000000
45908.000000
47052.000000
48204.000000
49353.000000
50470.000000
51571.000000
52706.000000
53850.000000
54993.000000
56102.000000
57242.000000
58406.000000
59596.000000
60791.000000
61990.000000
63136.000000
64266.000000
65432.000000
66611.000000
67761.000000
68883.000000
70055.000000
71260.000000
72475.000000
73661.000000
74853.000000
76104.000000
77361.000000
78560.000000
79721.000000
80923.000000
82133.000000
83352.000000
84522.000000
85679.000000
86904.000000
88149.000000
89382.000000
90588.000000
91788.000000
93032.000000
94294.000000
95532.000000
96731.000000
97884.000000
99045.000000
100249.000000
101468.000000
102681.000000
103889.000000
105068.000000
106261.000000
107506.000000
108791.000000
110101.000000
111374.000000
112585.000000
113782.000000
115002.000000
116226.000000
117447.000000
118625.000000
119778.000000
120977.000000
122207.000000
123449.000000
124709.000000
125897.000000
127046.000000
128220.000000
129430.000000
130637.000000
131829.000000
132979.000000
134136.000000
135351.000000
136590.000000
137838.000000
139049.000000
140271.000000
141558.000000
142849.000000
144097.000000
145378.000000
146687.000000
148037.000000
149325.000000
150533.000000
151763.000000
153007.000000
154247.000000
155438.000000
156567.000000
157784.000000
159052.000000
159999.000000
161377.000000
162601.000000
163814.000000
165036.000000
166238.000000
167379.000000
168508.000000
169658.000000
170827.000000
171990.000000
173096.000000
174290.000000
175544.000000
176792.000000
177987.000000
179124.000000
180326.000000
181550.000000
182765.000000
183937.000000
185102.000000
186295.000000
187514.000000
188661.000000
189810.000000
191042.000000
192241.000000
193393.000000
194508.000000
195720.000000
196968.000000
198193.000000
199391.000000
200589.000000
201834.000000
203056.000000
204240.000000
205398.000000
206632.000000
207922.000000
209223.000000
210471.000000
211607.000000
212732.000000
213931.000000
215195.000000
216428.000000
217595.000000
218819.000000
220084.000000
221329.000000
222507.000000
223675.000000
224906.000000
226145.000000
227321.000000
228463.000000
229627.000000
230773.000000
231868.000000
232936.000000
234114.000000
235349.000000
236570.000000
237737.000000
238878.000000
240038.000000
241194.000000
242280.000000
243346.000000
244480.000000
245653.000000
246819.000000
247947.000000
249022.000000
250105.000000
251213.000000
252232.000000
253370.000000
254540.000000
255642.000000
256694.000000
257801.000000
258934.000000
260076.000000
261123.000000
262115.000000
263150.000000
264270.000000
265491.000000
266650.000000
267741.000000
268910.000000
270195.000000
271417.000000
272532.000000
273594.000000
274688.000000
275872.000000
277064.000000
278221.000000
279418.000000
280670.000000
281930.000000
283141.000000
284304.000000
285551.000000
286826.000000
288085.000000
289307.000000
290478.000000
291626.000000
292816.000000
294008.000000
295164.000000
296241.000000
297402.000000
298630.000000
299891.000000
301128.000000
302279.000000
303484.000000
304727.000000
305943.000000
307103.000000
308316.000000
309563.000000
310815.000000
312009.000000
313185.000000
314405.000000
315650.000000
316885.000000
318065.000000
319261.000000
320516.000000
321775.000000
322973.000000
324210.000000
325506.000000
326767.000000
327945.000000
329147.000000
330402.000000
331663.000000
332873.000000
334106.000000
335382.000000
336645.000000
337861.000000
339044.000000
340319.000000
341622.000000
342888.000000
344071.000000
345240.000000
346486.000000
347776.000000
349035.000000
350241.000000
351485.000000
352754.000000
353977.000000
355136.000000
356377.000000
357627.000000
358860.000000
360018.000000
361216.000000
362451.000000
363687.000000
364859.000000
366016.000000
367213.000000
368414.000000
369539.000000
370634.000000
371819.000000
373053.000000
374297.000000
375464.000000
376607.000000
377787.000000
379035.000000
380292.000000
381480.000000
382608.000000
383793.000000
384991.000000
386168.000000
387315.000000
388417.000000
389589.000000
390800.000000
391742.000000
393074.000000
394236.000000
395395.000000
396571.000000
397761.000000
398940.000000
400061.000000
401234.000000
402441.000000
403663.000000
404875.000000
406090.000000
407268.000000
408399.000000
409507.000000
410737.000000
411997.000000
413243.000000
414407.000000
415634.000000
416911.000000
418181.000000
419366.000000
420479.000000
421686.000000
422918.000000
424125.000000
425282.000000
426479.000000
427736.000000
428977.000000
430170.000000
431338.000000
432573.000000
433792.000000
434955.000000
436055.000000
437181.000000
438385.000000
439590.000000
440742.000000
441847.000000
443000.000000
444155.000000
445332.000000
446450.000000
447566.000000
448783.000000
450029.000000
451264.000000
452468.000000
453716.000000
454976.000000
456176.000000
457301.000000
458467.000000
459673.000000
460836.000000
461940.000000
463096.000000
464296.000000
465524.000000
466707.000000
467941.000000
469168.000000
470351.000000
471478.000000
472635.000000
473831.000000
475017.000000
476176.000000
477341.000000
478530.000000
479722.000000
480873.000000
482034.000000
483242.000000
484422.000000
485573.000000
486726.000000
487959.000000
489210.000000
490424.000000
491608.000000
492856.000000
494110.000000
495331.000000
496498.000000
497697.000000
498979.000000
500230.000000
501426.000000
502604.000000
503852.000000
505127.000000
506362.000000
507554.000000
508783.000000
510022.000000
511268.000000
512471.000000
513580.000000
514636.000000
515761.000000
517008.000000
518238.000000
519446.000000
520621.000000
521749.000000
522941.000000
524157.000000
525364.000000
526522.000000
527704.000000
528900.000000
530076.000000
531227.000000
532350.000000
533518.000000
534745.000000
535954.000000
537093.000000
538284.000000
539512.000000
540751.000000
541982.000000
543170.000000
544271.000000
545372.000000
546600.000000
547838.000000
549080.000000
550291.000000
551476.000000
552691.000000
553908.000000
555102.000000
556225.000000
557333.000000
558523.000000
559775.000000
561022.000000
562231.000000
563463.000000
564736.000000
566014.000000
567252.000000
568522.000000
569796.000000
571046.000000
572250.000000
573456.000000
574669.000000
575891.000000
577056.000000
578143.000000
579328.000000
580636.000000
581957.000000
583211.000000
584381.000000
585571.000000
586766.000000
587912.000000
588987.000000
590141.000000
591229.000000
592480.000000
593551.000000
594688.000000
595796.000000
596851.000000
597977.000000
599123.000000
600255.000000
601288.000000
602365.000000
603520.000000
604697.000000
605812.000000
606896.000000
608060.000000
609252.000000
610441.000000
611572.000000
612712.000000
613916.000000
615134.000000
616342.000000
617482.000000
618587.000000
619779.000000
620976.000000
622143.000000
623275.000000
624459.000000
625698.000000
626939.000000
628133.000000
629327.000000
630528.000000
631724.000000
632888.000000
634012.000000
635229.000000
636465.000000
637700.000000
638908.000000
640116.000000
641373.000000
642615.000000
643849.000000
645036.000000
646217.000000
647447.000000
648692.000000
649955.000000
651147.000000
652324.000000
653562.000000
654806.000000
656010.000000
657141.000000
658347.000000
659578.000000
660845.000000
662096.000000
663264.000000
664392.000000
665605.000000
666893.000000
668171.000000
669402.000000
670571.000000
671818.000000
673097.000000
674352.000000
675554.000000
676693.000000
677903.000000
679140.000000
680391.000000
681622.000000
682863.000000
684126.000000
685385.000000
686663.000000
687916.000000
689140.000000
690417.000000
691705.000000
692940.000000
694087.000000
695278.000000
696549.000000
697831.000000
699052.000000
700242.000000
701523.000000
702791.000000
704005.000000
705232.000000
706514.000000
707766.000000
708960.000000
710176.000000
711442.000000
712702.000000
713901.000000
715109.000000
716353.000000
717616.000000
718835.000000
720015.000000
721248.000000
722513.000000
723769.000000
724961.000000
726170.000000
727403.000000
728623.000000
729814.000000
730965.000000
732197.000000
733501.000000
734769.000000
736053.000000
737326.000000
738590.000000
739833.000000
741026.000000
742245.000000
743487.000000
744691.000000
745824.000000
746914.000000
748062.000000
749235.000000
750403.000000
751540.000000
752669.000000
753851.000000
755030.000000
756200.000000
757427.000000
758681.000000
759915.000000
761102.000000
762222.000000
763307.000000
764461.000000
765652.000000
766826.000000
767945.000000
769116.000000
770330.000000
771571.000000
772747.000000
773836.000000
774942.000000
776135.000000
777347.000000
778542.000000
779677.000000
780869.000000
782058.000000
783188.000000
784300.000000
785535.000000
786775.000000
787935.000000
789037.000000
790195.000000
791384.000000
792579.000000
793750.000000
794949.000000
796166.000000
797373.000000
798570.000000
799750.000000
800863.000000
802004.000000
803238.000000
804472.000000
805705.000000
806870.000000
808065.000000
809244.000000
810417.000000
811542.000000
812679.000000
813897.000000
815104.000000
816266.000000
817390.000000
818567.000000
819790.000000
821026.000000
822204.000000
823343.000000
824531.000000
825741.000000
826917.000000
828049.000000
829223.000000
830433.000000
831605.000000
832696.000000
833854.000000
835064.000000
836256.000000
837385.000000
838525.000000
839702.000000
840942.000000
842167.000000
843382.000000
844538.000000
845702.000000
846935.000000
848166.000000
849351.000000
850489.000000
851679.000000
852904.000000
854092.000000
855192.000000
856239.000000
857344.000000
858510.000000
859694.000000
860829.000000
862015.000000
863257.000000
864516.000000
865773.000000
866972.000000
868119.000000
869353.000000
870612.000000
871870.000000
873086.000000
874322.000000
875589.000000
876855.000000
878081.000000
879236.000000
880460.000000
881759.000000
883068.000000
884312.000000
885489.000000
886719.000000
887967.000000
889167.000000
890315.000000
891515.000000
892770.000000
894043.000000
895252.000000
896496.000000
897775.000000
899041.000000
900250.000000
901415.000000
902622.000000
903843.000000
