ECG (ms)
117.000000
839.000000
1623.000000
2441.000000
3284.000000
4062.000000
4867.000000
5689.000000
6537.000000
7385.000000
8154.000000
8908.000000
9656.000000
10424.000000
11221.000000
12032.000000
12841.000000
13676.000000
14508.000000
15342.000000
16142.000000
16919.000000
17731.000000
18569.000000
19438.000000
20262.000000
21044.000000
21839.000000
22635.000000
23497.000000
24400.000000
25205.000000
26020.000000
26830.000000
27655.000000
28496.000000
29290.000000
30085.000000
30917.000000
31801.000000
32706.000000
33568.000000
34417.000000
35233.000000
36030.000000
36845.000000
37670.000000
38515.000000
39312.000000
40129.000000
40954.000000
41827.000000
42668.000000
43467.000000
44270.000000
45079.000000
45886.000000
46676.000000
47491.000000
48334.000000
49195.000000
50005.000000
50799.000000
51603.000000
52435.000000
53275.000000
54096.000000
54918.000000
55732.000000
56569.000000
57355.000000
58112.000000
58898.000000
59680.000000
60530.000000
61357.000000
62179.000000
63034.000000
63844.000000
64635.000000
65368.000000
66134.000000
66921.000000
67745.000000
68572.000000
69393.000000
70227.000000
71057.000000
71866.000000
72657.000000
73478.000000
74321.000000
75181.000000
75987.000000
76811.000000
77644.000000
78463.000000
79262.000000
80051.000000
80904.000000
81751.000000
82611.000000
83408.000000
84217.000000
85052.000000
85880.000000
86672.000000
87487.000000
88315.000000
89173.000000
89977.000000
90772.000000
91585.000000
92403.000000
93227.000000
94025.000000
94846.000000
95641.000000
96430.000000
97192.000000
97979.000000
98813.000000
99707.000000
100570.000000
101398.000000
102232.000000
103043.000000
103847.000000
104621.000000
105398.000000
106223.000000
107095.000000
107954.000000
108800.000000
109633.000000
110466.000000
111270.000000
112017.000000
112813.000000
113589.000000
114410.000000
115221.000000
116002.000000
116785.000000
117595.000000
118331.000000
119121.000000
119905.000000
120760.000000
121595.000000
122402.000000
123206.000000
124016.000000
124818.000000
125571.000000
126343.000000
127120.000000
128012.000000
128863.000000
129669.000000
130480.000000
131297.000000
132144.000000
132957.000000
133754.000000
134569.000000
135389.000000
136200.000000
136971.000000
137733.000000
138513.000000
139329.000000
140143.000000
140982.000000
141831.000000
142656.000000
143458.000000
144280.000000
145108.000000
145882.000000
146644.000000
147434.000000
148247.000000
149051.000000
149855.000000
150698.000000
151551.000000
152354.000000
153156.000000
153996.000000
154783.000000
155551.000000
156361.000000
157168.000000
157967.000000
158751.000000
159600.000000
160458.000000
161281.000000
162071.000000
162870.000000
163686.000000
164501.000000
165362.000000
166235.000000
167106.000000
167936.000000
168760.000000
169596.000000
170424.000000
171251.000000
172031.000000
172847.000000
173679.000000
174527.000000
175335.000000
176117.000000
176927.000000
177795.000000
178647.000000
179459.000000
180292.000000
181154.000000
182049.000000
182922.000000
183745.000000
184557.000000
185417.000000
186360.000000
187218.000000
188110.000000
189014.000000
189920.000000
190757.000000
191608.000000
192449.000000
193304.000000
194135.000000
194976.000000
195823.000000
196705.000000
197508.000000
198309.000000
199113.000000
199925.000000
200768.000000
201585.000000
202393.000000
203229.000000
204103.000000
204929.000000
205704.000000
206469.000000
207231.000000
208019.000000
208782.000000
209610.000000
210458.000000
211294.000000
212107.000000
212935.000000
213743.000000
214525.000000
215303.000000
216073.000000
216882.000000
217675.000000
218498.000000
219321.000000
220122.000000
220913.000000
221709.000000
222491.000000
223238.000000
223987.000000
224757.000000
225530.000000
226311.000000
227144.000000
227975.000000
228761.000000
229470.000000
230183.000000
230939.000000
231722.000000
232525.000000
233302.000000
234021.000000
234768.000000
235534.000000
236299.000000
237101.000000
237916.000000
238708.000000
239490.000000
240273.000000
241059.000000
241864.000000
242646.000000
243460.000000
244262.000000
245094.000000
245914.000000
246739.000000
247627.000000
248471.000000
249310.000000
250131.000000
250925.000000
251734.000000
252539.000000
253372.000000
254229.000000
255069.000000
255893.000000
256686.000000
257486.000000
258294.000000
259106.000000
259909.000000
260714.000000
261540.000000
262398.000000
263262.000000
264063.000000
264852.000000
265643.000000
266446.000000
267256.000000
268058.000000
268877.000000
269708.000000
270547.000000
271381.000000
272182.000000
272990.000000
273796.000000
274610.000000
275421.000000
276238.000000
277038.000000
277860.000000
278670.000000
279487.000000
280332.000000
281175.000000
281977.000000
282791.000000
283601.000000
284445.000000
285263.000000
286073.000000
286894.000000
287737.000000
288536.000000
289295.000000
290049.000000
290786.000000
291519.000000
292343.000000
293154.000000
294043.000000
294921.000000
295738.000000
296578.000000
297392.000000
298202.000000
298995.000000
299762.000000
300573.000000
301400.000000
302232.000000
303106.000000
303961.000000
304814.000000
305670.000000
306524.000000
307364.000000
308172.000000
308977.000000
309796.000000
310624.000000
311455.000000
312271.000000
313094.000000
313903.000000
314713.000000
315537.000000
316347.000000
317164.000000
317992.000000
318865.000000
319695.000000
320516.000000
321323.000000
322137.000000
322934.000000
323747.000000
324580.000000
325416.000000
326264.000000
327124.000000
327987.000000
328817.000000
329652.000000
330461.000000
331246.000000
332043.000000
332848.000000
333674.000000
334475.000000
335310.000000
336141.000000
336957.000000
337754.000000
338554.000000
339329.000000
340102.000000
340890.000000
341674.000000
342481.000000
343281.000000
344097.000000
344919.000000
345730.000000
346561.000000
347407.000000
348272.000000
349134.000000
349994.000000
350855.000000
351680.000000
352529.000000
353414.000000
354269.000000
355103.000000
355960.000000
356834.000000
357683.000000
358497.000000
359321.000000
360140.000000
360947.000000
361768.000000
362601.000000
363452.000000
364269.000000
365124.000000
365991.000000
366825.000000
367641.000000
368468.000000
369291.000000
370099.000000
370905.000000
371731.000000
372566.000000
373394.000000
374218.000000
375020.000000
375824.000000
376616.000000
377404.000000
378177.000000
378926.000000
379669.000000
380412.000000
381162.000000
381941.000000
382720.000000
383491.000000
384274.000000
385047.000000
385811.000000
386560.000000
387289.000000
388036.000000
388796.000000
389621.000000
390461.000000
391278.000000
392117.000000
392971.000000
393793.000000
394581.000000
395366.000000
396162.000000
396966.000000
397781.000000
398575.000000
399371.000000
400187.000000
401006.000000
401831.000000
402627.000000
403429.000000
404198.000000
404969.000000
405751.000000
406553.000000
407324.000000
408106.000000
408891.000000
409698.000000
410487.000000
411273.000000
412058.000000
412872.000000
413668.000000
414450.000000
415242.000000
416032.000000
416804.000000
417582.000000
418376.000000
419178.000000
419967.000000
420766.000000
421573.000000
422385.000000
423160.000000
423939.000000
424745.000000
425604.000000
426447.000000
427294.000000
428111.000000
428933.000000
429732.000000
430506.000000
431294.000000
432127.000000
433005.000000
433846.000000
434663.000000
435495.000000
436325.000000
437146.000000
437966.000000
438780.000000
439599.000000
440434.000000
441245.000000
442057.000000
442880.000000
443689.000000
444475.000000
445257.000000
446042.000000
446831.000000
447609.000000
448392.000000
449174.000000
449991.000000
450802.000000
451646.000000
452552.000000
453390.000000
454201.000000
455005.000000
455806.000000
456609.000000
457436.000000
458291.000000
459106.000000
459922.000000
460742.000000
461536.000000
462304.000000
463076.000000
463894.000000
464723.000000
465546.000000
466379.000000
467229.000000
468066.000000
468867.000000
469667.000000
470472.000000
471265.000000
472055.000000
472873.000000
473719.000000
474559.000000
475401.000000
476256.000000
477087.000000
477855.000000
478638.000000
479411.000000
480224.000000
481040.000000
481878.000000
482760.000000
483626.000000
484443.000000
485278.000000
486115.000000
486919.000000
487720.000000
488523.000000
489324.000000
490118.000000
490943.000000
491786.000000
492607.000000
493425.000000
494243.000000
495041.000000
495835.000000
496630.000000
497474.000000
498291.000000
499075.000000
499823.000000
500562.000000
501258.000000
502006.000000
502823.000000
503637.000000
504460.000000
505268.000000
506068.000000
506858.000000
507642.000000
508434.000000
509227.000000
510016.000000
510818.000000
511652.000000
512520.000000
513342.000000
514158.000000
514953.000000
515749.000000
516527.000000
517296.000000
518087.000000
518900.000000
519697.000000
520508.000000
521344.000000
522181.000000
522983.000000
523785.000000
524623.000000
525423.000000
526203.000000
526996.000000
527812.000000
528630.000000
529470.000000
530319.000000
531120.000000
531913.000000
532715.000000
533511.000000
534302.000000
535110.000000
535968.000000
536821.000000
537645.000000
538458.000000
539295.000000
540150.000000
540967.000000
541778.000000
542600.000000
543431.000000
544260.000000
545112.000000
546005.000000
546835.000000
547640.000000
548447.000000
549272.000000
550072.000000
550879.000000
551681.000000
552536.000000
553347.000000
554152.000000
554973.000000
555797.000000
556581.000000
557369.000000
558185.000000
558986.000000
559795.000000
560638.000000
561566.000000
562413.000000
563221.000000
564016.000000
564817.000000
565599.000000
566375.000000
567156.000000
567928.000000
568690.000000
569477.000000
570319.000000
571179.000000
572031.000000
572873.000000
573708.000000
574510.000000
575320.000000
576162.000000
577007.000000
577796.000000
578586.000000
579389.000000
580192.000000
580984.000000
581764.000000
582549.000000
583355.000000
584153.000000
584963.000000
585790.000000
586627.000000
587430.000000
588239.000000
589056.000000
589888.000000
590688.000000
591496.000000
592290.000000
593118.000000
593930.000000
594739.000000
595539.000000
596338.000000
597148.000000
597936.000000
598731.000000
599523.000000
600352.000000
601205.000000
602077.000000
602895.000000
603684.000000
604488.000000
605298.000000
606115.000000
606909.000000
607721.000000
608552.000000
609407.000000
610229.000000
611030.000000
611825.000000
612635.000000
613416.000000
614222.000000
615055.000000
615874.000000
616698.000000
617526.000000
618324.000000
619090.000000
619858.000000
620635.000000
621468.000000
622291.000000
623106.000000
623946.000000
624778.000000
625584.000000
626390.000000
627207.000000
628028.000000
628830.000000
629633.000000
630451.000000
631273.000000
632075.000000
632886.000000
633682.000000
634503.000000
635304.000000
636131.000000
636995.000000
637847.000000
638714.000000
639584.000000
640450.000000
641293.000000
642163.000000
643024.000000
643862.000000
644693.000000
645523.000000
646338.000000
647144.000000
647974.000000
648832.000000
649674.000000
650510.000000
651337.000000
652137.000000
652907.000000
653665.000000
654455.000000
655288.000000
656139.000000
656948.000000
657768.000000
658589.000000
659381.000000
660167.000000
660962.000000
661769.000000
662582.000000
663387.000000
664199.000000
665018.000000
665851.000000
666649.000000
667465.000000
668286.000000
669107.000000
669908.000000
670704.000000
671503.000000
672283.000000
673068.000000
673901.000000
674788.000000
675622.000000
676450.000000
677276.000000
678097.000000
678903.000000
679704.000000
680512.000000
681336.000000
682146.000000
682971.000000
683804.000000
684649.000000
685491.000000
686323.000000
687147.000000
687957.000000
688763.000000
689590.000000
690452.000000
691299.000000
692118.000000
692909.000000
693717.000000
694524.000000
695376.000000
696189.000000
697006.000000
697826.000000
698648.000000
699445.000000
700239.000000
701039.000000
701880.000000
702703.000000
703588.000000
704493.000000
705334.000000
706134.000000
706934.000000
707732.000000
708541.000000
709355.000000
710202.000000
711065.000000
711895.000000
712741.000000
713593.000000
714397.000000
715198.000000
716006.000000
716803.000000
717572.000000
718355.000000
719149.000000
719966.000000
720748.000000
721558.000000
722392.000000
723248.000000
724071.000000
724860.000000
725658.000000
726471.000000
727309.000000
728118.000000
728897.000000
729688.000000
730488.000000
731310.000000
732148.000000
732991.000000
733806.000000
734619.000000
735453.000000
736284.000000
737111.000000
737924.000000
738745.000000
739573.000000
740405.000000
741222.000000
742054.000000
742874.000000
743664.000000
744470.000000
745279.000000
746098.000000
746891.000000
747714.000000
748528.000000
749345.000000
750126.000000
750940.000000
751739.000000
752526.000000
753303.000000
754102.000000
754954.000000
755804.000000
756666.000000
757533.000000
758402.000000
759256.000000
760102.000000
760962.000000
761807.000000
762616.000000
763447.000000
764311.000000
765155.000000
765986.000000
766815.000000
767612.000000
768409.000000
769190.000000
769929.000000
770649.000000
771372.000000
772094.000000
772849.000000
773643.000000
774478.000000
775364.000000
776195.000000
777006.000000
777809.000000
778601.000000
779398.000000
780176.000000
780972.000000
781780.000000
782640.000000
783467.000000
784318.000000
785164.000000
785991.000000
786809.000000
787628.000000
788456.000000
789254.000000
790085.000000
790959.000000
791882.000000
792785.000000
793665.000000
794508.000000
795314.000000
796094.000000
796873.000000
797649.000000
798425.000000
799230.000000
800061.000000
800910.000000
801783.000000
802635.000000
803452.000000
804247.000000
805016.000000
805780.000000
806550.000000
807339.000000
808148.000000
808991.000000
809810.000000
810631.000000
811443.000000
812228.000000
813018.000000
813813.000000
814614.000000
815425.000000
816251.000000
817070.000000
817866.000000
818673.000000
819494.000000
820315.000000
821124.000000
821941.000000
822757.000000
823583.000000
824383.000000
825202.000000
826041.000000
826869.000000
827687.000000
828516.000000
829349.000000
830177.000000
830998.000000
831831.000000
832662.000000
833468.000000
834289.000000
835122.000000
835944.000000
836754.000000
837577.000000
838410.000000
839224.000000
840028.000000
840821.000000
841603.000000
842367.000000
843140.000000
843931.000000
844778.000000
845597.000000
846454.000000
847311.000000
848190.000000
849024.000000
849861.000000
850669.000000
851451.000000
852244.000000
853068.000000
853908.000000
854726.000000
855516.000000
856310.000000
857109.000000
857917.000000
858719.000000
859491.000000
860235.000000
860952.000000
861680.000000
862469.000000
863253.000000
864079.000000
864921.000000
865760.000000
866575.000000
867383.000000
868177.000000
868956.000000
869763.000000
870549.000000
871346.000000
872181.000000
873012.000000
873853.000000
874671.000000
875481.000000
876255.000000
877061.000000
877882.000000
878728.000000
879566.000000
880425.000000
881293.000000
882143.000000
882945.000000
883746.000000
884543.000000
885342.000000
886136.000000
886915.000000
887699.000000
888499.000000
889306.000000
890123.000000
890906.000000
891692.000000
892479.000000
893264.000000
894056.000000
894853.000000
895644.000000
896448.000000
897310.000000
898191.000000
899058.000000
899905.000000
