ECG (ms)
580.000000
1381.000000
2180.000000
2984.000000
3792.000000
4600.000000
5399.000000
6194.000000
7000.000000
7808.000000
8603.000000
9415.000000
10233.000000
11048.000000
11845.000000
12651.000000
13468.000000
14269.000000
15056.000000
15850.000000
16644.000000
17432.000000
18238.000000
19047.000000
19861.000000
20663.000000
21477.000000
22306.000000
23108.000000
23911.000000
24728.000000
25548.000000
26349.000000
27154.000000
27960.000000
28770.000000
29564.000000
30363.000000
31175.000000
31971.000000
32767.000000
33569.000000
34375.000000
35176.000000
35993.000000
36804.000000
37631.000000
38473.000000
39296.000000
40129.000000
40968.000000
41814.000000
42645.000000
43493.000000
44378.000000
45244.000000
46103.000000
46979.000000
47852.000000
48707.000000
49551.000000
50396.000000
51229.000000
52048.000000
52855.000000
53656.000000
54455.000000
55245.000000
56033.000000
56827.000000
57632.000000
58431.000000
59219.000000
60013.000000
60824.000000
61620.000000
62415.000000
63222.000000
64023.000000
64809.000000
65601.000000
66395.000000
67187.000000
67974.000000
68773.000000
69586.000000
70405.000000
71205.000000
72029.000000
72875.000000
73729.000000
74574.000000
75425.000000
76298.000000
77191.000000
78041.000000
78906.000000
79758.000000
80603.000000
81433.000000
82268.000000
83134.000000
83983.000000
84838.000000
85700.000000
86560.000000
87396.000000
88228.000000
89068.000000
89904.000000
90715.000000
91521.000000
92336.000000
93144.000000
93947.000000
94752.000000
95562.000000
96364.000000
97162.000000
97958.000000
98761.000000
99549.000000
100331.000000
101124.000000
101918.000000
102699.000000
103481.000000
104272.000000
105074.000000
105869.000000
106662.000000
107468.000000
108282.000000
109099.000000
109909.000000
110732.000000
111548.000000
112342.000000
113140.000000
113949.000000
114753.000000
115555.000000
116376.000000
117191.000000
118003.000000
118807.000000
119628.000000
120459.000000
121271.000000
122076.000000
122896.000000
123716.000000
124518.000000
125330.000000
126137.000000
126940.000000
127739.000000
128545.000000
129360.000000
130169.000000
130977.000000
131806.000000
132639.000000
133460.000000
134285.000000
135129.000000
135957.000000
136780.000000
137595.000000
138428.000000
139264.000000
140097.000000
140939.000000
141796.000000
142662.000000
143515.000000
144363.000000
145238.000000
146112.000000
146966.000000
147834.000000
148705.000000
149565.000000
150397.000000
151252.000000
152109.000000
152958.000000
153804.000000
154655.000000
155521.000000
156361.000000
157203.000000
158050.000000
158887.000000
159709.000000
160539.000000
161375.000000
162223.000000
163051.000000
163867.000000
164691.000000
165507.000000
166313.000000
167119.000000
167930.000000
168738.000000
169531.000000
170329.000000
171147.000000
171960.000000
172762.000000
173569.000000
174376.000000
175177.000000
175968.000000
176766.000000
177563.000000
178361.000000
179148.000000
179937.000000
180740.000000
181533.000000
182317.000000
183104.000000
183905.000000
184707.000000
185504.000000
186310.000000
187117.000000
187921.000000
188728.000000
189537.000000
190367.000000
191188.000000
191997.000000
192814.000000
193625.000000
194433.000000
195221.000000
196018.000000
196823.000000
197617.000000
198408.000000
199211.000000
200027.000000
200824.000000
201620.000000
202438.000000
203264.000000
204082.000000
204896.000000
205745.000000
206594.000000
207423.000000
208246.000000
209068.000000
209890.000000
210703.000000
211511.000000
212334.000000
213164.000000
213995.000000
214833.000000
215672.000000
216524.000000
217366.000000
218221.000000
219068.000000
219932.000000
220791.000000
221638.000000
222497.000000
223367.000000
224227.000000
225066.000000
225895.000000
226738.000000
227559.000000
228379.000000
229192.000000
230010.000000
230810.000000
231601.000000
232395.000000
233193.000000
233981.000000
234763.000000
235553.000000
236347.000000
237130.000000
237914.000000
238700.000000
239493.000000
240275.000000
241054.000000
241847.000000
242644.000000
243433.000000
244217.000000
245020.000000
245825.000000
246627.000000
247415.000000
248227.000000
249055.000000
249888.000000
250711.000000
251535.000000
252364.000000
253184.000000
254003.000000
254833.000000
255679.000000
256520.000000
257348.000000
258193.000000
259045.000000
259885.000000
260707.000000
261541.000000
262383.000000
263215.000000
264037.000000
264871.000000
265717.000000
266550.000000
267374.000000
268219.000000
269056.000000
269874.000000
270693.000000
271525.000000
272358.000000
273171.000000
273991.000000
274819.000000
275641.000000
276443.000000
277252.000000
278071.000000
278888.000000
279697.000000
280511.000000
281328.000000
282133.000000
282933.000000
283741.000000
284563.000000
285375.000000
286177.000000
286981.000000
287800.000000
288606.000000
289417.000000
290238.000000
291061.000000
291881.000000
292704.000000
293540.000000
294383.000000
295232.000000
296067.000000
296904.000000
297756.000000
298619.000000
299465.000000
300310.000000
301167.000000
302033.000000
302884.000000
303732.000000
304593.000000
305449.000000
306275.000000
307093.000000
307915.000000
308741.000000
309546.000000
310349.000000
311156.000000
311972.000000
312782.000000
313604.000000
314423.000000
315252.000000
316066.000000
316884.000000
317716.000000
318552.000000
319376.000000
320200.000000
321021.000000
321850.000000
322662.000000
323475.000000
324315.000000
325156.000000
325995.000000
326849.000000
327717.000000
328582.000000
329442.000000
330315.000000
331199.000000
332056.000000
332897.000000
333751.000000
334606.000000
335433.000000
336260.000000
337093.000000
337917.000000
338743.000000
339565.000000
340391.000000
341223.000000
342071.000000
342905.000000
343735.000000
344568.000000
345415.000000
346238.000000
347052.000000
347876.000000
348731.000000
349569.000000
350390.000000
351226.000000
352069.000000
352910.000000
353739.000000
354568.000000
355399.000000
356210.000000
357012.000000
357811.000000
358618.000000
359424.000000
360220.000000
361025.000000
361831.000000
362634.000000
363439.000000
364248.000000
365065.000000
365882.000000
366688.000000
367505.000000
368335.000000
369149.000000
369949.000000
370755.000000
371558.000000
372343.000000
373129.000000
373925.000000
374737.000000
375531.000000
376323.000000
377124.000000
377939.000000
378736.000000
379536.000000
380348.000000
381162.000000
381973.000000
382785.000000
383595.000000
384419.000000
385222.000000
386034.000000
386843.000000
387657.000000
388464.000000
389266.000000
390075.000000
390892.000000
391701.000000
392499.000000
393310.000000
394109.000000
394904.000000
395700.000000
396503.000000
397322.000000
398136.000000
398956.000000
399786.000000
400633.000000
401460.000000
402285.000000
403138.000000
404009.000000
404876.000000
405699.000000
406530.000000
407368.000000
408192.000000
409012.000000
409832.000000
410671.000000
411515.000000
412337.000000
413154.000000
413982.000000
414800.000000
415620.000000
416441.000000
417270.000000
418094.000000
418904.000000
419704.000000
420516.000000
421347.000000
422177.000000
423003.000000
423834.000000
424655.000000
425477.000000
426279.000000
427088.000000
427897.000000
428709.000000
429522.000000
430339.000000
431157.000000
431979.000000
432780.000000
433575.000000
434371.000000
435167.000000
435951.000000
436732.000000
437518.000000
438313.000000
439100.000000
439887.000000
440692.000000
441501.000000
442303.000000
443106.000000
443914.000000
444734.000000
445536.000000
446334.000000
447142.000000
447959.000000
448762.000000
449558.000000
450386.000000
451210.000000
452015.000000
452823.000000
453644.000000
454469.000000
455280.000000
456079.000000
456884.000000
457701.000000
458505.000000
459304.000000
460123.000000
460965.000000
461789.000000
462608.000000
463434.000000
464259.000000
465078.000000
465881.000000
466692.000000
467512.000000
468309.000000
469109.000000
469928.000000
470751.000000
471555.000000
472367.000000
473180.000000
473985.000000
474780.000000
475580.000000
476389.000000
477200.000000
477998.000000
478804.000000
479633.000000
480457.000000
481268.000000
482095.000000
482934.000000
483766.000000
484591.000000
485425.000000
486254.000000
487102.000000
487918.000000
488715.000000
489518.000000
490325.000000
491123.000000
491918.000000
492721.000000
493524.000000
494329.000000
495118.000000
495918.000000
496726.000000
497526.000000
498318.000000
499112.000000
499917.000000
500713.000000
501497.000000
502285.000000
503081.000000
503879.000000
504665.000000
505459.000000
506272.000000
507084.000000
507883.000000
508699.000000
509522.000000
510364.000000
511181.000000
512004.000000
512832.000000
513659.000000
514467.000000
515285.000000
516109.000000
516928.000000
517740.000000
518563.000000
519398.000000
520240.000000
521089.000000
521937.000000
522799.000000
523642.000000
524467.000000
525288.000000
526128.000000
526953.000000
527774.000000
528596.000000
529434.000000
530265.000000
531085.000000
531900.000000
532724.000000
533533.000000
534339.000000
535141.000000
535962.000000
536781.000000
537605.000000
538436.000000
539292.000000
540152.000000
541003.000000
541839.000000
542683.000000
543534.000000
544386.000000
545220.000000
546047.000000
546859.000000
547673.000000
548467.000000
549263.000000
550067.000000
550877.000000
551689.000000
552501.000000
553329.000000
554149.000000
554961.000000
555786.000000
556641.000000
557518.000000
558379.000000
559236.000000
560124.000000
561012.000000
561870.000000
562724.000000
563587.000000
564456.000000
565318.000000
566157.000000
567008.000000
567851.000000
568686.000000
569497.000000
570325.000000
571134.000000
571940.000000
572737.000000
573547.000000
574364.000000
575173.000000
575981.000000
576803.000000
577636.000000
578469.000000
579287.000000
580107.000000
580932.000000
581747.000000
582570.000000
583386.000000
584218.000000
585038.000000
585860.000000
586703.000000
587552.000000
588388.000000
589207.000000
590028.000000
590861.000000
591675.000000
592490.000000
593306.000000
594131.000000
594942.000000
595435.000000
596575.000000
597394.000000
598181.000000
598957.000000
599728.000000
600507.000000
601282.000000
602054.000000
602838.000000
603634.000000
604440.000000
605236.000000
606034.000000
606846.000000
607661.000000
608463.000000
609273.000000
610091.000000
610912.000000
611720.000000
612533.000000
613351.000000
614183.000000
615014.000000
615846.000000
616680.000000
617529.000000
618364.000000
619196.000000
620039.000000
620883.000000
621709.000000
622536.000000
623366.000000
624199.000000
625024.000000
625861.000000
626709.000000
627546.000000
628380.000000
629208.000000
630043.000000
630892.000000
631728.000000
632563.000000
633413.000000
634275.000000
635131.000000
635991.000000
636859.000000
637727.000000
638591.000000
639425.000000
640262.000000
641098.000000
641920.000000
642739.000000
643561.000000
644387.000000
645207.000000
646014.000000
646820.000000
647642.000000
648476.000000
649290.000000
650097.000000
650909.000000
651745.000000
652592.000000
653422.000000
654245.000000
655086.000000
655942.000000
656795.000000
657664.000000
658537.000000
659418.000000
660280.000000
661143.000000
662019.000000
662887.000000
663734.000000
664579.000000
665431.000000
666280.000000
667100.000000
667906.000000
668733.000000
669553.000000
670365.000000
671170.000000
671984.000000
672815.000000
673627.000000
674436.000000
675250.000000
676070.000000
676896.000000
677710.000000
678537.000000
679370.000000
680217.000000
681043.000000
681874.000000
682710.000000
683551.000000
684367.000000
685174.000000
685984.000000
686809.000000
687621.000000
688422.000000
689235.000000
690056.000000
690884.000000
691703.000000
692521.000000
693350.000000
694169.000000
694981.000000
695806.000000
696640.000000
697463.000000
698281.000000
699110.000000
699941.000000
700754.000000
701559.000000
702386.000000
703224.000000
704038.000000
704859.000000
705684.000000
706508.000000
707327.000000
708151.000000
709018.000000
709897.000000
710770.000000
711634.000000
712504.000000
713374.000000
714250.000000
715102.000000
715969.000000
716842.000000
717710.000000
718553.000000
719407.000000
720248.000000
721092.000000
721923.000000
722763.000000
723620.000000
724484.000000
725322.000000
726144.000000
726991.000000
727836.000000
728664.000000
729496.000000
730342.000000
731215.000000
732093.000000
732951.000000
733818.000000
734688.000000
735554.000000
736402.000000
737238.000000
738105.000000
738971.000000
739831.000000
740681.000000
741548.000000
742413.000000
743251.000000
744079.000000
744917.000000
745751.000000
746564.000000
747371.000000
748179.000000
748987.000000
749789.000000
750583.000000
751390.000000
752198.000000
752996.000000
753791.000000
754605.000000
755432.000000
756259.000000
757076.000000
757905.000000
758743.000000
759591.000000
760411.000000
761227.000000
762055.000000
762873.000000
763679.000000
764479.000000
765287.000000
766116.000000
766935.000000
767754.000000
768585.000000
769422.000000
770254.000000
771071.000000
771891.000000
772694.000000
773493.000000
774289.000000
775093.000000
775912.000000
776723.000000
777528.000000
778350.000000
779169.000000
779976.000000
780782.000000
781601.000000
782415.000000
783215.000000
784017.000000
784826.000000
785650.000000
786465.000000
787275.000000
788103.000000
788933.000000
789749.000000
790569.000000
791396.000000
792249.000000
793097.000000
793935.000000
794798.000000
795661.000000
796510.000000
797348.000000
798189.000000
799026.000000
799853.000000
800681.000000
801508.000000
802339.000000
803156.000000
803968.000000
804796.000000
805628.000000
806461.000000
807296.000000
808144.000000
809002.000000
809840.000000
810667.000000
811507.000000
812336.000000
813153.000000
813979.000000
814805.000000
815634.000000
816447.000000
817272.000000
818103.000000
818939.000000
819756.000000
820576.000000
821400.000000
822241.000000
823076.000000
823896.000000
824721.000000
825554.000000
826380.000000
827196.000000
828014.000000
828844.000000
829656.000000
830470.000000
831290.000000
832127.000000
832961.000000
833778.000000
834605.000000
835442.000000
836275.000000
837107.000000
837954.000000
838815.000000
839658.000000
840494.000000
841347.000000
842225.000000
843140.000000
844026.000000
844904.000000
845784.000000
846656.000000
847519.000000
848371.000000
849236.000000
850110.000000
850961.000000
851802.000000
852633.000000
853472.000000
854302.000000
855129.000000
855984.000000
856845.000000
857700.000000
858534.000000
859378.000000
860236.000000
861121.000000
861985.000000
862840.000000
863707.000000
864577.000000
865408.000000
866244.000000
867109.000000
867980.000000
868831.000000
869680.000000
870528.000000
871374.000000
872204.000000
873024.000000
873848.000000
874679.000000
875515.000000
876328.000000
877146.000000
877969.000000
878802.000000
879624.000000
880445.000000
881285.000000
882130.000000
882969.000000
883787.000000
884619.000000
885460.000000
886284.000000
887096.000000
887910.000000
888733.000000
889549.000000
890364.000000
891198.000000
892045.000000
892910.000000
893762.000000
894615.000000
895475.000000
896329.000000
897179.000000
898002.000000
898836.000000
899669.000000
900506.000000
901329.000000
902145.000000
902967.000000
903777.000000
904590.000000
905398.000000
906211.000000
907033.000000
907847.000000
908662.000000
909482.000000
910312.000000
911145.000000
911963.000000
912790.000000
913617.000000
914442.000000
915257.000000
916080.000000
916902.000000
917715.000000
918534.000000
919345.000000
920163.000000
920974.000000
921783.000000
922614.000000
923459.000000
924295.000000
925133.000000
925984.000000
926838.000000
927674.000000
928498.000000
929324.000000
930162.000000
931008.000000
931828.000000
932648.000000
933484.000000
934310.000000
935127.000000
935942.000000
936769.000000
937594.000000
938406.000000
939218.000000
940042.000000
940856.000000
941659.000000
942461.000000
943285.000000
944103.000000
944918.000000
945755.000000
946590.000000
947419.000000
948235.000000
949065.000000
949899.000000
950731.000000
951549.000000
952369.000000
953197.000000
954021.000000
954836.000000
955670.000000
956515.000000
957369.000000
958215.000000
959087.000000
959951.000000
960818.000000
961663.000000
962524.000000
963392.000000
964264.000000
965125.000000
965989.000000
966880.000000
967771.000000
968635.000000
969480.000000
970329.000000
971187.000000
972019.000000
972834.000000
973666.000000
974512.000000
975347.000000
976176.000000
977019.000000
977875.000000
978738.000000
979596.000000
980457.000000
981328.000000
982175.000000
983027.000000
983890.000000
984747.000000
985587.000000
986403.000000
987208.000000
988013.000000
988819.000000
989615.000000
990420.000000
991231.000000
992059.000000
992888.000000
993711.000000
994551.000000
995418.000000
996294.000000
997141.000000
997995.000000
998855.000000
999703.000000
1000535.000000
1001363.000000
1002191.000000
1003002.000000
1003801.000000
1004600.000000
1005099.000000
1006211.000000
1007009.000000
1007796.000000
1008594.000000
1009386.000000
1010177.000000
1010980.000000
1011823.000000
1012678.000000
1013524.000000
1014383.000000
1015245.000000
1016107.000000
1016943.000000
1017781.000000
1018623.000000
1019467.000000
1020294.000000
1021125.000000
1021948.000000
1022790.000000
1023618.000000
1024442.000000
1025280.000000
1026112.000000
1026943.000000
1027757.000000
1028550.000000
1029375.000000
1030207.000000
1031036.000000
1031865.000000
1032709.000000
1033566.000000
1034426.000000
1035272.000000
1036109.000000
1036950.000000
1037796.000000
1038637.000000
1039465.000000
1040291.000000
1041117.000000
1041959.000000
1042798.000000
1043632.000000
1044467.000000
1045311.000000
1046137.000000
1046959.000000
1047795.000000
1048642.000000
1049474.000000
1050314.000000
1051177.000000
1052040.000000
1052886.000000
1053724.000000
1054560.000000
1055402.000000
1056219.000000
1057048.000000
1057870.000000
1058686.000000
1059490.000000
1060298.000000
1061110.000000
1061914.000000
1062712.000000
1063535.000000
1064361.000000
1065180.000000
1066008.000000
1066864.000000
1067740.000000
1068592.000000
1069452.000000
1070325.000000
1071201.000000
1072048.000000
1072883.000000
1073735.000000
1074590.000000
1075429.000000
1076249.000000
1077082.000000
1077910.000000
1078718.000000
1079527.000000
1080345.000000
1081163.000000
1081972.000000
1082780.000000
1083600.000000
1084442.000000
1085269.000000
1086126.000000
1086985.000000
1087845.000000
1088686.000000
1089539.000000
1090375.000000
1091211.000000
1092031.000000
1092846.000000
1093676.000000
1094504.000000
1095314.000000
1096114.000000
1096926.000000
1097735.000000
1098530.000000
1099338.000000
1100150.000000
1100956.000000
1101757.000000
1102552.000000
1103363.000000
1104170.000000
1104960.000000
1105755.000000
1106569.000000
1107400.000000
1108216.000000
1109024.000000
1109833.000000
1110642.000000
1111439.000000
1112234.000000
1113044.000000
1113846.000000
1114646.000000
1115453.000000
1116272.000000
1117090.000000
1117899.000000
1118723.000000
1119554.000000
1120381.000000
1121194.000000
1122012.000000
1122838.000000
1123654.000000
1124467.000000
1125281.000000
1126097.000000
1126901.000000
1127708.000000
1128533.000000
1129361.000000
1130199.000000
1131034.000000
1131888.000000
1132744.000000
1133582.000000
1134402.000000
1135235.000000
1136061.000000
1136873.000000
1137679.000000
1138500.000000
1139320.000000
1140132.000000
1140940.000000
1141775.000000
1142610.000000
1143432.000000
1144252.000000
1145074.000000
1145896.000000
1146700.000000
1147500.000000
1148309.000000
1149128.000000
1149936.000000
1150738.000000
1151556.000000
1152390.000000
1153238.000000
1154084.000000
1154935.000000
1155812.000000
1156686.000000
1157536.000000
1158383.000000
1159232.000000
1160082.000000
1160903.000000
1161733.000000
1162567.000000
1163409.000000
1164245.000000
1165077.000000
1165928.000000
1166797.000000
1167656.000000
1168512.000000
1169364.000000
1170232.000000
1171073.000000
1171905.000000
1172762.000000
1173620.000000
1174448.000000
1175259.000000
1176078.000000
1176897.000000
1177708.000000
1178508.000000
1179324.000000
1180146.000000
1180971.000000
1181792.000000
1182617.000000
1183441.000000
1184252.000000
1185082.000000
1185914.000000
1186737.000000
1187550.000000
1188378.000000
1189214.000000
1190029.000000
1190839.000000
1191646.000000
1192463.000000
1193259.000000
1194050.000000
1194857.000000
1195677.000000
1196495.000000
1197306.000000
1198140.000000
1198980.000000
1199800.000000
1200637.000000
1201492.000000
1202344.000000
1203188.000000
1204033.000000
1204895.000000
1205757.000000
1206608.000000
1207448.000000
