ECG (ms)
784.000000
1608.000000
2421.000000
3234.000000
4055.000000
4895.000000
5734.000000
6566.000000
7375.000000
8190.000000
8987.000000
9755.000000
10505.000000
11251.000000
12010.000000
12781.000000
13589.000000
14417.000000
15264.000000
16101.000000
16923.000000
17744.000000
18582.000000
19413.000000
20246.000000
21061.000000
21874.000000
22689.000000
23522.000000
24375.000000
25232.000000
26095.000000
26941.000000
27784.000000
28642.000000
29496.000000
30346.000000
31182.000000
32001.000000
32819.000000
33655.000000
34497.000000
35339.000000
36182.000000
37005.000000
37831.000000
38675.000000
39519.000000
40380.000000
41228.000000
42064.000000
42896.000000
43737.000000
44605.000000
45477.000000
46353.000000
47212.000000
48058.000000
48894.000000
49741.000000
50599.000000
51475.000000
52351.000000
53209.000000
54040.000000
54877.000000
55723.000000
56566.000000
57423.000000
58260.000000
59087.000000
59912.000000
60735.000000
61578.000000
62416.000000
63248.000000
64057.000000
64865.000000
65688.000000
66517.000000
67336.000000
68163.000000
68986.000000
69791.000000
70602.000000
71424.000000
72245.000000
73065.000000
73874.000000
74676.000000
75474.000000
76290.000000
77099.000000
77917.000000
78731.000000
79536.000000
80332.000000
81136.000000
81947.000000
82759.000000
83592.000000
84424.000000
85243.000000
86061.000000
86893.000000
87733.000000
88550.000000
89366.000000
90179.000000
90987.000000
91788.000000
92596.000000
93432.000000
94285.000000
95153.000000
96016.000000
96868.000000
97705.000000
98536.000000
99380.000000
100211.000000
101019.000000
101804.000000
102591.000000
103375.000000
104163.000000
104972.000000
105798.000000
106647.000000
107503.000000
108344.000000
109174.000000
110017.000000
110860.000000
111717.000000
112560.000000
113392.000000
114230.000000
115101.000000
115984.000000
116851.000000
117699.000000
118536.000000
119385.000000
120243.000000
121084.000000
121916.000000
122730.000000
123538.000000
124372.000000
125245.000000
126122.000000
127007.000000
127894.000000
128743.000000
129589.000000
130426.000000
131260.000000
132079.000000
132889.000000
133696.000000
134512.000000
135355.000000
136198.000000
137049.000000
137897.000000
138727.000000
139552.000000
140399.000000
141245.000000
142097.000000
142940.000000
143775.000000
144614.000000
145481.000000
146361.000000
147242.000000
148098.000000
148945.000000
149803.000000
150677.000000
151560.000000
152431.000000
153288.000000
154149.000000
155027.000000
155896.000000
156777.000000
157655.000000
158507.000000
159368.000000
160246.000000
161125.000000
161996.000000
162851.000000
163701.000000
164543.000000
165370.000000
166196.000000
167023.000000
167841.000000
168686.000000
169516.000000
170323.000000
171135.000000
171947.000000
172748.000000
173534.000000
174291.000000
175043.000000
175818.000000
176620.000000
177434.000000
178261.000000
179096.000000
179935.000000
180768.000000
181578.000000
182381.000000
183192.000000
184003.000000
184826.000000
185653.000000
186489.000000
187314.000000
188140.000000
188960.000000
189795.000000
190632.000000
191476.000000
192331.000000
193177.000000
194005.000000
194845.000000
195693.000000
196553.000000
197405.000000
198241.000000
199072.000000
199913.000000
200793.000000
201665.000000
202511.000000
203353.000000
204210.000000
205061.000000
205902.000000
206748.000000
207565.000000
208390.000000
209212.000000
210027.000000
210844.000000
211645.000000
212458.000000
213282.000000
214114.000000
214952.000000
215775.000000
216586.000000
217407.000000
218233.000000
219061.000000
219889.000000
220698.000000
221516.000000
222335.000000
223142.000000
223941.000000
224743.000000
225580.000000
226411.000000
227230.000000
228040.000000
228867.000000
229697.000000
230507.000000
231310.000000
232121.000000
232931.000000
233743.000000
234570.000000
235399.000000
236225.000000
237039.000000
237879.000000
238731.000000
239565.000000
240398.000000
241224.000000
242050.000000
242867.000000
243676.000000
244481.000000
245280.000000
246065.000000
246849.000000
247654.000000
248458.000000
249267.000000
250089.000000
250916.000000
251723.000000
252537.000000
253361.000000
254178.000000
254993.000000
255824.000000
256660.000000
257491.000000
258332.000000
259178.000000
260023.000000
260858.000000
261702.000000
262558.000000
263416.000000
264254.000000
265097.000000
265945.000000
266785.000000
267626.000000
268462.000000
269309.000000
270162.000000
271025.000000
271896.000000
272747.000000
273601.000000
274470.000000
275340.000000
276200.000000
277042.000000
277890.000000
278792.000000
279693.000000
280573.000000
281427.000000
282315.000000
283193.000000
284059.000000
284908.000000
285756.000000
286612.000000
287464.000000
288311.000000
289166.000000
290045.000000
290918.000000
291761.000000
292611.000000
293473.000000
294341.000000
295190.000000
296049.000000
296931.000000
297837.000000
298720.000000
299583.000000
300455.000000
301333.000000
302206.000000
303056.000000
303913.000000
304790.000000
305660.000000
306520.000000
307363.000000
308244.000000
309129.000000
310006.000000
310906.000000
311760.000000
312605.000000
313450.000000
314293.000000
315135.000000
315961.000000
316793.000000
317633.000000
318481.000000
319325.000000
320166.000000
321011.000000
321852.000000
322673.000000
323499.000000
324339.000000
325163.000000
325973.000000
326764.000000
327558.000000
328369.000000
329203.000000
330040.000000
330892.000000
331736.000000
332574.000000
333433.000000
334298.000000
335163.000000
336007.000000
336852.000000
337718.000000
338572.000000
339419.000000
340262.000000
341119.000000
341967.000000
342812.000000
343653.000000
344484.000000
345310.000000
346137.000000
346989.000000
347867.000000
348744.000000
349618.000000
350490.000000
351344.000000
352175.000000
352995.000000
353817.000000
354663.000000
355518.000000
356379.000000
357237.000000
358074.000000
358895.000000
359724.000000
360571.000000
361413.000000
362260.000000
363084.000000
363907.000000
364742.000000
365600.000000
366452.000000
367300.000000
368128.000000
368953.000000
369785.000000
370635.000000
371502.000000
372384.000000
373233.000000
374085.000000
374941.000000
375788.000000
376616.000000
377450.000000
378282.000000
379080.000000
379869.000000
380656.000000
381461.000000
382292.000000
383138.000000
384002.000000
384843.000000
385673.000000
386508.000000
387356.000000
388210.000000
389062.000000
389915.000000
390758.000000
391592.000000
392431.000000
393289.000000
394132.000000
394969.000000
395809.000000
396647.000000
397464.000000
398284.000000
399108.000000
399955.000000
400823.000000
401685.000000
402548.000000
403405.000000
404257.000000
405095.000000
405933.000000
406780.000000
407623.000000
408469.000000
409323.000000
410180.000000
411013.000000
411859.000000
412725.000000
413609.000000
414504.000000
415366.000000
416216.000000
417058.000000
417892.000000
418751.000000
419615.000000
420494.000000
421380.000000
422234.000000
423070.000000
423920.000000
424789.000000
425668.000000
426531.000000
427387.000000
428237.000000
429086.000000
429920.000000
430742.000000
431571.000000
432419.000000
433286.000000
434150.000000
435009.000000
435876.000000
436722.000000
437555.000000
438397.000000
439261.000000
440137.000000
440999.000000
441868.000000
442731.000000
443571.000000
444404.000000
445234.000000
446078.000000
446964.000000
447839.000000
448715.000000
449590.000000
450447.000000
451307.000000
452146.000000
452973.000000
453804.000000
454652.000000
455470.000000
456279.000000
457060.000000
457850.000000
458640.000000
459438.000000
460257.000000
461127.000000
461993.000000
462846.000000
463676.000000
464499.000000
465316.000000
466135.000000
466953.000000
467767.000000
468575.000000
469381.000000
470190.000000
471046.000000
471923.000000
472811.000000
473675.000000
474521.000000
475364.000000
476225.000000
477079.000000
477946.000000
478791.000000
479619.000000
480443.000000
481277.000000
482089.000000
482911.000000
483728.000000
484544.000000
485376.000000
486251.000000
487120.000000
488010.000000
488870.000000
489712.000000
490550.000000
491403.000000
492269.000000
493135.000000
493989.000000
494825.000000
495669.000000
496542.000000
497414.000000
498287.000000
499146.000000
499999.000000
500868.000000
501729.000000
502572.000000
503401.000000
504224.000000
505057.000000
505893.000000
506744.000000
507607.000000
508469.000000
509307.000000
510140.000000
510976.000000
511801.000000
512613.000000
513417.000000
514234.000000
515070.000000
515910.000000
516762.000000
517622.000000
518475.000000
519328.000000
520176.000000
521018.000000
521851.000000
522672.000000
523487.000000
524313.000000
525161.000000
526034.000000
526915.000000
527769.000000
528628.000000
529477.000000
530318.000000
531158.000000
531986.000000
532795.000000
533587.000000
534374.000000
535169.000000
536000.000000
536843.000000
537655.000000
538451.000000
539231.000000
540024.000000
540824.000000
541615.000000
542399.000000
543181.000000
543971.000000
544786.000000
545635.000000
546506.000000
547368.000000
548243.000000
549109.000000
549973.000000
550826.000000
551675.000000
552502.000000
553317.000000
554141.000000
554981.000000
555843.000000
556705.000000
557576.000000
558437.000000
559286.000000
560137.000000
560975.000000
561794.000000
562605.000000
563417.000000
564237.000000
565066.000000
565895.000000
566729.000000
567571.000000
568406.000000
569229.000000
570037.000000
570851.000000
571673.000000
572509.000000
573348.000000
574191.000000
575044.000000
575877.000000
576688.000000
577488.000000
578286.000000
579088.000000
579881.000000
580685.000000
581479.000000
582277.000000
583075.000000
583896.000000
584716.000000
585530.000000
586333.000000
587129.000000
587928.000000
588743.000000
589562.000000
590387.000000
591210.000000
592024.000000
592865.000000
593728.000000
594605.000000
595462.000000
596314.000000
597192.000000
598080.000000
598962.000000
599846.000000
600707.000000
601550.000000
602412.000000
603278.000000
604140.000000
604989.000000
605856.000000
606749.000000
607626.000000
608481.000000
609343.000000
610243.000000
611125.000000
611992.000000
612852.000000
613741.000000
614632.000000
615494.000000
616336.000000
617177.000000
618015.000000
618874.000000
619761.000000
620650.000000
621565.000000
622441.000000
623268.000000
624092.000000
624905.000000
625711.000000
626507.000000
627307.000000
628098.000000
628897.000000
629713.000000
630544.000000
631354.000000
632148.000000
632930.000000
633723.000000
634514.000000
635298.000000
636087.000000
636882.000000
637670.000000
638449.000000
639218.000000
639990.000000
640770.000000
641551.000000
642335.000000
643148.000000
643963.000000
644759.000000
645542.000000
646324.000000
647120.000000
647922.000000
648719.000000
649516.000000
650302.000000
651074.000000
651842.000000
652612.000000
653384.000000
654151.000000
654917.000000
655686.000000
656446.000000
657213.000000
657991.000000
658776.000000
659556.000000
660328.000000
661103.000000
661872.000000
662647.000000
663426.000000
664195.000000
664973.000000
665757.000000
666529.000000
667293.000000
668061.000000
668843.000000
669619.000000
670403.000000
671183.000000
671957.000000
672741.000000
673530.000000
674329.000000
675135.000000
675952.000000
676748.000000
677520.000000
678284.000000
679051.000000
679811.000000
680578.000000
681369.000000
682213.000000
683070.000000
683938.000000
684826.000000
685690.000000
686534.000000
687379.000000
688246.000000
689114.000000
689966.000000
690806.000000
691647.000000
692506.000000
693353.000000
694194.000000
695038.000000
695915.000000
696796.000000
697703.000000
698576.000000
699462.000000
700354.000000
701226.000000
702079.000000
702940.000000
703827.000000
704706.000000
705594.000000
706473.000000
707349.000000
708249.000000
709174.000000
710101.000000
711019.000000
711893.000000
712762.000000
713639.000000
714525.000000
715429.000000
716348.000000
717231.000000
718082.000000
718935.000000
719789.000000
720632.000000
721468.000000
722289.000000
723113.000000
723968.000000
724834.000000
725724.000000
726594.000000
727468.000000
728368.000000
729262.000000
730146.000000
731012.000000
731866.000000
732722.000000
733590.000000
734458.000000
735310.000000
736172.000000
737064.000000
737952.000000
738818.000000
739679.000000
740560.000000
741445.000000
742324.000000
743191.000000
744041.000000
744905.000000
745781.000000
746633.000000
747503.000000
748403.000000
749296.000000
750163.000000
751036.000000
751913.000000
752790.000000
753663.000000
754519.000000
755370.000000
756233.000000
757103.000000
757968.000000
758812.000000
759644.000000
760471.000000
761303.000000
762134.000000
762962.000000
763798.000000
764632.000000
765468.000000
766305.000000
767132.000000
767951.000000
768756.000000
769563.000000
770392.000000
771231.000000
772080.000000
772927.000000
773764.000000
774597.000000
775447.000000
776288.000000
777122.000000
777947.000000
778773.000000
779604.000000
780425.000000
781237.000000
782043.000000
782836.000000
783637.000000
784441.000000
785249.000000
786060.000000
786870.000000
787686.000000
788487.000000
789299.000000
790103.000000
790893.000000
791679.000000
792468.000000
793278.000000
794092.000000
794917.000000
795739.000000
796543.000000
797343.000000
798158.000000
798963.000000
799769.000000
800566.000000
801361.000000
802176.000000
802985.000000
803798.000000
804599.000000
805420.000000
806247.000000
807056.000000
807858.000000
808654.000000
809440.000000
810205.000000
810961.000000
811719.000000
812481.000000
813258.000000
814039.000000
814844.000000
815651.000000
816455.000000
817272.000000
818091.000000
818908.000000
819711.000000
820529.000000
821341.000000
822149.000000
822947.000000
823760.000000
824569.000000
825370.000000
826187.000000
827020.000000
827840.000000
828645.000000
829452.000000
830261.000000
831072.000000
831882.000000
832691.000000
833514.000000
834354.000000
835208.000000
836040.000000
836865.000000
837709.000000
838561.000000
839410.000000
840250.000000
841070.000000
841904.000000
842750.000000
843602.000000
844443.000000
845292.000000
846152.000000
847011.000000
847854.000000
848720.000000
849589.000000
850436.000000
851300.000000
852180.000000
853052.000000
853915.000000
854760.000000
855620.000000
856497.000000
857354.000000
858208.000000
859060.000000
859920.000000
860761.000000
861587.000000
862423.000000
863264.000000
864110.000000
864936.000000
865756.000000
866593.000000
867441.000000
868286.000000
869128.000000
869951.000000
870786.000000
871618.000000
872444.000000
873260.000000
874072.000000
874900.000000
875753.000000
876579.000000
877398.000000
878220.000000
879042.000000
879858.000000
880667.000000
881478.000000
882292.000000
883130.000000
883970.000000
884788.000000
885602.000000
886409.000000
887225.000000
888051.000000
888846.000000
889617.000000
890377.000000
891143.000000
891916.000000
892694.000000
893488.000000
894275.000000
895060.000000
895835.000000
896602.000000
897375.000000
898164.000000
898967.000000
899788.000000
900604.000000
901396.000000
