ECG (ms)
614.000000
1364.000000
2100.000000
2822.000000
3545.000000
4286.000000
5097.000000
5941.000000
6791.000000
7609.000000
8390.000000
9165.000000
9932.000000
10691.000000
11443.000000
12204.000000
12967.000000
13715.000000
14446.000000
15158.000000
15893.000000
16622.000000
17356.000000
18072.000000
18779.000000
19493.000000
20220.000000
20960.000000
21707.000000
22435.000000
23136.000000
23851.000000
24575.000000
25327.000000
26077.000000
26814.000000
27515.000000
28233.000000
28959.000000
29711.000000
30452.000000
31173.000000
31918.000000
32678.000000
33435.000000
34166.000000
34889.000000
35609.000000
36324.000000
37008.000000
37677.000000
38310.000000
38955.000000
39641.000000
40350.000000
41066.000000
41802.000000
42568.000000
43334.000000
44071.000000
44780.000000
45496.000000
46216.000000
46952.000000
47674.000000
48379.000000
49114.000000
49869.000000
50637.000000
51391.000000
52114.000000
52825.000000
53564.000000
54317.000000
55066.000000
55796.000000
56499.000000
57216.000000
57938.000000
58655.000000
59358.000000
60060.000000
60790.000000
61548.000000
62307.000000
63071.000000
63859.000000
64669.000000
65468.000000
66247.000000
67032.000000
67793.000000
68532.000000
69252.000000
69994.000000
70741.000000
71514.000000
72276.000000
73031.000000
73824.000000
74640.000000
75466.000000
76271.000000
77047.000000
77835.000000
78637.000000
79435.000000
80219.000000
81000.000000
81795.000000
82601.000000
83416.000000
84217.000000
85030.000000
85837.000000
86638.000000
87443.000000
88276.000000
89127.000000
89961.000000
90772.000000
91602.000000
92437.000000
93255.000000
94048.000000
94836.000000
95653.000000
96490.000000
97353.000000
98188.000000
98992.000000
99783.000000
100596.000000
101432.000000
102261.000000
103097.000000
103948.000000
104787.000000
105603.000000
106418.000000
107233.000000
108031.000000
108823.000000
109631.000000
110466.000000
111281.000000
112098.000000
112913.000000
113728.000000
114523.000000
115303.000000
116091.000000
116887.000000
117682.000000
118489.000000
119311.000000
120119.000000
120922.000000
121731.000000
122532.000000
123303.000000
124067.000000
124822.000000
125582.000000
126345.000000
127146.000000
128016.000000
128922.000000
129807.000000
130695.000000
131591.000000
132449.000000
133287.000000
134120.000000
134948.000000
135734.000000
136507.000000
137274.000000
138048.000000
138838.000000
139646.000000
140520.000000
141413.000000
142280.000000
143158.000000
144033.000000
144881.000000
145724.000000
146557.000000
147360.000000
148148.000000
148937.000000
149730.000000
150521.000000
151334.000000
152162.000000
152977.000000
153780.000000
154599.000000
155408.000000
156200.000000
156998.000000
157789.000000
158577.000000
159369.000000
160179.000000
160962.000000
161731.000000
162504.000000
163297.000000
164102.000000
164922.000000
165768.000000
166633.000000
167494.000000
168357.000000
169228.000000
170065.000000
170867.000000
171673.000000
172478.000000
173273.000000
174052.000000
174812.000000
175623.000000
176480.000000
177376.000000
178238.000000
179094.000000
179973.000000
180837.000000
181675.000000
182485.000000
183311.000000
184128.000000
184923.000000
185717.000000
186527.000000
187342.000000
188160.000000
188953.000000
189764.000000
190582.000000
191402.000000
192208.000000
192997.000000
193775.000000
194572.000000
195385.000000
196201.000000
196989.000000
197756.000000
198538.000000
199328.000000
200096.000000
200861.000000
201632.000000
202427.000000
203209.000000
203971.000000
204754.000000
205550.000000
206333.000000
207090.000000
207853.000000
208614.000000
209389.000000
210158.000000
210938.000000
211755.000000
212581.000000
213402.000000
214225.000000
215037.000000
215821.000000
216585.000000
217349.000000
218135.000000
218934.000000
219730.000000
220543.000000
221381.000000
222221.000000
223033.000000
223810.000000
224586.000000
225357.000000
226131.000000
226929.000000
227717.000000
228516.000000
229339.000000
230170.000000
230994.000000
231796.000000
232598.000000
233413.000000
234225.000000
235024.000000
235819.000000
236623.000000
237434.000000
238234.000000
239039.000000
239857.000000
240673.000000
241474.000000
242283.000000
243092.000000
243894.000000
244689.000000
245503.000000
246322.000000
247139.000000
247935.000000
248752.000000
249571.000000
250375.000000
251165.000000
251970.000000
252801.000000
253649.000000
254490.000000
255300.000000
256116.000000
256958.000000
257807.000000
258631.000000
259435.000000
260244.000000
261073.000000
261907.000000
262732.000000
263561.000000
264402.000000
265239.000000
266055.000000
266852.000000
267655.000000
268462.000000
269261.000000
270049.000000
270838.000000
271641.000000
272432.000000
273211.000000
273979.000000
274768.000000
275566.000000
276365.000000
277172.000000
277991.000000
278804.000000
279598.000000
280377.000000
281165.000000
281947.000000
282716.000000
283523.000000
284338.000000
285147.000000
285934.000000
286737.000000
287539.000000
288333.000000
289132.000000
289943.000000
290744.000000
291542.000000
292362.000000
293190.000000
293992.000000
294784.000000
295597.000000
296418.000000
297222.000000
298025.000000
298850.000000
299676.000000
300500.000000
301303.000000
302126.000000
302963.000000
303813.000000
304633.000000
305439.000000
306259.000000
307098.000000
307929.000000
308736.000000
309521.000000
310335.000000
311165.000000
311990.000000
312811.000000
313603.000000
314415.000000
315231.000000
316035.000000
316763.000000
317441.000000
318105.000000
318770.000000
319432.000000
320135.000000
320886.000000
321681.000000
322458.000000
323253.000000
324075.000000
324911.000000
325707.000000
326486.000000
327256.000000
328022.000000
328775.000000
329534.000000
330322.000000
331128.000000
331949.000000
332745.000000
333519.000000
334300.000000
335087.000000
335864.000000
336636.000000
337400.000000
338167.000000
338926.000000
339683.000000
340454.000000
341223.000000
341987.000000
342736.000000
343476.000000
344217.000000
344954.000000
345691.000000
346425.000000
347170.000000
347919.000000
348672.000000
349414.000000
350171.000000
350920.000000
351677.000000
352443.000000
353183.000000
353913.000000
354650.000000
355386.000000
356104.000000
356824.000000
357556.000000
358289.000000
359004.000000
359700.000000
360403.000000
361117.000000
361850.000000
362573.000000
363288.000000
364013.000000
364742.000000
365466.000000
366182.000000
366906.000000
367634.000000
368365.000000
369080.000000
369790.000000
370514.000000
371254.000000
371986.000000
372710.000000
373455.000000
374216.000000
374960.000000
375714.000000
376450.000000
377188.000000
377935.000000
378678.000000
379411.000000
380160.000000
380919.000000
381678.000000
382421.000000
383167.000000
383918.000000
384662.000000
385398.000000
386142.000000
386884.000000
387629.000000
388366.000000
389119.000000
389882.000000
390643.000000
391394.000000
392148.000000
392902.000000
393645.000000
394381.000000
395144.000000
395925.000000
396707.000000
397494.000000
398296.000000
399091.000000
399869.000000
400653.000000
401443.000000
402228.000000
403016.000000
403815.000000
404634.000000
405437.000000
406246.000000
407070.000000
407890.000000
408700.000000
409533.000000
410361.000000
411185.000000
411990.000000
412809.000000
413651.000000
414499.000000
415336.000000
416197.000000
417061.000000
417911.000000
418751.000000
419586.000000
420406.000000
421204.000000
422010.000000
422830.000000
423641.000000
424458.000000
425281.000000
426110.000000
426927.000000
427733.000000
428519.000000
429288.000000
430057.000000
430840.000000
431640.000000
432450.000000
433268.000000
434097.000000
434913.000000
435705.000000
436499.000000
437310.000000
438100.000000
438866.000000
439640.000000
440413.000000
441187.000000
441945.000000
442700.000000
443494.000000
444318.000000
445141.000000
445940.000000
446759.000000
447568.000000
448365.000000
449183.000000
450012.000000
450830.000000
451626.000000
452434.000000
453241.000000
454031.000000
454817.000000
455614.000000
456420.000000
457214.000000
458015.000000
458832.000000
459645.000000
460445.000000
461269.000000
462103.000000
462929.000000
463758.000000
464607.000000
465468.000000
466319.000000
467158.000000
468019.000000
468888.000000
469743.000000
470576.000000
471437.000000
472324.000000
473216.000000
474071.000000
474887.000000
475712.000000
476546.000000
477364.000000
478165.000000
478972.000000
479794.000000
480630.000000
481451.000000
482289.000000
483137.000000
483984.000000
484805.000000
485626.000000
486451.000000
487280.000000
488099.000000
488949.000000
489802.000000
490637.000000
491435.000000
492241.000000
493070.000000
493923.000000
494771.000000
495617.000000
496495.000000
497358.000000
498177.000000
498971.000000
499772.000000
500570.000000
501354.000000
502138.000000
502956.000000
503779.000000
504593.000000
505416.000000
506255.000000
507080.000000
507895.000000
508714.000000
509530.000000
510320.000000
511104.000000
511891.000000
512671.000000
513440.000000
514236.000000
515040.000000
515841.000000
516648.000000
517467.000000
518292.000000
519093.000000
519901.000000
520709.000000
521501.000000
522277.000000
523059.000000
523839.000000
524610.000000
525397.000000
526204.000000
527015.000000
527827.000000
528659.000000
529493.000000
530312.000000
531134.000000
531958.000000
532771.000000
533564.000000
534351.000000
535166.000000
535988.000000
536802.000000
537645.000000
538531.000000
539417.000000
540259.000000
541042.000000
541777.000000
542513.000000
543265.000000
544026.000000
544846.000000
545701.000000
546564.000000
547420.000000
548286.000000
549141.000000
549984.000000
550817.000000
551667.000000
552543.000000
553404.000000
554241.000000
555075.000000
555931.000000
556799.000000
557655.000000
558502.000000
559361.000000
560211.000000
561047.000000
561873.000000
562718.000000
563576.000000
564431.000000
565269.000000
566105.000000
566947.000000
567791.000000
568649.000000
569504.000000
570343.000000
571176.000000
572030.000000
572895.000000
573752.000000
574583.000000
575396.000000
576224.000000
577069.000000
577921.000000
578740.000000
579557.000000
580403.000000
581260.000000
582106.000000
582940.000000
583804.000000
584678.000000
585536.000000
586340.000000
587147.000000
587960.000000
588775.000000
589575.000000
590364.000000
591182.000000
592021.000000
592860.000000
593675.000000
594493.000000
595336.000000
596188.000000
597029.000000
597847.000000
598673.000000
599501.000000
600309.000000
601096.000000
601893.000000
602695.000000
603500.000000
604306.000000
605130.000000
605958.000000
606783.000000
607635.000000
608483.000000
609305.000000
610130.000000
610956.000000
611755.000000
612547.000000
613362.000000
614184.000000
614994.000000
615809.000000
616623.000000
617436.000000
618255.000000
619082.000000
619930.000000
620782.000000
621617.000000
622468.000000
623335.000000
624184.000000
625031.000000
625883.000000
626717.000000
627523.000000
628339.000000
629153.000000
629960.000000
630775.000000
631619.000000
632465.000000
633287.000000
634121.000000
634958.000000
635773.000000
636576.000000
637394.000000
638207.000000
639001.000000
639808.000000
640628.000000
641446.000000
642259.000000
643099.000000
643941.000000
644766.000000
645595.000000
646434.000000
647251.000000
648054.000000
648862.000000
649681.000000
650493.000000
651313.000000
652151.000000
652990.000000
653820.000000
654660.000000
655507.000000
656331.000000
657149.000000
657976.000000
658797.000000
659588.000000
660397.000000
661231.000000
662062.000000
662897.000000
663755.000000
664618.000000
665464.000000
666300.000000
667134.000000
667973.000000
668791.000000
669600.000000
670431.000000
671263.000000
672085.000000
672932.000000
673809.000000
674666.000000
675499.000000
676318.000000
677130.000000
677923.000000
678723.000000
679535.000000
680338.000000
681140.000000
681980.000000
682849.000000
683723.000000
684576.000000
685439.000000
686289.000000
687097.000000
687876.000000
688660.000000
689428.000000
690189.000000
690951.000000
691732.000000
692508.000000
693279.000000
694054.000000
694831.000000
695595.000000
696340.000000
697109.000000
697880.000000
698642.000000
699387.000000
700143.000000
700896.000000
701648.000000
702391.000000
703151.000000
703905.000000
704655.000000
705388.000000
706125.000000
706871.000000
707613.000000
708356.000000
709115.000000
709870.000000
710623.000000
711376.000000
712125.000000
712867.000000
713608.000000
714349.000000
715106.000000
715867.000000
716628.000000
717401.000000
718184.000000
718962.000000
719735.000000
720489.000000
721266.000000
722045.000000
722825.000000
723591.000000
724376.000000
725170.000000
725958.000000
726738.000000
727542.000000
728357.000000
729155.000000
729950.000000
730756.000000
731565.000000
732362.000000
733162.000000
733969.000000
734771.000000
735558.000000
736356.000000
737172.000000
737974.000000
738769.000000
739578.000000
740402.000000
741220.000000
742040.000000
742867.000000
743684.000000
744477.000000
745272.000000
746071.000000
746859.000000
747639.000000
748430.000000
749243.000000
750062.000000
750889.000000
751723.000000
752561.000000
753375.000000
754182.000000
754991.000000
755782.000000
756558.000000
757361.000000
758199.000000
759055.000000
759908.000000
760741.000000
761554.000000
762345.000000
763141.000000
763945.000000
764749.000000
765568.000000
766349.000000
767113.000000
767882.000000
768651.000000
769416.000000
770200.000000
771004.000000
771775.000000
772524.000000
773264.000000
774002.000000
774727.000000
775436.000000
776164.000000
776895.000000
777623.000000
778348.000000
779086.000000
779825.000000
780573.000000
781315.000000
782045.000000
782785.000000
783533.000000
784270.000000
785018.000000
785760.000000
786489.000000
787207.000000
787920.000000
788635.000000
789357.000000
790077.000000
790798.000000
791546.000000
792312.000000
793078.000000
793846.000000
794609.000000
795357.000000
796101.000000
796859.000000
797628.000000
798390.000000
799157.000000
799926.000000
800693.000000
801450.000000
802216.000000
802978.000000
803740.000000
804502.000000
805276.000000
806060.000000
806852.000000
807628.000000
808428.000000
809242.000000
810056.000000
810845.000000
811628.000000
812426.000000
813248.000000
814086.000000
