ECG (ms)
553.000000
1429.000000
2320.000000
3241.000000
4140.000000
4970.000000
5778.000000
6572.000000
7380.000000
8251.000000
9224.000000
10153.000000
11081.000000
12076.000000
13084.000000
14038.000000
14931.000000
15798.000000
16692.000000
17622.000000
18585.000000
19544.000000
20502.000000
21456.000000
22401.000000
23301.000000
24161.000000
25043.000000
25973.000000
26928.000000
27901.000000
28855.000000
29799.000000
30753.000000
31721.000000
32658.000000
33560.000000
34474.000000
35395.000000
36293.000000
37158.000000
38016.000000
38921.000000
39844.000000
40780.000000
41686.000000
42625.000000
43584.000000
44545.000000
45482.000000
46359.000000
47251.000000
48112.000000
49005.000000
49875.000000
50718.000000
51573.000000
52505.000000
53412.000000
54284.000000
55171.000000
56065.000000
56966.000000
57869.000000
58780.000000
59665.000000
60509.000000
61380.000000
62316.000000
63272.000000
64212.000000
65127.000000
66005.000000
66884.000000
67799.000000
68724.000000
69612.000000
70451.000000
71293.000000
72183.000000
73102.000000
74059.000000
75010.000000
75908.000000
76751.000000
77582.000000
78414.000000
79285.000000
80239.000000
81230.000000
82195.000000
83114.000000
84067.000000
85025.000000
85937.000000
86813.000000
87692.000000
88582.000000
89462.000000
90338.000000
91184.000000
92020.000000
92880.000000
93766.000000
94612.000000
95446.000000
96349.000000
97260.000000
98177.000000
99111.000000
100047.000000
100959.000000
101810.000000
102649.000000
103496.000000
104353.000000
105240.000000
106125.000000
106983.000000
107881.000000
108818.000000
109769.000000
110712.000000
111608.000000
112477.000000
113373.000000
114267.000000
115180.000000
116097.000000
116973.000000
117824.000000
118728.000000
119692.000000
120676.000000
121665.000000
122581.000000
123481.000000
124385.000000
125287.000000
126202.000000
127091.000000
127966.000000
128867.000000
129835.000000
130869.000000
131894.000000
132893.000000
133847.000000
134719.000000
135577.000000
136468.000000
137396.000000
138315.000000
139222.000000
140105.000000
141009.000000
141951.000000
142879.000000
143798.000000
144722.000000
145606.000000
146499.000000
147438.000000
148389.000000
149338.000000
150258.000000
151166.000000
152034.000000
152885.000000
153763.000000
154718.000000
155704.000000
156715.000000
157726.000000
158660.000000
159558.000000
160462.000000
161361.000000
162272.000000
163196.000000
164110.000000
165011.000000
165864.000000
166717.000000
167598.000000
168511.000000
169407.000000
170297.000000
171146.000000
172001.000000
172904.000000
173786.000000
174615.000000
175441.000000
176311.000000
177163.000000
178050.000000
178959.000000
179856.000000
180753.000000
181627.000000
182460.000000
183297.000000
184163.000000
185072.000000
185981.000000
186880.000000
187742.000000
188622.000000
189526.000000
190450.000000
191367.000000
192242.000000
193116.000000
194030.000000
194977.000000
195938.000000
196848.000000
197723.000000
198627.000000
199541.000000
200453.000000
201355.000000
202204.000000
203041.000000
203890.000000
204819.000000
205757.000000
206707.000000
207627.000000
208501.000000
209384.000000
210294.000000
211217.000000
212136.000000
213019.000000
213879.000000
214754.000000
215651.000000
216551.000000
217474.000000
218368.000000
219226.000000
220092.000000
220995.000000
221934.000000
222861.000000
223759.000000
224620.000000
225447.000000
226307.000000
227190.000000
228092.000000
229004.000000
229930.000000
230819.000000
231713.000000
232609.000000
233504.000000
234400.000000
235289.000000
236146.000000
237007.000000
237904.000000
238872.000000
239821.000000
240747.000000
241647.000000
242526.000000
243394.000000
244283.000000
245200.000000
246141.000000
247070.000000
247935.000000
248787.000000
249656.000000
250559.000000
251491.000000
252441.000000
253341.000000
254239.000000
255159.000000
256078.000000
256983.000000
257873.000000
258728.000000
259588.000000
260467.000000
261372.000000
262309.000000
263252.000000
264139.000000
265039.000000
265961.000000
266908.000000
267869.000000
268853.000000
269810.000000
270736.000000
271618.000000
272493.000000
273377.000000
274286.000000
275207.000000
276126.000000
277001.000000
277857.000000
278720.000000
279648.000000
280575.000000
281501.000000
282412.000000
283288.000000
284179.000000
285107.000000
286035.000000
286953.000000
287820.000000
288682.000000
289558.000000
290437.000000
291338.000000
292222.000000
293112.000000
294028.000000
294924.000000
295831.000000
296715.000000
297578.000000
298405.000000
299286.000000
300240.000000
301148.000000
302049.000000
302981.000000
303902.000000
304843.000000
305726.000000
306608.000000
307529.000000
308479.000000
309436.000000
310359.000000
311303.000000
312243.000000
313176.000000
314087.000000
314958.000000
315839.000000
316739.000000
317630.000000
318527.000000
319438.000000
320313.000000
321201.000000
322112.000000
323034.000000
323954.000000
324829.000000
325697.000000
326586.000000
327486.000000
328406.000000
329323.000000
330198.000000
331060.000000
331955.000000
332876.000000
333779.000000
334654.000000
335519.000000
336411.000000
337300.000000
338188.000000
339060.000000
339908.000000
340766.000000
341651.000000
342542.000000
343430.000000
344303.000000
345191.000000
346074.000000
346947.000000
347793.000000
348626.000000
349467.000000
350330.000000
351203.000000
352082.000000
352949.000000
353802.000000
354683.000000
355561.000000
356435.000000
357301.000000
358143.000000
358976.000000
359828.000000
360687.000000
361564.000000
362429.000000
363270.000000
364117.000000
364950.000000
365756.000000
366563.000000
367396.000000
368224.000000
369056.000000
369908.000000
370772.000000
371632.000000
372528.000000
373410.000000
374251.000000
375098.000000
375960.000000
376857.000000
377788.000000
378705.000000
379593.000000
380494.000000
381401.000000
382292.000000
383174.000000
384033.000000
384904.000000
385794.000000
386708.000000
387583.000000
388460.000000
389354.000000
390269.000000
391163.000000
392023.000000
392867.000000
393723.000000
394607.000000
395530.000000
396432.000000
397316.000000
398227.000000
399178.000000
400120.000000
401038.000000
401930.000000
402818.000000
403736.000000
404634.000000
405542.000000
406418.000000
407289.000000
408179.000000
409104.000000
410009.000000
410902.000000
411751.000000
412602.000000
413447.000000
414298.000000
415181.000000
416078.000000
416951.000000
417843.000000
418753.000000
419661.000000
420535.000000
421407.000000
422279.000000
423157.000000
424048.000000
424951.000000
425832.000000
426731.000000
427632.000000
428535.000000
429419.000000
430291.000000
431172.000000
432075.000000
432973.000000
433866.000000
434741.000000
435648.000000
436575.000000
437533.000000
438481.000000
439437.000000
440382.000000
441298.000000
442176.000000
443057.000000
443956.000000
444858.000000
445768.000000
446645.000000
447533.000000
448439.000000
449368.000000
450304.000000
451207.000000
452094.000000
452996.000000
453896.000000
454779.000000
455635.000000
456474.000000
457358.000000
458305.000000
459258.000000
460175.000000
461112.000000
462065.000000
462994.000000
463906.000000
464786.000000
465648.000000
466526.000000
467422.000000
468342.000000
469285.000000
470186.000000
471080.000000
471987.000000
472921.000000
473873.000000
474807.000000
475719.000000
476578.000000
477403.000000
478233.000000
479109.000000
480012.000000
480925.000000
481822.000000
482697.000000
483568.000000
484476.000000
485412.000000
486335.000000
487259.000000
488152.000000
489032.000000
489928.000000
490834.000000
491767.000000
492682.000000
493576.000000
494436.000000
495299.000000
496195.000000
497106.000000
498033.000000
498956.000000
499826.000000
500685.000000
501544.000000
502446.000000
503360.000000
504277.000000
505188.000000
506066.000000
506934.000000
507802.000000
508699.000000
509617.000000
510516.000000
511415.000000
512282.000000
513168.000000
514083.000000
515022.000000
515934.000000
516806.000000
517665.000000
518509.000000
519375.000000
520279.000000
521235.000000
522184.000000
523144.000000
524065.000000
524970.000000
525834.000000
526702.000000
527607.000000
528536.000000
529474.000000
530402.000000
531291.000000
532167.000000
533065.000000
533952.000000
534861.000000
535764.000000
536653.000000
537532.000000
538414.000000
539332.000000
540257.000000
541175.000000
542094.000000
543003.000000
543879.000000
544744.000000
545652.000000
546588.000000
547505.000000
548433.000000
549326.000000
550189.000000
551058.000000
551940.000000
552834.000000
553722.000000
554572.000000
555379.000000
556197.000000
557024.000000
557840.000000
558655.000000
559493.000000
560372.000000
561268.000000
562148.000000
563024.000000
563881.000000
564742.000000
565665.000000
566614.000000
567560.000000
568467.000000
569356.000000
570225.000000
571068.000000
571901.000000
572744.000000
573624.000000
574536.000000
575443.000000
576334.000000
577201.000000
578049.000000
578911.000000
579781.000000
580660.000000
581534.000000
582386.000000
583215.000000
584026.000000
584856.000000
585779.000000
586733.000000
587667.000000
588565.000000
589425.000000
590270.000000
591115.000000
591953.000000
592771.000000
593571.000000
594360.000000
595155.000000
595967.000000
596810.000000
597671.000000
598529.000000
599366.000000
600227.000000
601088.000000
601949.000000
602791.000000
603620.000000
604455.000000
605323.000000
606201.000000
607073.000000
607956.000000
608820.000000
609648.000000
610470.000000
611285.000000
612096.000000
612913.000000
613747.000000
614564.000000
615401.000000
616277.000000
617175.000000
618076.000000
618959.000000
619819.000000
620648.000000
621481.000000
622343.000000
623243.000000
624170.000000
625089.000000
625970.000000
626853.000000
627743.000000
628629.000000
629498.000000
630353.000000
631200.000000
632070.000000
632971.000000
633882.000000
634806.000000
635716.000000
636589.000000
637462.000000
638347.000000
639245.000000
640133.000000
641014.000000
641893.000000
642799.000000
643716.000000
644610.000000
645495.000000
646362.000000
647208.000000
648046.000000
648894.000000
649757.000000
650626.000000
651462.000000
652258.000000
653082.000000
653914.000000
654723.000000
655547.000000
656404.000000
657283.000000
658174.000000
659052.000000
659910.000000
660770.000000
661649.000000
662547.000000
663457.000000
664350.000000
665230.000000
666140.000000
667110.000000
668048.000000
668974.000000
669871.000000
670731.000000
671584.000000
672450.000000
673401.000000
674390.000000
675361.000000
676293.000000
677178.000000
678060.000000
678970.000000
679893.000000
680852.000000
681797.000000
682710.000000
683605.000000
684509.000000
685412.000000
686324.000000
687233.000000
688110.000000
688971.000000
689837.000000
690750.000000
691673.000000
692595.000000
693488.000000
694355.000000
695219.000000
696103.000000
696997.000000
697881.000000
698756.000000
699617.000000
700447.000000
701276.000000
702133.000000
703019.000000
703944.000000
704843.000000
705733.000000
706600.000000
707437.000000
708279.000000
709140.000000
710015.000000
710862.000000
711706.000000
712523.000000
713335.000000
714155.000000
715028.000000
715903.000000
716741.000000
717539.000000
718324.000000
719136.000000
719951.000000
720774.000000
721624.000000
722504.000000
723386.000000
724295.000000
725185.000000
726045.000000
726902.000000
727789.000000
728716.000000
729652.000000
730610.000000
731548.000000
732450.000000
733359.000000
734297.000000
735327.000000
736364.000000
737379.000000
738390.000000
739362.000000
740304.000000
741221.000000
742113.000000
742997.000000
743886.000000
744814.000000
745808.000000
746832.000000
747806.000000
748737.000000
749623.000000
750471.000000
751295.000000
752132.000000
753077.000000
754059.000000
755038.000000
755980.000000
756902.000000
757770.000000
758635.000000
759532.000000
760454.000000
761399.000000
762308.000000
763167.000000
763985.000000
764801.000000
765615.000000
766432.000000
767274.000000
768161.000000
769066.000000
769967.000000
770870.000000
771770.000000
772638.000000
773483.000000
774342.000000
775240.000000
776217.000000
777188.000000
778130.000000
779062.000000
779942.000000
780811.000000
781677.000000
782575.000000
783492.000000
784401.000000
785308.000000
786198.000000
787055.000000
787902.000000
788772.000000
789680.000000
790609.000000
791543.000000
792470.000000
793380.000000
794278.000000
795167.000000
796083.000000
797029.000000
797958.000000
798865.000000
799778.000000
800670.000000
801533.000000
802400.000000
803300.000000
804255.000000
805210.000000
806161.000000
807110.000000
808037.000000
808916.000000
809779.000000
810666.000000
811605.000000
812530.000000
813449.000000
814377.000000
815278.000000
816141.000000
816996.000000
817852.000000
818766.000000
819717.000000
820655.000000
821569.000000
822471.000000
823368.000000
824240.000000
825112.000000
826005.000000
826948.000000
827887.000000
828824.000000
829728.000000
830612.000000
831476.000000
832355.000000
833298.000000
834268.000000
835220.000000
836144.000000
837023.000000
837870.000000
838704.000000
839508.000000
840367.000000
841277.000000
842207.000000
843121.000000
844028.000000
844918.000000
845839.000000
846818.000000
847812.000000
848801.000000
849776.000000
850707.000000
851618.000000
852532.000000
853439.000000
854302.000000
855166.000000
856037.000000
856959.000000
857930.000000
858904.000000
859844.000000
860773.000000
861664.000000
862526.000000
863385.000000
864273.000000
865206.000000
866147.000000
867075.000000
867993.000000
868874.000000
869727.000000
870576.000000
871439.000000
872387.000000
873419.000000
874427.000000
875408.000000
876391.000000
877312.000000
878199.000000
879080.000000
879982.000000
880889.000000
881786.000000
882689.000000
883606.000000
884488.000000
885364.000000
886270.000000
887182.000000
888072.000000
888973.000000
889878.000000
890772.000000
891653.000000
892534.000000
893432.000000
894334.000000
895249.000000
896167.000000
897102.000000
898013.000000
898899.000000
899789.000000
900704.000000
901644.000000
902559.000000
903471.000000
904369.000000
905226.000000
906058.000000
906855.000000
907679.000000
908557.000000
909425.000000
910291.000000
911182.000000
912117.000000
913050.000000
913965.000000
914861.000000
915729.000000
916588.000000
917446.000000
918365.000000
919371.000000
920346.000000
921296.000000
922239.000000
923168.000000
