ECG (ms)
170.000000
943.000000
1682.000000
2413.000000
3122.000000
3829.000000
4537.000000
5226.000000
5934.000000
6640.000000
7367.000000
8091.000000
8801.000000
9533.000000
10299.000000
11056.000000
11800.000000
12515.000000
13215.000000
13906.000000
14566.000000
15215.000000
15879.000000
16568.000000
17230.000000
17906.000000
18613.000000
19334.000000
20040.000000
20705.000000
21334.000000
21979.000000
22618.000000
23230.000000
23887.000000
24644.000000
25441.000000
26209.000000
26972.000000
27728.000000
28479.000000
29235.000000
29990.000000
30745.000000
31516.000000
32303.000000
33089.000000
33845.000000
34619.000000
35410.000000
36222.000000
37019.000000
37777.000000
38561.000000
39322.000000
40052.000000
40779.000000
41514.000000
42253.000000
43009.000000
43751.000000
44506.000000
45257.000000
46030.000000
46792.000000
47541.000000
48297.000000
49036.000000
49758.000000
50490.000000
51239.000000
51954.000000
52653.000000
53343.000000
54024.000000
54714.000000
55437.000000
56163.000000
56869.000000
57572.000000
58255.000000
58963.000000
59658.000000
60307.000000
60949.000000
61605.000000
62285.000000
62973.000000
63695.000000
64394.000000
65063.000000
65757.000000
66454.000000
67138.000000
67822.000000
68486.000000
69184.000000
69849.000000
70475.000000
71073.000000
71659.000000
72252.000000
72864.000000
73564.000000
74348.000000
75145.000000
75875.000000
76596.000000
77346.000000
78137.000000
78934.000000
79727.000000
80557.000000
81408.000000
82207.000000
82922.000000
83641.000000
84400.000000
85197.000000
85920.000000
86660.000000
87439.000000
88206.000000
88965.000000
89713.000000
90491.000000
91257.000000
92026.000000
92791.000000
93548.000000
94308.000000
95072.000000
95821.000000
96557.000000
97305.000000
98062.000000
98809.000000
99531.000000
100250.000000
101019.000000
101733.000000
102440.000000
103115.000000
103792.000000
104491.000000
105169.000000
105891.000000
106645.000000
107378.000000
108116.000000
108862.000000
109639.000000
110421.000000
111170.000000
111930.000000
112710.000000
113492.000000
114254.000000
114971.000000
115712.000000
116474.000000
117223.000000
117957.000000
118691.000000
119488.000000
120239.000000
120943.000000
121625.000000
122293.000000
122937.000000
123566.000000
124187.000000
124821.000000
125481.000000
126180.000000
126841.000000
127497.000000
128149.000000
128802.000000
129450.000000
130094.000000
130749.000000
131408.000000
132047.000000
132680.000000
133331.000000
134034.000000
134742.000000
135410.000000
136078.000000
136767.000000
137494.000000
138199.000000
138921.000000
139640.000000
140359.000000
141014.000000
141636.000000
142259.000000
142892.000000
143502.000000
144173.000000
145003.000000
145851.000000
146698.000000
147454.000000
148151.000000
148844.000000
149564.000000
150318.000000
151076.000000
151755.000000
152459.000000
153233.000000
154008.000000
154751.000000
155454.000000
156125.000000
156747.000000
157559.000000
158344.000000
159114.000000
159870.000000
160652.000000
161400.000000
162112.000000
162789.000000
163416.000000
164099.000000
164820.000000
165563.000000
166335.000000
167107.000000
167894.000000
168691.000000
169483.000000
170263.000000
171030.000000
171755.000000
172480.000000
173241.000000
174033.000000
174818.000000
175606.000000
176392.000000
177163.000000
177905.000000
178659.000000
179420.000000
180188.000000
180971.000000
181761.000000
182544.000000
183330.000000
184094.000000
184818.000000
185545.000000
186290.000000
187025.000000
187746.000000
188460.000000
189186.000000
189928.000000
190692.000000
191403.000000
192091.000000
192732.000000
193408.000000
194098.000000
194760.000000
195411.000000
196052.000000
196719.000000
197387.000000
198038.000000
198677.000000
199329.000000
200020.000000
200728.000000
201403.000000
202110.000000
202859.000000
203597.000000
204341.000000
205062.000000
205779.000000
206522.000000
207266.000000
207984.000000
208695.000000
209426.000000
210187.000000
210938.000000
211641.000000
212374.000000
213111.000000
213796.000000
214439.000000
215078.000000
215743.000000
216452.000000
217157.000000
217845.000000
218549.000000
219260.000000
219966.000000
220651.000000
221365.000000
222112.000000
222849.000000
223568.000000
224269.000000
224972.000000
225643.000000
226333.000000
227081.000000
227821.000000
228485.000000
229120.000000
229724.000000
230310.000000
230885.000000
231475.000000
232141.000000
232835.000000
233507.000000
234188.000000
234909.000000
235640.000000
236357.000000
237067.000000
237806.000000
238567.000000
239316.000000
240014.000000
240773.000000
241523.000000
242280.000000
243047.000000
243792.000000
244540.000000
245296.000000
246067.000000
246839.000000
247592.000000
248325.000000
249066.000000
249812.000000
250578.000000
251331.000000
252088.000000
252849.000000
253617.000000
254380.000000
255137.000000
255902.000000
256664.000000
257439.000000
258169.000000
258913.000000
259661.000000
260433.000000
261198.000000
261979.000000
262753.000000
263516.000000
264259.000000
265017.000000
265763.000000
266506.000000
267218.000000
267951.000000
268698.000000
269465.000000
270202.000000
270955.000000
271734.000000
272500.000000
273245.000000
274001.000000
274783.000000
275549.000000
276290.000000
277062.000000
277803.000000
278563.000000
279309.000000
280065.000000
280810.000000
281564.000000
282285.000000
282968.000000
283607.000000
284274.000000
285029.000000
285789.000000
286550.000000
287263.000000
287919.000000
288551.000000
289157.000000
289781.000000
290427.000000
291118.000000
291859.000000
292637.000000
293368.000000
294093.000000
294841.000000
295565.000000
296275.000000
296949.000000
297640.000000
298350.000000
299069.000000
299750.000000
300485.000000
301282.000000
302067.000000
302845.000000
303621.000000
304357.000000
305041.000000
305751.000000
306509.000000
307283.000000
308054.000000
308798.000000
309570.000000
310374.000000
311158.000000
311901.000000
312635.000000
313409.000000
314190.000000
314944.000000
315697.000000
316493.000000
317286.000000
318004.000000
318681.000000
319370.000000
320206.000000
320946.000000
321618.000000
322289.000000
322957.000000
323605.000000
324242.000000
324908.000000
325600.000000
326275.000000
326970.000000
327700.000000
328448.000000
329165.000000
329862.000000
330596.000000
331340.000000
332096.000000
332770.000000
333406.000000
334021.000000
334629.000000
335277.000000
336232.000000
337072.000000
337874.000000
338696.000000
339514.000000
340329.000000
341119.000000
341913.000000
342697.000000
343475.000000
344259.000000
345070.000000
345889.000000
346713.000000
347528.000000
348334.000000
349129.000000
349916.000000
350670.000000
351431.000000
352215.000000
353016.000000
353796.000000
354580.000000
355363.000000
356132.000000
356892.000000
357624.000000
358330.000000
359018.000000
359740.000000
360426.000000
361106.000000
361766.000000
362437.000000
363156.000000
363911.000000
364612.000000
365334.000000
366074.000000
366779.000000
367425.000000
368056.000000
368697.000000
369339.000000
370009.000000
370684.000000
371432.000000
372209.000000
373017.000000
373765.000000
374524.000000
375272.000000
376013.000000
376740.000000
377460.000000
378177.000000
378904.000000
379623.000000
380324.000000
381039.000000
381775.000000
382531.000000
383235.000000
383932.000000
384652.000000
385364.000000
386037.000000
386694.000000
387363.000000
388043.000000
388677.000000
389294.000000
389909.000000
390544.000000
391267.000000
392068.000000
392830.000000
393668.000000
394444.000000
395127.000000
395768.000000
396389.000000
397001.000000
397741.000000
398458.000000
399266.000000
400100.000000
400930.000000
401654.000000
402345.000000
403052.000000
403755.000000
404444.000000
405157.000000
405937.000000
406702.000000
407424.000000
408210.000000
408987.000000
409777.000000
410548.000000
411297.000000
412069.000000
412857.000000
413591.000000
414317.000000
415032.000000
415721.000000
416397.000000
417094.000000
417852.000000
418651.000000
419430.000000
420275.000000
421100.000000
421904.000000
422587.000000
423241.000000
423921.000000
424703.000000
425539.000000
426328.000000
427054.000000
427833.000000
428631.000000
429425.000000
430173.000000
430894.000000
431566.000000
432205.000000
432825.000000
433458.000000
434154.000000
434939.000000
435723.000000
436519.000000
437319.000000
438118.000000
438868.000000
439634.000000
440399.000000
441155.000000
441893.000000
442651.000000
443436.000000
444215.000000
444968.000000
445722.000000
446469.000000
447209.000000
447950.000000
448702.000000
449439.000000
450150.000000
450900.000000
451672.000000
452440.000000
453202.000000
453981.000000
454765.000000
455515.000000
456267.000000
457024.000000
457752.000000
458470.000000
459207.000000
459951.000000
460669.000000
461385.000000
462122.000000
462901.000000
463631.000000
464333.000000
465024.000000
465742.000000
466420.000000
467128.000000
467897.000000
468698.000000
469460.000000
470172.000000
470887.000000
471633.000000
472339.000000
473074.000000
473839.000000
474628.000000
475383.000000
476136.000000
476909.000000
477703.000000
478483.000000
479272.000000
480109.000000
480882.000000
481631.000000
482402.000000
483176.000000
483970.000000
484722.000000
485472.000000
486239.000000
487025.000000
487758.000000
488528.000000
489299.000000
490089.000000
490845.000000
491600.000000
492358.000000
493127.000000
493874.000000
494633.000000
495407.000000
496164.000000
496898.000000
497665.000000
498465.000000
499279.000000
500068.000000
500845.000000
501651.000000
502415.000000
503172.000000
503949.000000
504714.000000
505460.000000
506237.000000
507029.000000
507823.000000
508621.000000
509417.000000
510269.000000
511100.000000
511882.000000
512680.000000
513449.000000
514211.000000
514962.000000
515712.000000
516472.000000
517235.000000
517999.000000
518784.000000
519641.000000
520519.000000
521334.000000
522086.000000
522841.000000
523590.000000
524260.000000
524893.000000
525538.000000
526287.000000
527020.000000
527815.000000
528645.000000
529486.000000
530273.000000
531015.000000
531764.000000
532527.000000
533282.000000
534064.000000
534815.000000
535607.000000
536434.000000
537230.000000
538000.000000
538764.000000
539547.000000
540348.000000
541109.000000
541878.000000
542653.000000
543440.000000
544191.000000
544956.000000
545756.000000
546549.000000
547282.000000
548048.000000
548830.000000
549570.000000
550274.000000
550999.000000
551755.000000
552515.000000
553261.000000
554065.000000
554883.000000
555646.000000
556433.000000
557226.000000
558001.000000
558750.000000
559525.000000
560308.000000
561102.000000
561843.000000
562590.000000
563382.000000
564168.000000
564924.000000
565728.000000
566555.000000
567317.000000
568038.000000
568774.000000
569504.000000
570212.000000
570894.000000
571616.000000
572370.000000
573124.000000
573851.000000
574624.000000
575418.000000
576189.000000
576917.000000
577666.000000
578418.000000
579143.000000
579836.000000
580576.000000
581376.000000
582173.000000
582946.000000
583754.000000
584536.000000
585279.000000
586038.000000
586832.000000
587645.000000
588420.000000
589213.000000
590025.000000
590813.000000
591571.000000
592338.000000
593099.000000
593858.000000
594618.000000
595384.000000
596158.000000
596893.000000
597666.000000
598457.000000
599253.000000
600047.000000
600837.000000
601645.000000
602451.000000
603229.000000
604021.000000
604809.000000
605590.000000
606368.000000
607174.000000
607981.000000
608763.000000
609541.000000
610344.000000
611097.000000
611852.000000
612633.000000
613428.000000
614170.000000
614932.000000
615715.000000
616481.000000
617237.000000
618026.000000
618801.000000
619565.000000
620363.000000
621159.000000
621919.000000
622652.000000
623396.000000
624154.000000
624905.000000
625628.000000
626369.000000
627117.000000
627863.000000
628602.000000
629356.000000
630113.000000
630863.000000
631586.000000
632340.000000
633092.000000
633857.000000
634605.000000
635369.000000
636121.000000
636864.000000
637585.000000
638279.000000
638949.000000
639609.000000
640285.000000
641067.000000
641786.000000
642496.000000
643208.000000
643942.000000
644638.000000
645383.000000
646177.000000
646943.000000
647655.000000
648351.000000
649029.000000
649716.000000
650418.000000
651124.000000
651856.000000
652562.000000
653209.000000
653841.000000
654447.000000
655049.000000
655746.000000
656469.000000
657154.000000
657821.000000
658488.000000
659173.000000
659881.000000
660570.000000
661312.000000
662074.000000
662790.000000
663505.000000
664288.000000
665106.000000
665849.000000
666620.000000
667412.000000
668196.000000
668946.000000
669736.000000
670579.000000
671400.000000
672160.000000
672948.000000
673767.000000
674565.000000
675328.000000
676126.000000
676903.000000
677682.000000
678435.000000
679213.000000
680010.000000
680809.000000
681605.000000
682397.000000
683226.000000
684026.000000
684808.000000
685576.000000
686348.000000
687111.000000
687864.000000
688637.000000
689451.000000
690272.000000
691042.000000
691807.000000
692574.000000
693322.000000
694079.000000
694846.000000
695624.000000
696381.000000
697105.000000
697874.000000
698661.000000
699410.000000
700134.000000
700867.000000
701618.000000
702399.000000
703161.000000
703911.000000
704694.000000
705491.000000
706279.000000
707032.000000
707810.000000
708632.000000
709443.000000
710242.000000
711032.000000
711819.000000
712618.000000
713407.000000
714177.000000
714957.000000
715745.000000
716515.000000
717247.000000
717963.000000
718711.000000
719476.000000
720292.000000
721074.000000
721839.000000
722576.000000
723324.000000
724055.000000
724810.000000
725596.000000
726395.000000
727171.000000
727958.000000
728765.000000
729581.000000
730386.000000
731174.000000
731971.000000
732787.000000
733622.000000
734415.000000
735210.000000
736009.000000
736827.000000
737628.000000
738427.000000
739236.000000
739984.000000
740715.000000
741460.000000
742226.000000
742957.000000
743680.000000
744404.000000
745175.000000
745924.000000
746655.000000
747415.000000
748194.000000
748933.000000
749678.000000
750477.000000
751302.000000
752037.000000
752802.000000
753669.000000
754536.000000
755340.000000
756105.000000
756948.000000
757773.000000
758514.000000
759255.000000
760077.000000
760932.000000
761724.000000
762567.000000
763420.000000
764232.000000
765021.000000
765837.000000
766667.000000
767472.000000
768249.000000
769065.000000
769907.000000
770728.000000
771511.000000
772317.000000
773126.000000
773946.000000
774709.000000
775494.000000
776324.000000
777095.000000
777826.000000
778601.000000
779393.000000
780158.000000
780909.000000
781722.000000
782531.000000
783301.000000
784003.000000
784750.000000
785538.000000
786279.000000
787000.000000
787754.000000
788546.000000
789345.000000
790143.000000
790933.000000
791737.000000
792501.000000
793231.000000
794031.000000
794814.000000
795574.000000
796322.000000
797137.000000
797966.000000
798781.000000
799534.000000
800293.000000
801110.000000
801927.000000
802685.000000
803455.000000
804251.000000
805075.000000
805888.000000
806666.000000
807452.000000
808256.000000
809041.000000
809779.000000
810540.000000
811345.000000
812145.000000
812911.000000
813660.000000
814444.000000
815264.000000
816058.000000
816799.000000
817561.000000
818369.000000
819169.000000
819896.000000
820685.000000
821554.000000
822382.000000
823145.000000
823915.000000
824738.000000
825558.000000
826308.000000
827053.000000
827814.000000
828626.000000
829395.000000
830128.000000
830938.000000
831761.000000
832533.000000
833338.000000
834185.000000
834967.000000
835769.000000
836613.000000
837436.000000
838206.000000
838971.000000
839752.000000
840541.000000
841301.000000
842150.000000
842992.000000
843825.000000
844620.000000
845466.000000
846295.000000
847052.000000
847787.000000
848572.000000
849411.000000
850231.000000
851013.000000
851814.000000
852651.000000
853482.000000
854238.000000
854987.000000
855779.000000
856582.000000
857336.000000
858091.000000
858905.000000
859743.000000
860543.000000
861335.000000
862166.000000
863016.000000
863807.000000
864571.000000
865354.000000
866153.000000
866916.000000
867748.000000
868615.000000
869432.000000
870227.000000
871025.000000
871835.000000
872554.000000
873263.000000
873972.000000
874689.000000
875365.000000
876060.000000
876891.000000
877747.000000
878531.000000
879330.000000
880149.000000
880962.000000
881653.000000
882304.000000
882917.000000
883512.000000
884160.000000
885035.000000
885845.000000
886579.000000
887273.000000
887999.000000
888805.000000
889623.000000
890429.000000
891234.000000
892016.000000
892794.000000
893527.000000
894272.000000
894981.000000
895654.000000
896292.000000
896907.000000
897530.000000
898209.000000
898932.000000
899666.000000
900398.000000
901154.000000
901902.000000
902649.000000
903412.000000
904163.000000
904935.000000
905706.000000
906492.000000
907291.000000
908062.000000
908830.000000
909578.000000
910332.000000
911059.000000
911869.000000
912678.000000
913427.000000
914181.000000
914933.000000
915690.000000
916458.000000
917229.000000
918008.000000
918737.000000
919471.000000
920241.000000
921036.000000
921810.000000
922594.000000
923381.000000
924159.000000
924943.000000
925735.000000
926578.000000
927382.000000
928184.000000
929000.000000
929817.000000
930623.000000
931440.000000
932258.000000
933077.000000
933879.000000
934683.000000
935513.000000
936330.000000
937138.000000
937934.000000
938740.000000
939549.000000
940340.000000
941124.000000
941925.000000
942728.000000
943527.000000
944302.000000
945079.000000
945872.000000
946676.000000
947466.000000
948291.000000
949119.000000
949939.000000
950738.000000
951565.000000
952378.000000
953165.000000
953927.000000
954719.000000
955532.000000
956302.000000
957084.000000
957903.000000
958703.000000
959503.000000
960304.000000
961132.000000
961944.000000
962691.000000
963463.000000
964247.000000
965056.000000
965819.000000
966603.000000
967410.000000
968224.000000
969022.000000
969823.000000
970617.000000
971416.000000
972183.000000
972949.000000
973733.000000
974540.000000
975341.000000
976125.000000
976937.000000
977748.000000
978551.000000
979352.000000
980169.000000
980995.000000
981798.000000
982579.000000
983360.000000
984181.000000
984946.000000
985679.000000
986383.000000
987132.000000
987818.000000
988489.000000
989180.000000
989881.000000
990567.000000
991319.000000
992153.000000
992940.000000
993686.000000
994439.000000
995220.000000
995947.000000
996618.000000
997303.000000
998064.000000
998893.000000
999692.000000
1000432.000000
1001188.000000
1001893.000000
1002582.000000
1003240.000000
1003897.000000
1004591.000000
1005303.000000
1006020.000000
1006769.000000
1007542.000000
1008321.000000
1009051.000000
1009792.000000
1010564.000000
1011359.000000
1012111.000000
1012868.000000
1013649.000000
1014491.000000
1015301.000000
1016053.000000
1016853.000000
1017669.000000
1018464.000000
1019232.000000
1020058.000000
1020884.000000
1021688.000000
1022424.000000
1023188.000000
1023986.000000
1024769.000000
1025532.000000
1026304.000000
1027120.000000
1027901.000000
1028661.000000
1029456.000000
1030266.000000
1031013.000000
1031762.000000
1032582.000000
1033441.000000
1034259.000000
1035030.000000
1035835.000000
1036646.000000
1037431.000000
1038193.000000
1038976.000000
1039796.000000
1040576.000000
1041361.000000
1042205.000000
1043038.000000
1043821.000000
1044607.000000
1045437.000000
1046237.000000
1047000.000000
1047806.000000
1048649.000000
1049490.000000
1050252.000000
1051070.000000
1051926.000000
1052741.000000
1053508.000000
1054321.000000
1055159.000000
1056003.000000
1056791.000000
1057622.000000
1058476.000000
1059348.000000
1060172.000000
1060979.000000
1061813.000000
1062601.000000
1063349.000000
1064126.000000
1064918.000000
1065686.000000
1066421.000000
1067210.000000
1068074.000000
1068912.000000
1069675.000000
1070440.000000
1071233.000000
1072039.000000
1072782.000000
1073546.000000
1074371.000000
1075178.000000
1075963.000000
1076807.000000
1077648.000000
1078407.000000
1079116.000000
1079780.000000
1080481.000000
1081302.000000
1082141.000000
1082912.000000
1083755.000000
1084665.000000
1085527.000000
1086325.000000
1087165.000000
1088032.000000
1088844.000000
1089590.000000
1090398.000000
1091234.000000
1092076.000000
1092866.000000
1093675.000000
1094515.000000
1095326.000000
1096075.000000
1096890.000000
1097708.000000
1098483.000000
1099237.000000
1099994.000000
1100777.000000
1101591.000000
1102354.000000
1103112.000000
1103924.000000
1104729.000000
1105498.000000
1106326.000000
1107191.000000
1108042.000000
1108835.000000
1109667.000000
1110549.000000
1111373.000000
1112134.000000
1112923.000000
1113730.000000
1114492.000000
1115223.000000
1116026.000000
1116885.000000
1117683.000000
1118427.000000
1119204.000000
1120005.000000
1120746.000000
1121475.000000
1122244.000000
1123050.000000
1123804.000000
1124557.000000
1125362.000000
1126126.000000
1126828.000000
1127552.000000
1128299.000000
1129062.000000
1129774.000000
1130517.000000
1131312.000000
1132131.000000
1132896.000000
1133640.000000
1134468.000000
1135253.000000
1136023.000000
1136747.000000
1137499.000000
1138264.000000
1139047.000000
1139761.000000
1140484.000000
1141260.000000
1142077.000000
1142820.000000
1143559.000000
1144238.000000
1144886.000000
1145512.000000
1146134.000000
1146805.000000
1147511.000000
1148314.000000
1149175.000000
1149990.000000
1150763.000000
1151549.000000
1152322.000000
1153028.000000
1153755.000000
1154547.000000
1155330.000000
1156076.000000
1156824.000000
1157634.000000
1158507.000000
1159327.000000
1160129.000000
1160974.000000
1161802.000000
1162571.000000
1163349.000000
1164161.000000
1164964.000000
1165733.000000
1166531.000000
1167354.000000
1168143.000000
1168903.000000
1169738.000000
1170601.000000
1171394.000000
1172172.000000
1172983.000000
1173847.000000
1174653.000000
1175444.000000
1176271.000000
1177141.000000
1177949.000000
1178743.000000
1179577.000000
1180360.000000
1181099.000000
1181858.000000
1182677.000000
1183511.000000
1184300.000000
1185132.000000
1185981.000000
1186835.000000
1187628.000000
1188414.000000
1189173.000000
1189927.000000
1190704.000000
1191497.000000
1192319.000000
1193102.000000
1193898.000000
1194708.000000
1195533.000000
1196332.000000
1197153.000000
1197990.000000
1198784.000000
1199553.000000
1200338.000000
1201107.000000
1201869.000000
1202660.000000
1203467.000000
1204307.000000
1205115.000000
1205950.000000
1206803.000000
1207646.000000
1208454.000000
1209257.000000
1210055.000000
1210865.000000
1211625.000000
