ECG (ms)
503.000000
1158.000000
1814.000000
2482.000000
3149.000000
3816.000000
4483.000000
5148.000000
5815.000000
6469.000000
7119.000000
7777.000000
8439.000000
9102.000000
9777.000000
10461.000000
11151.000000
11850.000000
12548.000000
13248.000000
13940.000000
14631.000000
15323.000000
16015.000000
16717.000000
17438.000000
18197.000000
18953.000000
19696.000000
20433.000000
21174.000000
21910.000000
22645.000000
23383.000000
24120.000000
24855.000000
25585.000000
26319.000000
27048.000000
27776.000000
28504.000000
29234.000000
29966.000000
30696.000000
31419.000000
32134.000000
32844.000000
33552.000000
34249.000000
34942.000000
35631.000000
36317.000000
37006.000000
37699.000000
38398.000000
39103.000000
39818.000000
40532.000000
41237.000000
41937.000000
42632.000000
43314.000000
43991.000000
44668.000000
45348.000000
46034.000000
46727.000000
47421.000000
48106.000000
48786.000000
49470.000000
50156.000000
50845.000000
51535.000000
52204.000000
52873.000000
53544.000000
54219.000000
54890.000000
55556.000000
56226.000000
56903.000000
57580.000000
58264.000000
58947.000000
59637.000000
60330.000000
61029.000000
61735.000000
62436.000000
63130.000000
63825.000000
64528.000000
65234.000000
65935.000000
66644.000000
67361.000000
68081.000000
68796.000000
69507.000000
70222.000000
70932.000000
71642.000000
72351.000000
73059.000000
73768.000000
74480.000000
75198.000000
75914.000000
76630.000000
77356.000000
78087.000000
78816.000000
79548.000000
80269.000000
80984.000000
81701.000000
82423.000000
83147.000000
83863.000000
84570.000000
85278.000000
85980.000000
86682.000000
87385.000000
88086.000000
88789.000000
89499.000000
90214.000000
90937.000000
91663.000000
92381.000000
93091.000000
93804.000000
94515.000000
95221.000000
95923.000000
96607.000000
97284.000000
97968.000000
98654.000000
99350.000000
100057.000000
100766.000000
101479.000000
102192.000000
102912.000000
103646.000000
104390.000000
105139.000000
105877.000000
106604.000000
107334.000000
108066.000000
108805.000000
109539.000000
110275.000000
111014.000000
111742.000000
112469.000000
113203.000000
113947.000000
114695.000000
115437.000000
116167.000000
116898.000000
117627.000000
118358.000000
119079.000000
119796.000000
120514.000000
121242.000000
121964.000000
122676.000000
123388.000000
124099.000000
124816.000000
125536.000000
126247.000000
126961.000000
127669.000000
128374.000000
129081.000000
129781.000000
130490.000000
131207.000000
131933.000000
132667.000000
133404.000000
134147.000000
134896.000000
135640.000000
136375.000000
137117.000000
137864.000000
138617.000000
139361.000000
140091.000000
140819.000000
141543.000000
142270.000000
142992.000000
143718.000000
144449.000000
145189.000000
145922.000000
146654.000000
147393.000000
148132.000000
148874.000000
149604.000000
150327.000000
151051.000000
151771.000000
152495.000000
153220.000000
153940.000000
154666.000000
155402.000000
156149.000000
156904.000000
157647.000000
158387.000000
159127.000000
159864.000000
160597.000000
161324.000000
162052.000000
162788.000000
163521.000000
164238.000000
164934.000000
165628.000000
166319.000000
167003.000000
167693.000000
168404.000000
169132.000000
169872.000000
170610.000000
171350.000000
172093.000000
172836.000000
173572.000000
174295.000000
175014.000000
175731.000000
176453.000000
177179.000000
177921.000000
178681.000000
179446.000000
180212.000000
180958.000000
181689.000000
182415.000000
183141.000000
183866.000000
184588.000000
185313.000000
186052.000000
186799.000000
187554.000000
188316.000000
189065.000000
189814.000000
190560.000000
191307.000000
192047.000000
192774.000000
193506.000000
194239.000000
194979.000000
195716.000000
196450.000000
197184.000000
197920.000000
198650.000000
199374.000000
200105.000000
200844.000000
201593.000000
202342.000000
203096.000000
203849.000000
204594.000000
205338.000000
206075.000000
206814.000000
207555.000000
208303.000000
209051.000000
209781.000000
210509.000000
211233.000000
211957.000000
212674.000000
213380.000000
214087.000000
214789.000000
215489.000000
216172.000000
216857.000000
217557.000000
218270.000000
218981.000000
219698.000000
220423.000000
221151.000000
221875.000000
222597.000000
223322.000000
224050.000000
224777.000000
225503.000000
226221.000000
226942.000000
227663.000000
228385.000000
229104.000000
229820.000000
230544.000000
231279.000000
232015.000000
232757.000000
233490.000000
234229.000000
234965.000000
235701.000000
236434.000000
237166.000000
237900.000000
238644.000000
239385.000000
240117.000000
240846.000000
241582.000000
242318.000000
243058.000000
243798.000000
244533.000000
245274.000000
246017.000000
246762.000000
247501.000000
248245.000000
248994.000000
249747.000000
250497.000000
251245.000000
251990.000000
252741.000000
253483.000000
254218.000000
254956.000000
255698.000000
256453.000000
257208.000000
257957.000000
258711.000000
259469.000000
260224.000000
260966.000000
261701.000000
262447.000000
263192.000000
263936.000000
264669.000000
265388.000000
266095.000000
266802.000000
267515.000000
268233.000000
268957.000000
269695.000000
270441.000000
271187.000000
271929.000000
272670.000000
273412.000000
274154.000000
274898.000000
275638.000000
276375.000000
277121.000000
277874.000000
278643.000000
279405.000000
280160.000000
280920.000000
281683.000000
282448.000000
283211.000000
283967.000000
284732.000000
285493.000000
286253.000000
286998.000000
287740.000000
288487.000000
289242.000000
290008.000000
290779.000000
291559.000000
292350.000000
293156.000000
293955.000000
294735.000000
295511.000000
296280.000000
297050.000000
297806.000000
298547.000000
299290.000000
300042.000000
300809.000000
301572.000000
302325.000000
303091.000000
303849.000000
304609.000000
305366.000000
306123.000000
306886.000000
307642.000000
308398.000000
309154.000000
309900.000000
310644.000000
311400.000000
312155.000000
312902.000000
313655.000000
314417.000000
315175.000000
315924.000000
316665.000000
317408.000000
318147.000000
318887.000000
319616.000000
320341.000000
321073.000000
321807.000000
322532.000000
323233.000000
323925.000000
324631.000000
325345.000000
326071.000000
326803.000000
327530.000000
328277.000000
329024.000000
329772.000000
330518.000000
331267.000000
332017.000000
332770.000000
333514.000000
334251.000000
335004.000000
335750.000000
336505.000000
337245.000000
337981.000000
338730.000000
339489.000000
340266.000000
341041.000000
341808.000000
342571.000000
343324.000000
344068.000000
344800.000000
345524.000000
346255.000000
346991.000000
347736.000000
348481.000000
349230.000000
349981.000000
350727.000000
351472.000000
352200.000000
352927.000000
353647.000000
354368.000000
355085.000000
355794.000000
356512.000000
357233.000000
357958.000000
358682.000000
359402.000000
360122.000000
360844.000000
361558.000000
362252.000000
362933.000000
363619.000000
364317.000000
365019.000000
365734.000000
366440.000000
367148.000000
367863.000000
368577.000000
369295.000000
370012.000000
370733.000000
371459.000000
372182.000000
372904.000000
373619.000000
374340.000000
375068.000000
375810.000000
376559.000000
377304.000000
378052.000000
378805.000000
379560.000000
380306.000000
381048.000000
381785.000000
382529.000000
383282.000000
384030.000000
384775.000000
385522.000000
386268.000000
387016.000000
387766.000000
388505.000000
389243.000000
389978.000000
390721.000000
391462.000000
392204.000000
392944.000000
393688.000000
394439.000000
395191.000000
395936.000000
396685.000000
397434.000000
398189.000000
398939.000000
399675.000000
400420.000000
401162.000000
401904.000000
402645.000000
403383.000000
404121.000000
404858.000000
405600.000000
406342.000000
407080.000000
407828.000000
408585.000000
409346.000000
410109.000000
410866.000000
411622.000000
412377.000000
413129.000000
413869.000000
414612.000000
415350.000000
416093.000000
416841.000000
417583.000000
418327.000000
419071.000000
419828.000000
420591.000000
421347.000000
422096.000000
422852.000000
423614.000000
424380.000000
425139.000000
425895.000000
426650.000000
427406.000000
428161.000000
428906.000000
429646.000000
430396.000000
431139.000000
431889.000000
432632.000000
433367.000000
434103.000000
434840.000000
435582.000000
436328.000000
437069.000000
437811.000000
438553.000000
439289.000000
440011.000000
440727.000000
441443.000000
442164.000000
442892.000000
443621.000000
444351.000000
445101.000000
445857.000000
446629.000000
447395.000000
448148.000000
448911.000000
449672.000000
450429.000000
451172.000000
451888.000000
452604.000000
453326.000000
454058.000000
454789.000000
455533.000000
456278.000000
457029.000000
457776.000000
458528.000000
459281.000000
460049.000000
460821.000000
461579.000000
462339.000000
463098.000000
463864.000000
464631.000000
465388.000000
466156.000000
466935.000000
467728.000000
468523.000000
469311.000000
470098.000000
470884.000000
471659.000000
472422.000000
473177.000000
473931.000000
474691.000000
475462.000000
476236.000000
477008.000000
477784.000000
478568.000000
479347.000000
480113.000000
480869.000000
481624.000000
482391.000000
483166.000000
483927.000000
484684.000000
485438.000000
486196.000000
486959.000000
487719.000000
488478.000000
489236.000000
489994.000000
490742.000000
491494.000000
492247.000000
492999.000000
493758.000000
494507.000000
495254.000000
496006.000000
496773.000000
497549.000000
498315.000000
499069.000000
499823.000000
500575.000000
501323.000000
502067.000000
502808.000000
503551.000000
504289.000000
505033.000000
505771.000000
506505.000000
507242.000000
507983.000000
508730.000000
509474.000000
510214.000000
510948.000000
511682.000000
512411.000000
513143.000000
513874.000000
514608.000000
515351.000000
516098.000000
516847.000000
517584.000000
518326.000000
519071.000000
519819.000000
520565.000000
521304.000000
522037.000000
522785.000000
523538.000000
524296.000000
525048.000000
525787.000000
526527.000000
527264.000000
528001.000000
528740.000000
529479.000000
530229.000000
530995.000000
531761.000000
532528.000000
533283.000000
534036.000000
534781.000000
535524.000000
536262.000000
536987.000000
537723.000000
538448.000000
539154.000000
539856.000000
540573.000000
541299.000000
542029.000000
542750.000000
543471.000000
544189.000000
544894.000000
545605.000000
546330.000000
547053.000000
547775.000000
548506.000000
549252.000000
550000.000000
550739.000000
551481.000000
552232.000000
552990.000000
553749.000000
554504.000000
555267.000000
556049.000000
556834.000000
557602.000000
558366.000000
559140.000000
559912.000000
560678.000000
561433.000000
562191.000000
562952.000000
563717.000000
564479.000000
565234.000000
565997.000000
566776.000000
567578.000000
568385.000000
569176.000000
569967.000000
570757.000000
571530.000000
572284.000000
573038.000000
573784.000000
574530.000000
575270.000000
576008.000000
576746.000000
577482.000000
578216.000000
578936.000000
579637.000000
580347.000000
581052.000000
581752.000000
582461.000000
583179.000000
583906.000000
584642.000000
585383.000000
586127.000000
586883.000000
587641.000000
588395.000000
589152.000000
589922.000000
590692.000000
591458.000000
592214.000000
592963.000000
593718.000000
594488.000000
595262.000000
596033.000000
596806.000000
597581.000000
598376.000000
599185.000000
600009.000000
600811.000000
601596.000000
602379.000000
603170.000000
603962.000000
