ECG (ms)
90.000000
862.000000
1645.000000
2416.000000
3176.000000
3936.000000
4762.000000
5720.000000
6649.000000
7494.000000
8322.000000
9135.000000
9910.000000
10671.000000
11447.000000
12216.000000
13004.000000
13841.000000
14686.000000
15520.000000
16369.000000
17240.000000
18095.000000
18934.000000
19763.000000
20572.000000
21365.000000
22126.000000
22858.000000
23594.000000
24326.000000
25067.000000
25823.000000
26583.000000
27349.000000
28119.000000
28880.000000
29629.000000
30378.000000
31125.000000
31873.000000
32630.000000
33381.000000
34140.000000
34904.000000
35671.000000
36434.000000
37196.000000
37964.000000
38732.000000
39494.000000
40259.000000
41024.000000
41794.000000
42557.000000
43322.000000
44088.000000
44866.000000
45647.000000
46441.000000
47233.000000
48021.000000
48797.000000
49562.000000
50331.000000
51103.000000
51883.000000
52665.000000
53457.000000
54250.000000
55043.000000
55835.000000
56635.000000
57430.000000
58222.000000
58993.000000
59760.000000
60534.000000
61317.000000
62110.000000
62915.000000
63718.000000
64508.000000
65301.000000
66093.000000
66873.000000
67655.000000
68423.000000
69192.000000
69969.000000
70747.000000
71524.000000
72301.000000
73072.000000
73828.000000
74583.000000
75329.000000
76088.000000
76847.000000
77612.000000
78381.000000
79155.000000
79923.000000
80701.000000
81484.000000
82276.000000
83065.000000
83840.000000
84613.000000
85382.000000
86148.000000
86909.000000
87676.000000
88440.000000
89201.000000
89971.000000
90743.000000
91527.000000
92309.000000
93094.000000
93869.000000
94651.000000
95433.000000
96207.000000
96961.000000
97708.000000
98465.000000
99225.000000
99996.000000
100768.000000
101540.000000
102318.000000
103133.000000
103939.000000
104729.000000
105506.000000
106270.000000
107038.000000
107809.000000
108584.000000
109350.000000
110110.000000
110887.000000
111679.000000
112453.000000
113212.000000
113964.000000
114738.000000
115527.000000
116314.000000
117099.000000
117892.000000
118688.000000
119482.000000
120274.000000
121062.000000
121836.000000
122603.000000
123383.000000
124164.000000
124934.000000
125699.000000
126463.000000
127230.000000
128000.000000
128784.000000
129553.000000
130321.000000
131058.000000
131787.000000
132532.000000
133281.000000
134044.000000
134835.000000
135628.000000
136420.000000
137198.000000
137969.000000
138744.000000
139532.000000
140331.000000
141135.000000
141924.000000
142711.000000
143494.000000
144285.000000
145084.000000
145878.000000
146665.000000
147446.000000
148244.000000
149069.000000
149891.000000
150718.000000
151513.000000
152297.000000
153083.000000
153879.000000
154675.000000
155467.000000
156261.000000
157062.000000
157877.000000
158694.000000
159501.000000
160286.000000
161061.000000
161832.000000
162600.000000
163360.000000
164120.000000
164900.000000
165689.000000
166481.000000
167264.000000
168050.000000
168835.000000
169628.000000
170427.000000
171226.000000
172021.000000
172817.000000
173629.000000
174437.000000
175242.000000
176050.000000
176838.000000
177628.000000
178427.000000
179228.000000
180022.000000
180811.000000
181601.000000
182398.000000
183200.000000
184006.000000
184805.000000
185587.000000
186357.000000
187109.000000
187849.000000
188597.000000
189368.000000
190164.000000
190983.000000
191801.000000
192618.000000
193424.000000
194226.000000
195033.000000
195842.000000
196634.000000
197420.000000
198201.000000
198992.000000
199785.000000
200578.000000
201378.000000
202179.000000
202992.000000
203805.000000
204634.000000
205442.000000
206232.000000
207015.000000
207808.000000
208600.000000
209386.000000
210174.000000
210973.000000
211798.000000
212623.000000
213438.000000
214239.000000
215044.000000
215869.000000
216678.000000
217475.000000
218267.000000
219065.000000
219869.000000
220686.000000
221495.000000
222323.000000
223170.000000
224027.000000
224869.000000
225686.000000
226488.000000
227290.000000
228099.000000
228897.000000
229687.000000
230477.000000
231277.000000
232094.000000
232909.000000
233718.000000
234525.000000
235329.000000
236138.000000
236942.000000
237738.000000
238537.000000
239354.000000
240169.000000
240977.000000
241776.000000
242573.000000
243386.000000
244219.000000
245035.000000
245856.000000
246675.000000
247516.000000
248362.000000
249189.000000
249999.000000
250805.000000
251618.000000
252443.000000
253267.000000
254082.000000
254907.000000
255748.000000
256605.000000
257469.000000
258312.000000
259150.000000
259989.000000
260822.000000
261646.000000
262457.000000
263267.000000
264089.000000
264911.000000
265724.000000
266533.000000
267345.000000
268168.000000
268988.000000
269791.000000
270593.000000
271420.000000
272240.000000
273046.000000
273840.000000
274642.000000
275450.000000
276264.000000
277068.000000
277881.000000
278700.000000
279513.000000
280310.000000
281104.000000
281901.000000
282709.000000
283514.000000
284316.000000
285116.000000
285932.000000
286740.000000
287537.000000
288321.000000
289097.000000
289880.000000
290654.000000
291423.000000
292196.000000
292986.000000
293805.000000
294657.000000
295500.000000
296325.000000
297142.000000
297968.000000
298785.000000
299588.000000
300384.000000
301195.000000
302010.000000
302823.000000
303628.000000
304433.000000
305245.000000
306081.000000
306908.000000
307729.000000
308545.000000
309367.000000
310187.000000
310996.000000
311798.000000
312603.000000
313412.000000
314225.000000
315040.000000
315849.000000
316653.000000
317460.000000
318263.000000
319058.000000
319843.000000
320628.000000
321435.000000
322238.000000
323030.000000
323826.000000
324608.000000
325397.000000
326201.000000
327022.000000
327840.000000
328650.000000
329460.000000
330275.000000
331081.000000
331876.000000
332663.000000
333457.000000
334273.000000
335091.000000
335896.000000
336694.000000
337497.000000
338297.000000
339092.000000
339884.000000
340681.000000
341487.000000
342296.000000
343099.000000
343898.000000
344704.000000
345527.000000
346347.000000
347156.000000
347949.000000
348737.000000
349532.000000
350331.000000
351128.000000
351929.000000
352742.000000
353575.000000
354400.000000
355215.000000
355996.000000
356770.000000
357552.000000
358357.000000
359182.000000
360044.000000
360888.000000
361738.000000
362605.000000
363462.000000
364305.000000
365133.000000
365951.000000
366780.000000
367612.000000
368446.000000
369274.000000
370103.000000
370953.000000
371790.000000
372619.000000
373447.000000
374287.000000
375142.000000
376021.000000
376902.000000
377767.000000
378621.000000
379466.000000
380315.000000
381163.000000
382008.000000
382857.000000
383708.000000
384573.000000
385432.000000
386287.000000
387128.000000
387978.000000
388840.000000
389708.000000
390571.000000
391426.000000
392292.000000
393165.000000
394029.000000
394870.000000
395705.000000
396545.000000
397390.000000
398239.000000
399100.000000
399955.000000
400811.000000
401681.000000
402563.000000
403437.000000
404308.000000
405155.000000
406009.000000
406866.000000
407729.000000
408579.000000
409417.000000
410248.000000
411092.000000
411943.000000
412798.000000
413634.000000
414461.000000
415308.000000
416160.000000
417020.000000
417862.000000
418706.000000
419571.000000
420421.000000
421263.000000
422089.000000
422920.000000
423775.000000
424626.000000
425476.000000
426311.000000
427131.000000
427938.000000
428739.000000
429528.000000
430305.000000
431084.000000
431868.000000
432660.000000
433444.000000
434233.000000
435044.000000
435872.000000
436698.000000
437523.000000
438338.000000
439145.000000
439936.000000
440725.000000
441526.000000
442346.000000
443174.000000
444003.000000
444856.000000
445725.000000
446584.000000
447424.000000
448272.000000
449113.000000
449965.000000
450812.000000
451647.000000
452466.000000
453286.000000
454111.000000
454938.000000
455753.000000
456552.000000
457341.000000
458133.000000
458933.000000
459753.000000
460573.000000
461392.000000
462217.000000
463047.000000
463892.000000
464754.000000
465614.000000
466470.000000
467305.000000
468138.000000
468976.000000
469812.000000
470641.000000
471462.000000
472282.000000
473111.000000
473953.000000
474801.000000
475650.000000
476500.000000
477352.000000
478218.000000
479076.000000
479920.000000
480764.000000
481603.000000
482452.000000
483302.000000
484139.000000
484972.000000
485804.000000
486650.000000
487507.000000
488356.000000
489197.000000
490044.000000
490901.000000
491774.000000
492650.000000
493511.000000
494372.000000
495247.000000
496130.000000
497007.000000
497872.000000
498721.000000
499580.000000
500429.000000
501265.000000
502093.000000
502913.000000
503730.000000
504561.000000
505405.000000
506255.000000
507092.000000
507946.000000
508805.000000
509672.000000
510516.000000
511353.000000
512196.000000
513048.000000
513905.000000
514746.000000
515581.000000
516416.000000
517273.000000
518117.000000
518956.000000
519781.000000
520611.000000
521443.000000
522277.000000
523103.000000
523900.000000
524698.000000
525519.000000
526347.000000
527206.000000
528079.000000
528922.000000
529749.000000
530560.000000
531372.000000
532183.000000
532994.000000
533810.000000
534641.000000
535493.000000
536351.000000
537204.000000
538076.000000
538958.000000
539830.000000
540694.000000
541537.000000
542377.000000
543224.000000
544081.000000
544935.000000
545788.000000
546640.000000
547498.000000
548353.000000
549212.000000
550071.000000
550953.000000
551854.000000
552748.000000
553620.000000
554483.000000
555346.000000
556207.000000
557074.000000
557929.000000
558791.000000
559674.000000
560561.000000
561449.000000
562310.000000
563164.000000
564027.000000
564890.000000
565747.000000
566589.000000
567437.000000
568306.000000
569180.000000
570050.000000
570912.000000
571773.000000
572651.000000
573523.000000
574380.000000
575220.000000
576070.000000
576914.000000
577750.000000
578578.000000
579398.000000
580227.000000
581062.000000
581922.000000
582775.000000
583625.000000
584487.000000
585353.000000
586219.000000
587063.000000
587914.000000
588773.000000
589635.000000
590502.000000
591352.000000
592193.000000
593028.000000
593873.000000
594732.000000
595589.000000
596437.000000
597288.000000
598142.000000
599010.000000
599868.000000
600716.000000
601566.000000
602413.000000
603273.000000
604140.000000
604993.000000
605829.000000
606674.000000
607522.000000
608374.000000
609221.000000
610071.000000
610935.000000
611812.000000
612697.000000
613572.000000
614436.000000
615297.000000
616162.000000
617026.000000
617875.000000
618727.000000
619576.000000
620439.000000
621312.000000
622177.000000
623032.000000
623875.000000
624726.000000
625582.000000
626447.000000
627298.000000
628145.000000
629016.000000
629895.000000
630776.000000
631655.000000
632518.000000
633381.000000
634246.000000
635114.000000
635973.000000
636831.000000
637697.000000
638580.000000
639463.000000
640336.000000
641203.000000
642074.000000
642969.000000
643864.000000
644745.000000
645620.000000
646515.000000
647419.000000
648315.000000
649194.000000
650057.000000
650930.000000
651792.000000
652645.000000
653487.000000
654323.000000
655174.000000
656041.000000
656916.000000
657775.000000
658620.000000
659466.000000
660316.000000
661148.000000
661953.000000
662723.000000
663502.000000
664307.000000
665157.000000
666017.000000
666898.000000
667748.000000
668592.000000
669435.000000
670279.000000
671124.000000
671952.000000
672776.000000
673613.000000
674473.000000
675328.000000
676177.000000
677027.000000
677873.000000
678735.000000
679587.000000
680433.000000
681280.000000
682137.000000
683000.000000
683872.000000
684721.000000
685567.000000
686420.000000
687268.000000
688111.000000
688938.000000
689770.000000
690626.000000
691499.000000
692369.000000
693246.000000
694135.000000
695050.000000
695964.000000
696853.000000
697719.000000
698593.000000
699469.000000
700329.000000
701178.000000
702026.000000
702894.000000
703759.000000
704629.000000
705482.000000
706333.000000
707208.000000
708085.000000
708943.000000
709799.000000
710647.000000
711510.000000
712388.000000
713265.000000
714128.000000
714992.000000
715870.000000
716759.000000
717631.000000
718496.000000
719356.000000
720229.000000
721100.000000
721954.000000
722815.000000
723692.000000
724577.000000
725460.000000
726338.000000
727206.000000
728087.000000
728965.000000
729829.000000
730682.000000
731541.000000
732411.000000
733281.000000
734139.000000
734989.000000
735840.000000
736696.000000
737561.000000
738434.000000
739293.000000
740152.000000
741023.000000
741894.000000
742756.000000
743616.000000
744472.000000
745343.000000
746228.000000
747092.000000
747950.000000
748798.000000
749656.000000
750508.000000
751352.000000
752193.000000
753041.000000
753887.000000
754735.000000
755581.000000
756434.000000
757293.000000
758157.000000
759008.000000
759859.000000
760720.000000
761594.000000
762465.000000
763325.000000
764179.000000
765046.000000
765907.000000
766750.000000
767603.000000
768459.000000
769352.000000
770242.000000
771101.000000
771954.000000
772819.000000
773678.000000
774533.000000
775373.000000
776229.000000
777082.000000
777930.000000
778777.000000
779618.000000
780491.000000
781374.000000
782249.000000
783112.000000
783974.000000
784855.000000
785722.000000
786576.000000
787417.000000
788254.000000
789093.000000
789949.000000
790813.000000
791675.000000
792542.000000
793424.000000
794328.000000
795215.000000
796082.000000
796945.000000
797810.000000
798668.000000
799514.000000
800355.000000
801195.000000
802040.000000
802886.000000
803718.000000
804556.000000
805405.000000
806275.000000
807133.000000
807978.000000
808828.000000
809678.000000
810508.000000
811337.000000
812169.000000
813006.000000
813842.000000
814676.000000
815514.000000
816366.000000
817219.000000
818059.000000
818900.000000
819759.000000
820629.000000
821488.000000
822340.000000
823202.000000
824083.000000
824948.000000
825801.000000
826667.000000
827526.000000
828376.000000
829213.000000
830049.000000
830899.000000
831751.000000
832596.000000
833443.000000
834339.000000
835238.000000
836141.000000
837018.000000
837883.000000
838748.000000
839625.000000
840499.000000
841367.000000
842216.000000
843065.000000
843920.000000
844771.000000
845603.000000
846442.000000
847298.000000
848155.000000
849019.000000
849864.000000
850705.000000
851552.000000
852419.000000
853284.000000
854130.000000
854974.000000
855829.000000
856690.000000
857549.000000
858393.000000
859254.000000
860123.000000
861008.000000
861885.000000
862754.000000
863638.000000
864504.000000
865370.000000
866206.000000
867000.000000
867786.000000
868595.000000
869453.000000
870340.000000
871218.000000
872075.000000
872933.000000
873790.000000
874668.000000
875549.000000
876433.000000
877300.000000
878162.000000
879025.000000
879911.000000
880805.000000
881696.000000
882581.000000
883466.000000
884350.000000
885253.000000
886159.000000
887043.000000
887925.000000
888787.000000
889654.000000
890523.000000
891394.000000
892240.000000
893080.000000
893932.000000
894801.000000
895680.000000
896537.000000
897395.000000
898256.000000
899126.000000
900000.000000
900874.000000
901739.000000
902593.000000
903457.000000
904336.000000
905216.000000
906084.000000
906945.000000
907812.000000
908691.000000
909570.000000
910438.000000
911292.000000
912143.000000
913001.000000
913858.000000
914712.000000
915562.000000
916423.000000
917306.000000
