ECG (ms)
165.000000
894.000000
1656.000000
2428.000000
3227.000000
3996.000000
4756.000000
5557.000000
6347.000000
7138.000000
7910.000000
8666.000000
9424.000000
10240.000000
11069.000000
11897.000000
12698.000000
13477.000000
14241.000000
15012.000000
15809.000000
16615.000000
17397.000000
18155.000000
18908.000000
19700.000000
20515.000000
21365.000000
22210.000000
23003.000000
23788.000000
24569.000000
25365.000000
26191.000000
27014.000000
27817.000000
28593.000000
29337.000000
30072.000000
30827.000000
31629.000000
32504.000000
33383.000000
34226.000000
35028.000000
35819.000000
36655.000000
37508.000000
38344.000000
39140.000000
39894.000000
40634.000000
41361.000000
42111.000000
42951.000000
43831.000000
44719.000000
45589.000000
46402.000000
47209.000000
48051.000000
48923.000000
49792.000000
50609.000000
51400.000000
52235.000000
53069.000000
53895.000000
54693.000000
55470.000000
56271.000000
57095.000000
57923.000000
58729.000000
59518.000000
60322.000000
61146.000000
61953.000000
62755.000000
63524.000000
64301.000000
65085.000000
65855.000000
66611.000000
67345.000000
68075.000000
68834.000000
69636.000000
70459.000000
71273.000000
72051.000000
72850.000000
73672.000000
74502.000000
75311.000000
76113.000000
76919.000000
77725.000000
78501.000000
79258.000000
80037.000000
80823.000000
81632.000000
82405.000000
83196.000000
83997.000000
84791.000000
85575.000000
86334.000000
87105.000000
87905.000000
88696.000000
89459.000000
90224.000000
91012.000000
91825.000000
92606.000000
93362.000000
94128.000000
94919.000000
95731.000000
96528.000000
97296.000000
98064.000000
98833.000000
99603.000000
100361.000000
101100.000000
101866.000000
102672.000000
103498.000000
104305.000000
105079.000000
105858.000000
106665.000000
107455.000000
108224.000000
108986.000000
109762.000000
110557.000000
111356.000000
112139.000000
112906.000000
113675.000000
114444.000000
115206.000000
115955.000000
116698.000000
117438.000000
118196.000000
118966.000000
119759.000000
120556.000000
121339.000000
122116.000000
122929.000000
123743.000000
124550.000000
125335.000000
126088.000000
126826.000000
127583.000000
128339.000000
129105.000000
129874.000000
130643.000000
131401.000000
132190.000000
132989.000000
133784.000000
134555.000000
135312.000000
136072.000000
136854.000000
137639.000000
138422.000000
139183.000000
139935.000000
140703.000000
141476.000000
142241.000000
142984.000000
143740.000000
144500.000000
145265.000000
146029.000000
146790.000000
147580.000000
148378.000000
149180.000000
149952.000000
150719.000000
151482.000000
152257.000000
153038.000000
153832.000000
154601.000000
155371.000000
156168.000000
156969.000000
157768.000000
158547.000000
159322.000000
160107.000000
160885.000000
161641.000000
162397.000000
163172.000000
163953.000000
164732.000000
165506.000000
166289.000000
167072.000000
167839.000000
168592.000000
169369.000000
170155.000000
170931.000000
171695.000000
172485.000000
173274.000000
174062.000000
174858.000000
175658.000000
176467.000000
177279.000000
178063.000000
178833.000000
179616.000000
180398.000000
181178.000000
181942.000000
182722.000000
183512.000000
184312.000000
185100.000000
185902.000000
186704.000000
187513.000000
188302.000000
189079.000000
189878.000000
190694.000000
191511.000000
192315.000000
193099.000000
193896.000000
194709.000000
195521.000000
196329.000000
197115.000000
197906.000000
198705.000000
199517.000000
200310.000000
201071.000000
201810.000000
202557.000000
203320.000000
204125.000000
204930.000000
205729.000000
206573.000000
207428.000000
208273.000000
209113.000000
209979.000000
210838.000000
211666.000000
212445.000000
213193.000000
213952.000000
214728.000000
215537.000000
216351.000000
217156.000000
217975.000000
218844.000000
219724.000000
220573.000000
221387.000000
222207.000000
223040.000000
223863.000000
224691.000000
225499.000000
226292.000000
227104.000000
227924.000000
228747.000000
229550.000000
230337.000000
231143.000000
231957.000000
232760.000000
233546.000000
234341.000000
235146.000000
235943.000000
236738.000000
237512.000000
238278.000000
239063.000000
239862.000000
240667.000000
241486.000000
242286.000000
243068.000000
243875.000000
244694.000000
245505.000000
246289.000000
247085.000000
247886.000000
248692.000000
249489.000000
250291.000000
251107.000000
251920.000000
252705.000000
253487.000000
254288.000000
255089.000000
255891.000000
256668.000000
257445.000000
258240.000000
259031.000000
259820.000000
260594.000000
261380.000000
262197.000000
263010.000000
263802.000000
264580.000000
265382.000000
266199.000000
267006.000000
267782.000000
268529.000000
269280.000000
270038.000000
270809.000000
271594.000000
272375.000000
273163.000000
273988.000000
274818.000000
275638.000000
276438.000000
277245.000000
278058.000000
278862.000000
279644.000000
280411.000000
281178.000000
281945.000000
282708.000000
283467.000000
284214.000000
284968.000000
285749.000000
286548.000000
287347.000000
288141.000000
288936.000000
289751.000000
290566.000000
291353.000000
292138.000000
292939.000000
293745.000000
294547.000000
295341.000000
296159.000000
296971.000000
297770.000000
298553.000000
299340.000000
300115.000000
300877.000000
301633.000000
302403.000000
303190.000000
303967.000000
304740.000000
305546.000000
306367.000000
307179.000000
307973.000000
308775.000000
309587.000000
310396.000000
311177.000000
311956.000000
312735.000000
313512.000000
314282.000000
315042.000000
315782.000000
316493.000000
317191.000000
317934.000000
318751.000000
319592.000000
320433.000000
321249.000000
322048.000000
322870.000000
323725.000000
324599.000000
325446.000000
326246.000000
327023.000000
327798.000000
328609.000000
329463.000000
330329.000000
331175.000000
331982.000000
332765.000000
333547.000000
334356.000000
335204.000000
336071.000000
336927.000000
337754.000000
338557.000000
339387.000000
340255.000000
341132.000000
341994.000000
342800.000000
343581.000000
344359.000000
345157.000000
345966.000000
346778.000000
347573.000000
348376.000000
349215.000000
350080.000000
350929.000000
351753.000000
352554.000000
353369.000000
354181.000000
354976.000000
355761.000000
356518.000000
357256.000000
357991.000000
358755.000000
359547.000000
360366.000000
361172.000000
361951.000000
362752.000000
363554.000000
364351.000000
365126.000000
365887.000000
366668.000000
367450.000000
368241.000000
369044.000000
369821.000000
370586.000000
371352.000000
372143.000000
372947.000000
373769.000000
374587.000000
375374.000000
376167.000000
376992.000000
377823.000000
378660.000000
379467.000000
380267.000000
381064.000000
381893.000000
382706.000000
383516.000000
384307.000000
385086.000000
385855.000000
386650.000000
387467.000000
388271.000000
389055.000000
389838.000000
390631.000000
391451.000000
392256.000000
393068.000000
393890.000000
394726.000000
395534.000000
396316.000000
397088.000000
397883.000000
398690.000000
399512.000000
400302.000000
401102.000000
401897.000000
402690.000000
403457.000000
404246.000000
405052.000000
405868.000000
406663.000000
407433.000000
408206.000000
408997.000000
409803.000000
410592.000000
411376.000000
412173.000000
412982.000000
413775.000000
414547.000000
415342.000000
416143.000000
416931.000000
417700.000000
418460.000000
419247.000000
420053.000000
420854.000000
421641.000000
422397.000000
423154.000000
423940.000000
424742.000000
425549.000000
426355.000000
427137.000000
427905.000000
428681.000000
429497.000000
430341.000000
431188.000000
432001.000000
432777.000000
433545.000000
434330.000000
435131.000000
435941.000000
436740.000000
437523.000000
438306.000000
439117.000000
439954.000000
440773.000000
441551.000000
442324.000000
443107.000000
443886.000000
444674.000000
445445.000000
446199.000000
446941.000000
447696.000000
448486.000000
449291.000000
450122.000000
450930.000000
451708.000000
452476.000000
453243.000000
454034.000000
454859.000000
455694.000000
456509.000000
457295.000000
458056.000000
458814.000000
459600.000000
460411.000000
461241.000000
462053.000000
462881.000000
463708.000000
464528.000000
465320.000000
466093.000000
466869.000000
467644.000000
468407.000000
469165.000000
469925.000000
470716.000000
471559.000000
472413.000000
473253.000000
474056.000000
474889.000000
475753.000000
476609.000000
477426.000000
478249.000000
479063.000000
479855.000000
480611.000000
481387.000000
482172.000000
482964.000000
483747.000000
484545.000000
485394.000000
486240.000000
487029.000000
487799.000000
488561.000000
489339.000000
490146.000000
490938.000000
491717.000000
492500.000000
493319.000000
494138.000000
494963.000000
495771.000000
496549.000000
497317.000000
498112.000000
498941.000000
499766.000000
500573.000000
501346.000000
502116.000000
502885.000000
503682.000000
504522.000000
505377.000000
506218.000000
507015.000000
507805.000000
508604.000000
509404.000000
510175.000000
510945.000000
511730.000000
512527.000000
513326.000000
514105.000000
514865.000000
515641.000000
516459.000000
517297.000000
518133.000000
518940.000000
519720.000000
520510.000000
521295.000000
522091.000000
522880.000000
523665.000000
524484.000000
525327.000000
526148.000000
526941.000000
527724.000000
528519.000000
529311.000000
530095.000000
530863.000000
531661.000000
532462.000000
533260.000000
534044.000000
534811.000000
535586.000000
536393.000000
537213.000000
538025.000000
538804.000000
539561.000000
540313.000000
541087.000000
541899.000000
542719.000000
543525.000000
544313.000000
545089.000000
545904.000000
546732.000000
547560.000000
548358.000000
549143.000000
549947.000000
550781.000000
551639.000000
552484.000000
553288.000000
554092.000000
554898.000000
555685.000000
556441.000000
557216.000000
558016.000000
558837.000000
559653.000000
560467.000000
561311.000000
562169.000000
563003.000000
563820.000000
564630.000000
565428.000000
566203.000000
566972.000000
567753.000000
568558.000000
569390.000000
570193.000000
570985.000000
571780.000000
572592.000000
573416.000000
574207.000000
574984.000000
575765.000000
576551.000000
577361.000000
578160.000000
578955.000000
579732.000000
580491.000000
581275.000000
582077.000000
582891.000000
583696.000000
584464.000000
585223.000000
586001.000000
586803.000000
587600.000000
588394.000000
589157.000000
589916.000000
590682.000000
591467.000000
592250.000000
593011.000000
593804.000000
594615.000000
595430.000000
596223.000000
597029.000000
597844.000000
598649.000000
599432.000000
600231.000000
601044.000000
601865.000000
602648.000000
603431.000000
604255.000000
605075.000000
605870.000000
606646.000000
607408.000000
608183.000000
608963.000000
609726.000000
610494.000000
611256.000000
612032.000000
612857.000000
613705.000000
614559.000000
615356.000000
616135.000000
616940.000000
617747.000000
618556.000000
619341.000000
620105.000000
620878.000000
621685.000000
622515.000000
623331.000000
624117.000000
624902.000000
625685.000000
626501.000000
627312.000000
628108.000000
628877.000000
629640.000000
630416.000000
631218.000000
632030.000000
632828.000000
633604.000000
634377.000000
635170.000000
635987.000000
636833.000000
637662.000000
638469.000000
639221.000000
639958.000000
640685.000000
641405.000000
642127.000000
642854.000000
643643.000000
644519.000000
645390.000000
646215.000000
647001.000000
647770.000000
648548.000000
649344.000000
650175.000000
651010.000000
651820.000000
652630.000000
653457.000000
654294.000000
655104.000000
655897.000000
656719.000000
657548.000000
658356.000000
659140.000000
659945.000000
660750.000000
661549.000000
662315.000000
663076.000000
663847.000000
664645.000000
665446.000000
666225.000000
667045.000000
667875.000000
668695.000000
669465.000000
670235.000000
671013.000000
671799.000000
672582.000000
673358.000000
674160.000000
675006.000000
675875.000000
676693.000000
677500.000000
678289.000000
679076.000000
679854.000000
680641.000000
681443.000000
682264.000000
683071.000000
683882.000000
684714.000000
685547.000000
686352.000000
687183.000000
688004.000000
688799.000000
689595.000000
690407.000000
691199.000000
691987.000000
692783.000000
693593.000000
694376.000000
695184.000000
696018.000000
696830.000000
697617.000000
698420.000000
699209.000000
699987.000000
700733.000000
701471.000000
702203.000000
702979.000000
703835.000000
704689.000000
705524.000000
706331.000000
707118.000000
707944.000000
708824.000000
709702.000000
710551.000000
711362.000000
712172.000000
713001.000000
713849.000000
714688.000000
715488.000000
716268.000000
717052.000000
717878.000000
718753.000000
719647.000000
720500.000000
721316.000000
722146.000000
723009.000000
723881.000000
724711.000000
725516.000000
726349.000000
727204.000000
728075.000000
728922.000000
729737.000000
730549.000000
731381.000000
732208.000000
733017.000000
733799.000000
734562.000000
735313.000000
736077.000000
736829.000000
737554.000000
738292.000000
739056.000000
739843.000000
740605.000000
741376.000000
742191.000000
743024.000000
743861.000000
744652.000000
745438.000000
746240.000000
747052.000000
747874.000000
748662.000000
749429.000000
750205.000000
751011.000000
751827.000000
752644.000000
753431.000000
754206.000000
754961.000000
755732.000000
756535.000000
757372.000000
758214.000000
759046.000000
759865.000000
760711.000000
761532.000000
762340.000000
763121.000000
763878.000000
764638.000000
765449.000000
766340.000000
767250.000000
768129.000000
768951.000000
769782.000000
770642.000000
771537.000000
772423.000000
773241.000000
774036.000000
774809.000000
775596.000000
776388.000000
777197.000000
777990.000000
778817.000000
779649.000000
780415.000000
781177.000000
781960.000000
782753.000000
783545.000000
784313.000000
785064.000000
785807.000000
786560.000000
787311.000000
788062.000000
788801.000000
789526.000000
790250.000000
790999.000000
791814.000000
792652.000000
793482.000000
794286.000000
795069.000000
795858.000000
796674.000000
797503.000000
798329.000000
799116.000000
799894.000000
800693.000000
801519.000000
802360.000000
803160.000000
803971.000000
804788.000000
805612.000000
806439.000000
807265.000000
808058.000000
808829.000000
809587.000000
810377.000000
811243.000000
812118.000000
812953.000000
813761.000000
814559.000000
815366.000000
816205.000000
817058.000000
817889.000000
818685.000000
819458.000000
820254.000000
821064.000000
821896.000000
822704.000000
823516.000000
824381.000000
825266.000000
826101.000000
826898.000000
827680.000000
828472.000000
829279.000000
830105.000000
830924.000000
831726.000000
832518.000000
833317.000000
834167.000000
835028.000000
835893.000000
836710.000000
837505.000000
838301.000000
839131.000000
839985.000000
840848.000000
841680.000000
842469.000000
843243.000000
844030.000000
844838.000000
845649.000000
846452.000000
847241.000000
848024.000000
848844.000000
849708.000000
850561.000000
851383.000000
852176.000000
852979.000000
853840.000000
854745.000000
855629.000000
856480.000000
857302.000000
858130.000000
858987.000000
859843.000000
860672.000000
861482.000000
862310.000000
863136.000000
863949.000000
864743.000000
865566.000000
866387.000000
867212.000000
868001.000000
868800.000000
869613.000000
870427.000000
871214.000000
871981.000000
872756.000000
873568.000000
874419.000000
875267.000000
876095.000000
876898.000000
877684.000000
878491.000000
879332.000000
880169.000000
880978.000000
881761.000000
882522.000000
883287.000000
884088.000000
884924.000000
885790.000000
886638.000000
887451.000000
888298.000000
889197.000000
890080.000000
890918.000000
891721.000000
892537.000000
893363.000000
894178.000000
894973.000000
895763.000000
896577.000000
897411.000000
898243.000000
899052.000000
899878.000000
900716.000000
901531.000000
902304.000000
903052.000000
903812.000000
904572.000000
905324.000000
906077.000000
906865.000000
907696.000000
908547.000000
909389.000000
910199.000000
910996.000000
911804.000000
912626.000000
913458.000000
914302.000000
915129.000000
915943.000000
916775.000000
917608.000000
918439.000000
919245.000000
920027.000000
920794.000000
921593.000000
922447.000000
923327.000000
924195.000000
925034.000000
925895.000000
926764.000000
927604.000000
928437.000000
929264.000000
930077.000000
930872.000000
931653.000000
932443.000000
933246.000000
934046.000000
934846.000000
935675.000000
936505.000000
937311.000000
938136.000000
938964.000000
939772.000000
940573.000000
941376.000000
942164.000000
942922.000000
943705.000000
944519.000000
945371.000000
946233.000000
947130.000000
948049.000000
948913.000000
949772.000000
950628.000000
951448.000000
952247.000000
953065.000000
953888.000000
954688.000000
955492.000000
956308.000000
957119.000000
957893.000000
958647.000000
959409.000000
960190.000000
960993.000000
961813.000000
962603.000000
963387.000000
964209.000000
965080.000000
965966.000000
966827.000000
967642.000000
968438.000000
969224.000000
970037.000000
970869.000000
971689.000000
972491.000000
973311.000000
974132.000000
974928.000000
975685.000000
976431.000000
977174.000000
977947.000000
978749.000000
979547.000000
980327.000000
981094.000000
981872.000000
982674.000000
983484.000000
984279.000000
985051.000000
985818.000000
986606.000000
987431.000000
988275.000000
989102.000000
989942.000000
990803.000000
991651.000000
992475.000000
993324.000000
994162.000000
994991.000000
995801.000000
996606.000000
997450.000000
998346.000000
999253.000000
1000128.000000
1000952.000000
1001763.000000
1002583.000000
1003431.000000
1004326.000000
1005215.000000
1006062.000000
1006874.000000
1007671.000000
1008489.000000
1009320.000000
1010157.000000
1010980.000000
1011816.000000
1012644.000000
1013464.000000
1014291.000000
1015108.000000
1015888.000000
1016658.000000
1017439.000000
1018284.000000
1019190.000000
1020074.000000
1020919.000000
1021721.000000
1022496.000000
1023271.000000
1024066.000000
1024880.000000
1025692.000000
1026487.000000
1027249.000000
1028033.000000
1028851.000000
1029706.000000
1030518.000000
1031302.000000
1032099.000000
1032912.000000
1033750.000000
1034542.000000
1035320.000000
1036074.000000
1036778.000000
1037493.000000
1038172.000000
1038836.000000
1039491.000000
1040138.000000
1040777.000000
1041432.000000
1042096.000000
1042777.000000
1043460.000000
1044146.000000
1044833.000000
1045554.000000
1046296.000000
1047060.000000
1047828.000000
1048589.000000
1049321.000000
1050041.000000
1050746.000000
1051447.000000
1052170.000000
1052935.000000
1053717.000000
1054505.000000
1055294.000000
1056083.000000
1056865.000000
1057650.000000
1058450.000000
1059247.000000
1060024.000000
1060792.000000
1061566.000000
1062369.000000
1063191.000000
1064011.000000
1064829.000000
1065617.000000
1066386.000000
1067161.000000
1067948.000000
1068746.000000
1069549.000000
1070363.000000
1071175.000000
1071973.000000
1072744.000000
1073531.000000
1074328.000000
1075113.000000
1075902.000000
1076664.000000
1077403.000000
1078136.000000
1078860.000000
1079604.000000
1080386.000000
1081208.000000
1082050.000000
1082883.000000
1083714.000000
1084560.000000
1085371.000000
1086160.000000
1086908.000000
1087644.000000
1088398.000000
1089182.000000
1090002.000000
1090855.000000
1091713.000000
1092542.000000
1093356.000000
1094231.000000
1095136.000000
1096035.000000
1096886.000000
1097682.000000
1098452.000000
1099214.000000
1100007.000000
1100831.000000
1101683.000000
1102549.000000
1103400.000000
1104318.000000
1105232.000000
1106082.000000
1106938.000000
1107806.000000
1108646.000000
1109452.000000
1110240.000000
1111044.000000
1111852.000000
1112659.000000
1113453.000000
1114243.000000
1115064.000000
1115908.000000
1116709.000000
1117492.000000
1118299.000000
1119150.000000
1120045.000000
1120927.000000
1121764.000000
1122571.000000
1123375.000000
1124198.000000
1125009.000000
1125812.000000
1126590.000000
1127367.000000
1128164.000000
1128970.000000
1129773.000000
1130548.000000
1131316.000000
1132098.000000
1132876.000000
1133673.000000
1134468.000000
1135253.000000
1136018.000000
1136770.000000
1137535.000000
1138342.000000
1139151.000000
1139959.000000
1140740.000000
1141541.000000
1142350.000000
1143158.000000
1143962.000000
1144740.000000
1145539.000000
1146323.000000
1147119.000000
1147895.000000
1148661.000000
1149422.000000
1150215.000000
1151016.000000
1151800.000000
1152569.000000
1153374.000000
1154196.000000
1155006.000000
1155783.000000
1156548.000000
1157327.000000
1158121.000000
1158912.000000
1159714.000000
1160493.000000
1161283.000000
1162096.000000
1162904.000000
1163671.000000
1164455.000000
1165249.000000
1166026.000000
1166795.000000
1167575.000000
1168360.000000
1169131.000000
1169889.000000
1170628.000000
1171386.000000
1172170.000000
1172971.000000
1173758.000000
1174535.000000
1175322.000000
1176142.000000
1176977.000000
1177793.000000
1178585.000000
1179362.000000
1180144.000000
1180956.000000
1181768.000000
1182535.000000
1183297.000000
1184090.000000
1184912.000000
1185731.000000
1186523.000000
1187279.000000
1188046.000000
1188835.000000
1189617.000000
1190395.000000
1191171.000000
1191936.000000
1192720.000000
1193524.000000
1194323.000000
1195112.000000
1195881.000000
1196642.000000
1197420.000000
1198199.000000
1198976.000000
1199739.000000
1200503.000000
1201281.000000
1202075.000000
1202870.000000
1203662.000000
1204477.000000
1205271.000000
1206039.000000
1206812.000000
1207595.000000
1208367.000000
