ECG (ms)
-7.000000
731.000000
1463.000000
2173.000000
2855.000000
3569.000000
4305.000000
5054.000000
5747.000000
6455.000000
7218.000000
8015.000000
8739.000000
9452.000000
10220.000000
10978.000000
11714.000000
12428.000000
13128.000000
13841.000000
14568.000000
15295.000000
16028.000000
16791.000000
17527.000000
18244.000000
18910.000000
19548.000000
20293.000000
21314.000000
22184.000000
22973.000000
23686.000000
24385.000000
25095.000000
25816.000000
26565.000000
27358.000000
28190.000000
29012.000000
29775.000000
30477.000000
31142.000000
31801.000000
32563.000000
33359.000000
34303.000000
35231.000000
36137.000000
37039.000000
37918.000000
38753.000000
39576.000000
40432.000000
41298.000000
42159.000000
43020.000000
43879.000000
44633.000000
45362.000000
46121.000000
46980.000000
47849.000000
48693.000000
49523.000000
50351.000000
51107.000000
51975.000000
52827.000000
53689.000000
54524.000000
55357.000000
56234.000000
57122.000000
57955.000000
58824.000000
59697.000000
60563.000000
61322.000000
62062.000000
62859.000000
63796.000000
64596.000000
65339.000000
66095.000000
67042.000000
68003.000000
68974.000000
69939.000000
70862.000000
71699.000000
72434.000000
73152.000000
73957.000000
74939.000000
75903.000000
76854.000000
77777.000000
78595.000000
79327.000000
80096.000000
80994.000000
81951.000000
82871.000000
83815.000000
84734.000000
85657.000000
86555.000000
87444.000000
88349.000000
89266.000000
90161.000000
91050.000000
91954.000000
92862.000000
93777.000000
94702.000000
95607.000000
96493.000000
97389.000000
98293.000000
99111.000000
99943.000000
100838.000000
101741.000000
102662.000000
103484.000000
104391.000000
105291.000000
106169.000000
106929.000000
107760.000000
108588.000000
109449.000000
110220.000000
111119.000000
112018.000000
112879.000000
113693.000000
114589.000000
115464.000000
116224.000000
117039.000000
117844.000000
118658.000000
119408.000000
120256.000000
121116.000000
121910.000000
122711.000000
123569.000000
124411.000000
125169.000000
125969.000000
126807.000000
127664.000000
128429.000000
129258.000000
130107.000000
130958.000000
131742.000000
132574.000000
133407.000000
134236.000000
135010.000000
135883.000000
136742.000000
137601.000000
138381.000000
139176.000000
140026.000000
140886.000000
141681.000000
142463.000000
143308.000000
144078.000000
144798.000000
145520.000000
146295.000000
147091.000000
147914.000000
148764.000000
149627.000000
150422.000000
151235.000000
152074.000000
152917.000000
153697.000000
154515.000000
155341.000000
156184.000000
157014.000000
157890.000000
158756.000000
159545.000000
160380.000000
161224.000000
162039.000000
162825.000000
163687.000000
164544.000000
165332.000000
166206.000000
167107.000000
167918.000000
168668.000000
169349.000000
170047.000000
171210.000000
172197.000000
173155.000000
174088.000000
174963.000000
175698.000000
176439.000000
177201.000000
178110.000000
178993.000000
179798.000000
180612.000000
181518.000000
182406.000000
183243.000000
184087.000000
184910.000000
185729.000000
186493.000000
187291.000000
188134.000000
189004.000000
189799.000000
190551.000000
191381.000000
192276.000000
193136.000000
193923.000000
194644.000000
195378.000000
196205.000000
197185.000000
198003.000000
198736.000000
199487.000000
200292.000000
201183.000000
201976.000000
202821.000000
203676.000000
204504.000000
205343.000000
206203.000000
207037.000000
207836.000000
208657.000000
209499.000000
210329.000000
211146.000000
211991.000000
212811.000000
213595.000000
214348.000000
215152.000000
216026.000000
216900.000000
217723.000000
218575.000000
219438.000000
220291.000000
221082.000000
221908.000000
222742.000000
223509.000000
224280.000000
225105.000000
225976.000000
226759.000000
227534.000000
228348.000000
229218.000000
230000.000000
230800.000000
231623.000000
232428.000000
233172.000000
233959.000000
234802.000000
235603.000000
236343.000000
237115.000000
238000.000000
238841.000000
239622.000000
240411.000000
241189.000000
241969.000000
242715.000000
243499.000000
244311.000000
245126.000000
245904.000000
246719.000000
247550.000000
248313.000000
249090.000000
249893.000000
250696.000000
251449.000000
252206.000000
252984.000000
253809.000000
254569.000000
255348.000000
256163.000000
257008.000000
257776.000000
258510.000000
259322.000000
260269.000000
261120.000000
261905.000000
262741.000000
263614.000000
264496.000000
265350.000000
266241.000000
267135.000000
267976.000000
268808.000000
269601.000000
270414.000000
271181.000000
271999.000000
272867.000000
273699.000000
274479.000000
275273.000000
275987.000000
276661.000000
277383.000000
278198.000000
278975.000000
279853.000000
280707.000000
281564.000000
282342.000000
283119.000000
283939.000000
284752.000000
285521.000000
286417.000000
287348.000000
288220.000000
289111.000000
289973.000000
290785.000000
291533.000000
292340.000000
293247.000000
294168.000000
295009.000000
295822.000000
296676.000000
297555.000000
298371.000000
299227.000000
300118.000000
300960.000000
301745.000000
302576.000000
303444.000000
304257.000000
305017.000000
305846.000000
306725.000000
307533.000000
308337.000000
309179.000000
310030.000000
310807.000000
311629.000000
312464.000000
313269.000000
314050.000000
314908.000000
315761.000000
316553.000000
317407.000000
318266.000000
319060.000000
319859.000000
320697.000000
321561.000000
322358.000000
323203.000000
324078.000000
324921.000000
325762.000000
326626.000000
327489.000000
328300.000000
329107.000000
329954.000000
330822.000000
331625.000000
332458.000000
333315.000000
334133.000000
334912.000000
335737.000000
336600.000000
337465.000000
338266.000000
339098.000000
339976.000000
340770.000000
341539.000000
342334.000000
343162.000000
343952.000000
344798.000000
345696.000000
346522.000000
347302.000000
348142.000000
349022.000000
349825.000000
350521.000000
351177.000000
351903.000000
353093.000000
354088.000000
355038.000000
355985.000000
356838.000000
357726.000000
358637.000000
359474.000000
360294.000000
361198.000000
362103.000000
362937.000000
363847.000000
364761.000000
365614.000000
366486.000000
367405.000000
368317.000000
369147.000000
370055.000000
370957.000000
371860.000000
372674.000000
373523.000000
374412.000000
375281.000000
376123.000000
376909.000000
377784.000000
378668.000000
379543.000000
380433.000000
381332.000000
382241.000000
383118.000000
383943.000000
384785.000000
385654.000000
386530.000000
387389.000000
388217.000000
389086.000000
389945.000000
390799.000000
391657.000000
392536.000000
393415.000000
394203.000000
395042.000000
395921.000000
396829.000000
397658.000000
398431.000000
399258.000000
400106.000000
400903.000000
401704.000000
402599.000000
403478.000000
404285.000000
405203.000000
406097.000000
406878.000000
407731.000000
408583.000000
409477.000000
410295.000000
411188.000000
412060.000000
412858.000000
413776.000000
414672.000000
415495.000000
416384.000000
417275.000000
418107.000000
418938.000000
419825.000000
420717.000000
421515.000000
422372.000000
423253.000000
424028.000000
424868.000000
425762.000000
426640.000000
427436.000000
428341.000000
429252.000000
430104.000000
430938.000000
431776.000000
432642.000000
433411.000000
434261.000000
435084.000000
435875.000000
436630.000000
437423.000000
438316.000000
439077.000000
439939.000000
440803.000000
441641.000000
442417.000000
443256.000000
444107.000000
444884.000000
445703.000000
446576.000000
447428.000000
448180.000000
448988.000000
449804.000000
450615.000000
451411.000000
452260.000000
453116.000000
453905.000000
454775.000000
455655.000000
456463.000000
457280.000000
458029.000000
458743.000000
459408.000000
460060.000000
460795.000000
461745.000000
462578.000000
463448.000000
464334.000000
465188.000000
465951.000000
466817.000000
467693.000000
468452.000000
469269.000000
470102.000000
470951.000000
471743.000000
472610.000000
473491.000000
474281.000000
475162.000000
476046.000000
476885.000000
477671.000000
478541.000000
479419.000000
480203.000000
481047.000000
481908.000000
482688.000000
483488.000000
484391.000000
485247.000000
486056.000000
486941.000000
487824.000000
488637.000000
489516.000000
490397.000000
491216.000000
492076.000000
492961.000000
493819.000000
494672.000000
495587.000000
496512.000000
497367.000000
498277.000000
499195.000000
500040.000000
500935.000000
501853.000000
502752.000000
503665.000000
504611.000000
505521.000000
506363.000000
507292.000000
508213.000000
509043.000000
509965.000000
510887.000000
511712.000000
512625.000000
513535.000000
514385.000000
515265.000000
516178.000000
517062.000000
517897.000000
518801.000000
519698.000000
520520.000000
521438.000000
522346.000000
523148.000000
524044.000000
524942.000000
525764.000000
526655.000000
527551.000000
528425.000000
529259.000000
530139.000000
531001.000000
531760.000000
532600.000000
533469.000000
534229.000000
535080.000000
535996.000000
536832.000000
537716.000000
538612.000000
539461.000000
540305.000000
541188.000000
542046.000000
542854.000000
543766.000000
544675.000000
545517.000000
546418.000000
547329.000000
548195.000000
549081.000000
550001.000000
550886.000000
551720.000000
552635.000000
553581.000000
554440.000000
555333.000000
556243.000000
557140.000000
557972.000000
558884.000000
559809.000000
560660.000000
561549.000000
562459.000000
563315.000000
564155.000000
565053.000000
565944.000000
566742.000000
567611.000000
568481.000000
569264.000000
570117.000000
570989.000000
571807.000000
572669.000000
573547.000000
574405.000000
575220.000000
576090.000000
576987.000000
577833.000000
578691.000000
579562.000000
580432.000000
581225.000000
582096.000000
583007.000000
583892.000000
584806.000000
585746.000000
586666.000000
587532.000000
588451.000000
589398.000000
590284.000000
591194.000000
592161.000000
593069.000000
593930.000000
594834.000000
595757.000000
596622.000000
597541.000000
598482.000000
599368.000000
600309.000000
601268.000000
602144.000000
603074.000000
604034.000000
604938.000000
605821.000000
606723.000000
607650.000000
608524.000000
609458.000000
610407.000000
611275.000000
612180.000000
613128.000000
614103.000000
615004.000000
615872.000000
616789.000000
617781.000000
618733.000000
619631.000000
620591.000000
621577.000000
622519.000000
623367.000000
624283.000000
625191.000000
626013.000000
626941.000000
627891.000000
628802.000000
629692.000000
630625.000000
631524.000000
632288.000000
633002.000000
633713.000000
634440.000000
635303.000000
636221.000000
637075.000000
637878.000000
638728.000000
639606.000000
640413.000000
641207.000000
642038.000000
642865.000000
643630.000000
644463.000000
645368.000000
646176.000000
646994.000000
647884.000000
648771.000000
649594.000000
650487.000000
651402.000000
652225.000000
653035.000000
653937.000000
654805.000000
655608.000000
656506.000000
657445.000000
658275.000000
659162.000000
660082.000000
660917.000000
661708.000000
662560.000000
663383.000000
664150.000000
664983.000000
665863.000000
666635.000000
667381.000000
668172.000000
669034.000000
669786.000000
670568.000000
671373.000000
672193.000000
672951.000000
673796.000000
674836.000000
675668.000000
676549.000000
677450.000000
678277.000000
679058.000000
679849.000000
680692.000000
681455.000000
682291.000000
683216.000000
684098.000000
684938.000000
685840.000000
686761.000000
687616.000000
688549.000000
689483.000000
690317.000000
691187.000000
692083.000000
692939.000000
693812.000000
694715.000000
695618.000000
696495.000000
697424.000000
698355.000000
699224.000000
700087.000000
700993.000000
701914.000000
702763.000000
703670.000000
704586.000000
705457.000000
706354.000000
707272.000000
708174.000000
709011.000000
709921.000000
710802.000000
711615.000000
712510.000000
713404.000000
714259.000000
715157.000000
716081.000000
716944.000000
717843.000000
718747.000000
719622.000000
720508.000000
721404.000000
722256.000000
722999.000000
723684.000000
724390.000000
725698.000000
726767.000000
727783.000000
728774.000000
729675.000000
730608.000000
731563.000000
732549.000000
733469.000000
734329.000000
735254.000000
736184.000000
737114.000000
737968.000000
738839.000000
739751.000000
740662.000000
741568.000000
742452.000000
743387.000000
744342.000000
745265.000000
746109.000000
746991.000000
747901.000000
748794.000000
749660.000000
750552.000000
751465.000000
752357.000000
753274.000000
754189.000000
755077.000000
755950.000000
756875.000000
757808.000000
758721.000000
759631.000000
760539.000000
761436.000000
762245.000000
763136.000000
764021.000000
764917.000000
765720.000000
766594.000000
767389.000000
768112.000000
768861.000000
769525.000000
770250.000000
771224.000000
772028.000000
772888.000000
773780.000000
774676.000000
775511.000000
776340.000000
777191.000000
778072.000000
778887.000000
779745.000000
780658.000000
781524.000000
782323.000000
783110.000000
784017.000000
784907.000000
785710.000000
786539.000000
787410.000000
788325.000000
789174.000000
790090.000000
790949.000000
791768.000000
792603.000000
793491.000000
794425.000000
795256.000000
796160.000000
797094.000000
797940.000000
798854.000000
799779.000000
800645.000000
801539.000000
802448.000000
803302.000000
804114.000000
804971.000000
805843.000000
806710.000000
807541.000000
808394.000000
809292.000000
810122.000000
810966.000000
811814.000000
812696.000000
813516.000000
814404.000000
815334.000000
816168.000000
816995.000000
817830.000000
818676.000000
819529.000000
820425.000000
821304.000000
822117.000000
823003.000000
823932.000000
824756.000000
825641.000000
826513.000000
827345.000000
828211.000000
829117.000000
829937.000000
830812.000000
831706.000000
832579.000000
833495.000000
834427.000000
835265.000000
836113.000000
837038.000000
837908.000000
838795.000000
839697.000000
840569.000000
841414.000000
842300.000000
843226.000000
844040.000000
844920.000000
845802.000000
846678.000000
847475.000000
848287.000000
849156.000000
849974.000000
850864.000000
851785.000000
852631.000000
853494.000000
854363.000000
855233.000000
856063.000000
856952.000000
857860.000000
858678.000000
859469.000000
860299.000000
861156.000000
861962.000000
862823.000000
863702.000000
864522.000000
865385.000000
866259.000000
867066.000000
867928.000000
868811.000000
869625.000000
870487.000000
871379.000000
872216.000000
873051.000000
873966.000000
874849.000000
875671.000000
876578.000000
877464.000000
878276.000000
879195.000000
880086.000000
880888.000000
881788.000000
882717.000000
883551.000000
884466.000000
885385.000000
886243.000000
887123.000000
888042.000000
888883.000000
889749.000000
890675.000000
891586.000000
892418.000000
893252.000000
894034.000000
894778.000000
895473.000000
896292.000000
897194.000000
897979.000000
898830.000000
899716.000000
900499.000000
901376.000000
902337.000000
903223.000000
904042.000000
904940.000000
905854.000000
906681.000000
907514.000000
908407.000000
909301.000000
910114.000000
911002.000000
911918.000000
912782.000000
913740.000000
914704.000000
915572.000000
916465.000000
917502.000000
