ECG (ms)
789.000000
1780.000000
2692.000000
3518.000000
4358.000000
5666.000000
6785.000000
7920.000000
9009.000000
10004.000000
10939.000000
11918.000000
12850.000000
13693.000000
14493.000000
15292.000000
16181.000000
17553.000000
18707.000000
19779.000000
20773.000000
21635.000000
22420.000000
23206.000000
24090.000000
25082.000000
26200.000000
27241.000000
28236.000000
29195.000000
30180.000000
31139.000000
32095.000000
33117.000000
34103.000000
35058.000000
36076.000000
37130.000000
38146.000000
39095.000000
40030.000000
40980.000000
41951.000000
42939.000000
43879.000000
44810.000000
45687.000000
46496.000000
47334.000000
48242.000000
49161.000000
50055.000000
51012.000000
52009.000000
53021.000000
53982.000000
54899.000000
55800.000000
56675.000000
57549.000000
58473.000000
59473.000000
60457.000000
61488.000000
62512.000000
63480.000000
64445.000000
65403.000000
66380.000000
67299.000000
68288.000000
69335.000000
70325.000000
71344.000000
72440.000000
73493.000000
74427.000000
75319.000000
76202.000000
77156.000000
78093.000000
79200.000000
80400.000000
81435.000000
82529.000000
83578.000000
84559.000000
85545.000000
86539.000000
87496.000000
88493.000000
89490.000000
90438.000000
91486.000000
92523.000000
93426.000000
94243.000000
95011.000000
95738.000000
96577.000000
97790.000000
98915.000000
99979.000000
100990.000000
101995.000000
102973.000000
103912.000000
104893.000000
105863.000000
106796.000000
107764.000000
108784.000000
109691.000000
110584.000000
111464.000000
112334.000000
113255.000000
114206.000000
115132.000000
116084.000000
117013.000000
117892.000000
118755.000000
119548.000000
120287.000000
121032.000000
121830.000000
122739.000000
123608.000000
124494.000000
125413.000000
126280.000000
127159.000000
128024.000000
128859.000000
129681.000000
130500.000000
131319.000000
132124.000000
132911.000000
133738.000000
134918.000000
135935.000000
136784.000000
137583.000000
138426.000000
139277.000000
140091.000000
140910.000000
141826.000000
142880.000000
143859.000000
144787.000000
145705.000000
146591.000000
147457.000000
148327.000000
149207.000000
150305.000000
151420.000000
152487.000000
153481.000000
154477.000000
155463.000000
156427.000000
157330.000000
158199.000000
159079.000000
160101.000000
161319.000000
162440.000000
163487.000000
164508.000000
165516.000000
166492.000000
167416.000000
168310.000000
169206.000000
170200.000000
171558.000000
172735.000000
173757.000000
174679.000000
175555.000000
176399.000000
177294.000000
178697.000000
179833.000000
180860.000000
181838.000000
182788.000000
183697.000000
184600.000000
185493.000000
186403.000000
187406.000000
188307.000000
189130.000000
189914.000000
190774.000000
191848.000000
192899.000000
193832.000000
194701.000000
195548.000000
196438.000000
197804.000000
198932.000000
200002.000000
201093.000000
202103.000000
203037.000000
203945.000000
204910.000000
205904.000000
206896.000000
207918.000000
208946.000000
209946.000000
210869.000000
211761.000000
212688.000000
213686.000000
214734.000000
215774.000000
216777.000000
217712.000000
218609.000000
219501.000000
220440.000000
221490.000000
222585.000000
223624.000000
224589.000000
225508.000000
226448.000000
227374.000000
228340.000000
229355.000000
230326.000000
231258.000000
232290.000000
233204.000000
234042.000000
234827.000000
235681.000000
236794.000000
237867.000000
238823.000000
239716.000000
240638.000000
241742.000000
242850.000000
243893.000000
244888.000000
245861.000000
246816.000000
247770.000000
248677.000000
249539.000000
250391.000000
251275.000000
252804.000000
253999.000000
255042.000000
256019.000000
256978.000000
257929.000000
258899.000000
259828.000000
260729.000000
261611.000000
262576.000000
263863.000000
265014.000000
266085.000000
267062.000000
267967.000000
268862.000000
269740.000000
270607.000000
271451.000000
272307.000000
273138.000000
273964.000000
274920.000000
276191.000000
277231.000000
278147.000000
278972.000000
279731.000000
280452.000000
281177.000000
281965.000000
282829.000000
283716.000000
284562.000000
285395.000000
286198.000000
287013.000000
287949.000000
289016.000000
290000.000000
290894.000000
291744.000000
292581.000000
293419.000000
294237.000000
295062.000000
295866.000000
296642.000000
297405.000000
298176.000000
299083.000000
300158.000000
301160.000000
302114.000000
303011.000000
303874.000000
304722.000000
305553.000000
306372.000000
307182.000000
307971.000000
308759.000000
309569.000000
310419.000000
311381.000000
312302.000000
313206.000000
314096.000000
314982.000000
315869.000000
316768.000000
317635.000000
318468.000000
319281.000000
320086.000000
320943.000000
321903.000000
322857.000000
323767.000000
324672.000000
325586.000000
326467.000000
327306.000000
328131.000000
328952.000000
329828.000000
330752.000000
331683.000000
332646.000000
333598.000000
334529.000000
335444.000000
336354.000000
337233.000000
338092.000000
338926.000000
339734.000000
340579.000000
341666.000000
342680.000000
343604.000000
344443.000000
345226.000000
345979.000000
346746.000000
347583.000000
348496.000000
349414.000000
350306.000000
351172.000000
352017.000000
352918.000000
353916.000000
354853.000000
355729.000000
356585.000000
357455.000000
358383.000000
359360.000000
360308.000000
361229.000000
362151.000000
363086.000000
364161.000000
365276.000000
366319.000000
367269.000000
368127.000000
368934.000000
369701.000000
370435.000000
371150.000000
371867.000000
372657.000000
373456.000000
374257.000000
375077.000000
376299.000000
377418.000000
378439.000000
379377.000000
380265.000000
381148.000000
382023.000000
382917.000000
383882.000000
384904.000000
385858.000000
386780.000000
387676.000000
388606.000000
389664.000000
390762.000000
391771.000000
392725.000000
393654.000000
394567.000000
395481.000000
396378.000000
397296.000000
398232.000000
399105.000000
399968.000000
400846.000000
401863.000000
402887.000000
403850.000000
404784.000000
405704.000000
406624.000000
407540.000000
408421.000000
409276.000000
410128.000000
410963.000000
411815.000000
412768.000000
413699.000000
414581.000000
415394.000000
416148.000000
416906.000000
417734.000000
418613.000000
419538.000000
420438.000000
421302.000000
422138.000000
422959.000000
423812.000000
424739.000000
425683.000000
426598.000000
427486.000000
428373.000000
429246.000000
430127.000000
431033.000000
431934.000000
432828.000000
433695.000000
434555.000000
435418.000000
436333.000000
437317.000000
438277.000000
439213.000000
440132.000000
441036.000000
441902.000000
442753.000000
443643.000000
444557.000000
445507.000000
446414.000000
447282.000000
448119.000000
448928.000000
449705.000000
450521.000000
451577.000000
452571.000000
453492.000000
454324.000000
455095.000000
455848.000000
456639.000000
457477.000000
458362.000000
459261.000000
460148.000000
461014.000000
461854.000000
462665.000000
463488.000000
464443.000000
465415.000000
466340.000000
467235.000000
468109.000000
468974.000000
469857.000000
470732.000000
471569.000000
472403.000000
473268.000000
474186.000000
475116.000000
476056.000000
476976.000000
477889.000000
478781.000000
479656.000000
480502.000000
481342.000000
482158.000000
482998.000000
483944.000000
484889.000000
485824.000000
486734.000000
487637.000000
488533.000000
489436.000000
490301.000000
491151.000000
491989.000000
492830.000000
493856.000000
494885.000000
495773.000000
496568.000000
497336.000000
498128.000000
498974.000000
499864.000000
500779.000000
501712.000000
502635.000000
503556.000000
504457.000000
505363.000000
506276.000000
507175.000000
508035.000000
508879.000000
509693.000000
510497.000000
511382.000000
512442.000000
513410.000000
514357.000000
515273.000000
516194.000000
517124.000000
518108.000000
519100.000000
520130.000000
521092.000000
522012.000000
522915.000000
523812.000000
524754.000000
525945.000000
527058.000000
528025.000000
528881.000000
529669.000000
530447.000000
531300.000000
532262.000000
533262.000000
534280.000000
535214.000000
536114.000000
537007.000000
537867.000000
538837.000000
539881.000000
540933.000000
541945.000000
542944.000000
543913.000000
544886.000000
545868.000000
546848.000000
547835.000000
548855.000000
549887.000000
550873.000000
551783.000000
552647.000000
553496.000000
554365.000000
555988.000000
557152.000000
558169.000000
559126.000000
560063.000000
561010.000000
561952.000000
562862.000000
563708.000000
564492.000000
565269.000000
566135.000000
567010.000000
568047.000000
569167.000000
570097.000000
570973.000000
571942.000000
572982.000000
574044.000000
575079.000000
576194.000000
577284.000000
578253.000000
579161.000000
580044.000000
580990.000000
582041.000000
583063.000000
584064.000000
585097.000000
586136.000000
587134.000000
588119.000000
589062.000000
590034.000000
591013.000000
592019.000000
592978.000000
593891.000000
594759.000000
595631.000000
596653.000000
597798.000000
598870.000000
599873.000000
600836.000000
601793.000000
602752.000000
603712.000000
604662.000000
605588.000000
606532.000000
607515.000000
608565.000000
609563.000000
610482.000000
611387.000000
612314.000000
613289.000000
614316.000000
615361.000000
616395.000000
617344.000000
618248.000000
619128.000000
620101.000000
621139.000000
622109.000000
623003.000000
623811.000000
624612.000000
625422.000000
626197.000000
627070.000000
628115.000000
629104.000000
630028.000000
630904.000000
631784.000000
632804.000000
633803.000000
634765.000000
635710.000000
636665.000000
637630.000000
638582.000000
639565.000000
640552.000000
641546.000000
642520.000000
643440.000000
644328.000000
645201.000000
646078.000000
647111.000000
648149.000000
649154.000000
650109.000000
651050.000000
651971.000000
652885.000000
653776.000000
654696.000000
655623.000000
656611.000000
657589.000000
658514.000000
659406.000000
660286.000000
661178.000000
662126.000000
663166.000000
664231.000000
665254.000000
666231.000000
667144.000000
668046.000000
668941.000000
669865.000000
670799.000000
671758.000000
672681.000000
673582.000000
674470.000000
675394.000000
676357.000000
677333.000000
678251.000000
679159.000000
680011.000000
680797.000000
681566.000000
682388.000000
683351.000000
684278.000000
685265.000000
686304.000000
687307.000000
688249.000000
689191.000000
690122.000000
691074.000000
691994.000000
692904.000000
693838.000000
694802.000000
695752.000000
696635.000000
697486.000000
698319.000000
699185.000000
700408.000000
701519.000000
702539.000000
703443.000000
704314.000000
705193.000000
706085.000000
706996.000000
707915.000000
708872.000000
709777.000000
710664.000000
711557.000000
712515.000000
713517.000000
714478.000000
715460.000000
716422.000000
717350.000000
718252.000000
719161.000000
720073.000000
721024.000000
721930.000000
722786.000000
723597.000000
724355.000000
725147.000000
726021.000000
726896.000000
727724.000000
728544.000000
729396.000000
730602.000000
731678.000000
732640.000000
733554.000000
734466.000000
735352.000000
736242.000000
737113.000000
737982.000000
738937.000000
740234.000000
741369.000000
742398.000000
743381.000000
744317.000000
745207.000000
746079.000000
746937.000000
747918.000000
749057.000000
750153.000000
751231.000000
752273.000000
753277.000000
754197.000000
755099.000000
756021.000000
757094.000000
758129.000000
759058.000000
759930.000000
760759.000000
761537.000000
762372.000000
763491.000000
764523.000000
765472.000000
766340.000000
767295.000000
768346.000000
769385.000000
770374.000000
771358.000000
772289.000000
773185.000000
774071.000000
774928.000000
775812.000000
776761.000000
778147.000000
779334.000000
780490.000000
781633.000000
782725.000000
783674.000000
784573.000000
785489.000000
786497.000000
787634.000000
788770.000000
789856.000000
790915.000000
791983.000000
793036.000000
794064.000000
795069.000000
796021.000000
796932.000000
797876.000000
798943.000000
800069.000000
801174.000000
802195.000000
803195.000000
804195.000000
805130.000000
806025.000000
806878.000000
807684.000000
808485.000000
809954.000000
811088.000000
812106.000000
813079.000000
814091.000000
815113.000000
816132.000000
817094.000000
818079.000000
819055.000000
820029.000000
820957.000000
821873.000000
822824.000000
823849.000000
824922.000000
825918.000000
826900.000000
827881.000000
828888.000000
829837.000000
830743.000000
831666.000000
832639.000000
833597.000000
834550.000000
835608.000000
836777.000000
837805.000000
838709.000000
839600.000000
840523.000000
841521.000000
842476.000000
843382.000000
844269.000000
845216.000000
846445.000000
847547.000000
848601.000000
849659.000000
850710.000000
851721.000000
852720.000000
853758.000000
854801.000000
855743.000000
856635.000000
857500.000000
858297.000000
859135.000000
860296.000000
861323.000000
862314.000000
863328.000000
864342.000000
865270.000000
866144.000000
866973.000000
867797.000000
868725.000000
869750.000000
870738.000000
871735.000000
872755.000000
873685.000000
874562.000000
875436.000000
876329.000000
877218.000000
878171.000000
879345.000000
880295.000000
881114.000000
881920.000000
882846.000000
883820.000000
884754.000000
885623.000000
886611.000000
887699.000000
888738.000000
889711.000000
890637.000000
891543.000000
892432.000000
893299.000000
894141.000000
894968.000000
896008.000000
897042.000000
898029.000000
898980.000000
899866.000000
900683.000000
901464.000000
902228.000000
903095.000000
904664.000000
905782.000000
906819.000000
907792.000000
908690.000000
909632.000000
910610.000000
911608.000000
912484.000000
913270.000000
914109.000000
914967.000000
916321.000000
917446.000000
918483.000000
919510.000000
920509.000000
