ECG (ms)
823.000000
1956.000000
3065.000000
4151.000000
5276.000000
6398.000000
7498.000000
8603.000000
9701.000000
10782.000000
11857.000000
12964.000000
14049.000000
15152.000000
16258.000000
17342.000000
18411.000000
19469.000000
20455.000000
21425.000000
22491.000000
23537.000000
24595.000000
25696.000000
26784.000000
27877.000000
29013.000000
30089.000000
31168.000000
32268.000000
33340.000000
34446.000000
35595.000000
36711.000000
37845.000000
39018.000000
40133.000000
41243.000000
42381.000000
43481.000000
44588.000000
45730.000000
46864.000000
47989.000000
49145.000000
50271.000000
51383.000000
52511.000000
53620.000000
54705.000000
55780.000000
56857.000000
57918.000000
58968.000000
60058.000000
61155.000000
62239.000000
63336.000000
64451.000000
65529.000000
66594.000000
67689.000000
68771.000000
69871.000000
70969.000000
72050.000000
73124.000000
74223.000000
75288.000000
76347.000000
77433.000000
78515.000000
79594.000000
80692.000000
81825.000000
82921.000000
84031.000000
85139.000000
86228.000000
87349.000000
88523.000000
89646.000000
90753.000000
91907.000000
93056.000000
94207.000000
95342.000000
96418.000000
97491.000000
98591.000000
99677.000000
100759.000000
101872.000000
102994.000000
104115.000000
105227.000000
106348.000000
107454.000000
108524.000000
109587.000000
110674.000000
111723.000000
112780.000000
113877.000000
114959.000000
116009.000000
117075.000000
118141.000000
119195.000000
120235.000000
121268.000000
122251.000000
123204.000000
124194.000000
125222.000000
126242.000000
127261.000000
128279.000000
129304.000000
130316.000000
131342.000000
132385.000000
133397.000000
134427.000000
135470.000000
136521.000000
137565.000000
138649.000000
139754.000000
140829.000000
141900.000000
142998.000000
144088.000000
145171.000000
146268.000000
147379.000000
148478.000000
149580.000000
150695.000000
151793.000000
152862.000000
153954.000000
155052.000000
156133.000000
157227.000000
158331.000000
159405.000000
160464.000000
161553.000000
162613.000000
163667.000000
164740.000000
165820.000000
166874.000000
167922.000000
168969.000000
170019.000000
171068.000000
172105.000000
173146.000000
174190.000000
175249.000000
176322.000000
177408.000000
178473.000000
179524.000000
180624.000000
181741.000000
182846.000000
183940.000000
185046.000000
186155.000000
187234.000000
188321.000000
189393.000000
190441.000000
191504.000000
192539.000000
193584.000000
194644.000000
195748.000000
196841.000000
197970.000000
199156.000000
200275.000000
201377.000000
202490.000000
203579.000000
204679.000000
205822.000000
206943.000000
208049.000000
209155.000000
210279.000000
211360.000000
212369.000000
213427.000000
214535.000000
215636.000000
216740.000000
217882.000000
219000.000000
220080.000000
221149.000000
222235.000000
223307.000000
224423.000000
225540.000000
226641.000000
227778.000000
228896.000000
230014.000000
231188.000000
232329.000000
233469.000000
234647.000000
235759.000000
236866.000000
238010.000000
239117.000000
240223.000000
241383.000000
242521.000000
243631.000000
244734.000000
245824.000000
246926.000000
248092.000000
249223.000000
250312.000000
251438.000000
252530.000000
253614.000000
254717.000000
255813.000000
256907.000000
258029.000000
259139.000000
260277.000000
261428.000000
262572.000000
263669.000000
264810.000000
265930.000000
267031.000000
268127.000000
269223.000000
270308.000000
271422.000000
272559.000000
273702.000000
274902.000000
276076.000000
277223.000000
278377.000000
279538.000000
280680.000000
281829.000000
282997.000000
284107.000000
285220.000000
286348.000000
287471.000000
288567.000000
289711.000000
290809.000000
291919.000000
293037.000000
294127.000000
295195.000000
296245.000000
297235.000000
298184.000000
299151.000000
300089.000000
301076.000000
302103.000000
303186.000000
304250.000000
305318.000000
306398.000000
307478.000000
308560.000000
309637.000000
310714.000000
311804.000000
312914.000000
314002.000000
315075.000000
316185.000000
317287.000000
318394.000000
319504.000000
320663.000000
321780.000000
322910.000000
324049.000000
325183.000000
326311.000000
327465.000000
328596.000000
329709.000000
330846.000000
331956.000000
333054.000000
334142.000000
335209.000000
336304.000000
337393.000000
338472.000000
339569.000000
340639.000000
341705.000000
342778.000000
343842.000000
344891.000000
345926.000000
346978.000000
348053.000000
349128.000000
350157.000000
351210.000000
352288.000000
353374.000000
354438.000000
355494.000000
356559.000000
357654.000000
358729.000000
359819.000000
360924.000000
362032.000000
363118.000000
364143.000000
365125.000000
366146.000000
367209.000000
368310.000000
369439.000000
370522.000000
371580.000000
372681.000000
373782.000000
374861.000000
375970.000000
377120.000000
378238.000000
379380.000000
380574.000000
381744.000000
382887.000000
384083.000000
385284.000000
386429.000000
387610.000000
388837.000000
389993.000000
391240.000000
392400.000000
393561.000000
394728.000000
395874.000000
397021.000000
398207.000000
399368.000000
400507.000000
401687.000000
402816.000000
403921.000000
405045.000000
406168.000000
407272.000000
408424.000000
409568.000000
410650.000000
411755.000000
412845.000000
413913.000000
415025.000000
416128.000000
417197.000000
418272.000000
419358.000000
420437.000000
421542.000000
422652.000000
423756.000000
424888.000000
425977.000000
427058.000000
428162.000000
429251.000000
430305.000000
431380.000000
432445.000000
433511.000000
434593.000000
435698.000000
436761.000000
437835.000000
438925.000000
440001.000000
441061.000000
442168.000000
443283.000000
444384.000000
445501.000000
446620.000000
447717.000000
448832.000000
449932.000000
451021.000000
452126.000000
453246.000000
454342.000000
455420.000000
456505.000000
457584.000000
458670.000000
459810.000000
460931.000000
462042.000000
463184.000000
464352.000000
465461.000000
466606.000000
467761.000000
468917.000000
470100.000000
471308.000000
472457.000000
473559.000000
474579.000000
475288.000000
476774.000000
478016.000000
479172.000000
480317.000000
481526.000000
482669.000000
483822.000000
485006.000000
486179.000000
487348.000000
488543.000000
489686.000000
490837.000000
492011.000000
493168.000000
494324.000000
495508.000000
496693.000000
497851.000000
499062.000000
500237.000000
501402.000000
502593.000000
503758.000000
504940.000000
506143.000000
507336.000000
508524.000000
509727.000000
510900.000000
512086.000000
513291.000000
514496.000000
515665.000000
516859.000000
518002.000000
519156.000000
520325.000000
521462.000000
522607.000000
523804.000000
524970.000000
526115.000000
527509.000000
528761.000000
529878.000000
531036.000000
532152.000000
533262.000000
534424.000000
535548.000000
536676.000000
537877.000000
539035.000000
540167.000000
541342.000000
542526.000000
543683.000000
544900.000000
546116.000000
547304.000000
548478.000000
549661.000000
550802.000000
551908.000000
553058.000000
554184.000000
555278.000000
556374.000000
557525.000000
558665.000000
559772.000000
560891.000000
562010.000000
563103.000000
564219.000000
565327.000000
566414.000000
567491.000000
568573.000000
569651.000000
570711.000000
571783.000000
572865.000000
573916.000000
574990.000000
576065.000000
577156.000000
578250.000000
579343.000000
580421.000000
581476.000000
582539.000000
583673.000000
584823.000000
585939.000000
587049.000000
588187.000000
589287.000000
590353.000000
591419.000000
592498.000000
593567.000000
594639.000000
595715.000000
596759.000000
597782.000000
598827.000000
599891.000000
600932.000000
601967.000000
603004.000000
604041.000000
605065.000000
606122.000000
607170.000000
608209.000000
609254.000000
610293.000000
611301.000000
612255.000000
613233.000000
614234.000000
615246.000000
616275.000000
617333.000000
618419.000000
619505.000000
620562.000000
621637.000000
622708.000000
623768.000000
624823.000000
625907.000000
626984.000000
628065.000000
629175.000000
630262.000000
631336.000000
632443.000000
633570.000000
634681.000000
635770.000000
636874.000000
637946.000000
639022.000000
640104.000000
641184.000000
642249.000000
643309.000000
644400.000000
645470.000000
646553.000000
647662.000000
648772.000000
649873.000000
651034.000000
652183.000000
653312.000000
654429.000000
655530.000000
656601.000000
657692.000000
658770.000000
659814.000000
660872.000000
661924.000000
663000.000000
664081.000000
665181.000000
666278.000000
667366.000000
668450.000000
669546.000000
670620.000000
671698.000000
672802.000000
673891.000000
675006.000000
676163.000000
677309.000000
678450.000000
679599.000000
680751.000000
681832.000000
682919.000000
683997.000000
685046.000000
686026.000000
687031.000000
688080.000000
689149.000000
690219.000000
691284.000000
692369.000000
693447.000000
694499.000000
695563.000000
696658.000000
697758.000000
698874.000000
700014.000000
701173.000000
702304.000000
703450.000000
704589.000000
705705.000000
706838.000000
708006.000000
709143.000000
710301.000000
711136.000000
712634.000000
713904.000000
715088.000000
716232.000000
717397.000000
718536.000000
719669.000000
720818.000000
721966.000000
723112.000000
724274.000000
725433.000000
726590.000000
727791.000000
728936.000000
730108.000000
731307.000000
732467.000000
733644.000000
734849.000000
736032.000000
737226.000000
738433.000000
739595.000000
740773.000000
741967.000000
743135.000000
744277.000000
745439.000000
746564.000000
747692.000000
748833.000000
749962.000000
750802.000000
752205.000000
753358.000000
754506.000000
755684.000000
756817.000000
757955.000000
759118.000000
760249.000000
761360.000000
762507.000000
763654.000000
764780.000000
765910.000000
767062.000000
768177.000000
769308.000000
770469.000000
771621.000000
772768.000000
773947.000000
775108.000000
776237.000000
777394.000000
778577.000000
779698.000000
780841.000000
782005.000000
783144.000000
784269.000000
785409.000000
786499.000000
787599.000000
788672.000000
789786.000000
790871.000000
791938.000000
793015.000000
794091.000000
795145.000000
796202.000000
797279.000000
798351.000000
799407.000000
800449.000000
801489.000000
802544.000000
803590.000000
804620.000000
805667.000000
806717.000000
807753.000000
808835.000000
809897.000000
810950.000000
812005.000000
813043.000000
814072.000000
815118.000000
816142.000000
817176.000000
818231.000000
819256.000000
820294.000000
821358.000000
822425.000000
823497.000000
824599.000000
825679.000000
826756.000000
827826.000000
828871.000000
829915.000000
830967.000000
832025.000000
833097.000000
834160.000000
835230.000000
836302.000000
837363.000000
838459.000000
839555.000000
840641.000000
841689.000000
842746.000000
843782.000000
844835.000000
845906.000000
846965.000000
848010.000000
849062.000000
850114.000000
851141.000000
852167.000000
853177.000000
854216.000000
855264.000000
856310.000000
857352.000000
858394.000000
859431.000000
860468.000000
861504.000000
862539.000000
863566.000000
864575.000000
865603.000000
866629.000000
867635.000000
868630.000000
869574.000000
870433.000000
871331.000000
872374.000000
873397.000000
874423.000000
875455.000000
876492.000000
877539.000000
878547.000000
879556.000000
880569.000000
881614.000000
882664.000000
883719.000000
884770.000000
885805.000000
886866.000000
887957.000000
889060.000000
890117.000000
891227.000000
892317.000000
893394.000000
894479.000000
895568.000000
896642.000000
897747.000000
898885.000000
899994.000000
