ECG (ms)
613.000000
1329.000000
2039.000000
2750.000000
3465.000000
4185.000000
4901.000000
5608.000000
6308.000000
7009.000000
7711.000000
8412.000000
9108.000000
9807.000000
10488.000000
11167.000000
11854.000000
12543.000000
13231.000000
13924.000000
14628.000000
15345.000000
16063.000000
16786.000000
17505.000000
18224.000000
18946.000000
19683.000000
20421.000000
21149.000000
21878.000000
22596.000000
23323.000000
24048.000000
24775.000000
25494.000000
26211.000000
26928.000000
27652.000000
28376.000000
29106.000000
29835.000000
30564.000000
31297.000000
32031.000000
32765.000000
33496.000000
34221.000000
34946.000000
35681.000000
36420.000000
37156.000000
37894.000000
38628.000000
39366.000000
40102.000000
40837.000000
41561.000000
42276.000000
42989.000000
43704.000000
44425.000000
45162.000000
45892.000000
46612.000000
47328.000000
48047.000000
48771.000000
49486.000000
50195.000000
50893.000000
51579.000000
52256.000000
52943.000000
53638.000000
54344.000000
55059.000000
55789.000000
56542.000000
57290.000000
58025.000000
58750.000000
59473.000000
60201.000000
60921.000000
61625.000000
62323.000000
63016.000000
63721.000000
64425.000000
65132.000000
65832.000000
66544.000000
67262.000000
67999.000000
68741.000000
69482.000000
70225.000000
70972.000000
71735.000000
72508.000000
73262.000000
74003.000000
74732.000000
75474.000000
76229.000000
76994.000000
77744.000000
78495.000000
79243.000000
79995.000000
80756.000000
81512.000000
82259.000000
82998.000000
83747.000000
84506.000000
85253.000000
85995.000000
86730.000000
87478.000000
88237.000000
88993.000000
89752.000000
90495.000000
91232.000000
91974.000000
92713.000000
93447.000000
94165.000000
94863.000000
95561.000000
96272.000000
96993.000000
97713.000000
98429.000000
99156.000000
99906.000000
100666.000000
101402.000000
102125.000000
102842.000000
103568.000000
104293.000000
105012.000000
105719.000000
106424.000000
107128.000000
107845.000000
108569.000000
109286.000000
110001.000000
110720.000000
111448.000000
112181.000000
112922.000000
113646.000000
114359.000000
115084.000000
115813.000000
116551.000000
117274.000000
118001.000000
118732.000000
119473.000000
120212.000000
120963.000000
121703.000000
122426.000000
123146.000000
123863.000000
124593.000000
125339.000000
126064.000000
126775.000000
127466.000000
128159.000000
128869.000000
129576.000000
130274.000000
130973.000000
131689.000000
132429.000000
133169.000000
133907.000000
134630.000000
135348.000000
136069.000000
136795.000000
137524.000000
138259.000000
138990.000000
139713.000000
140443.000000
141177.000000
141915.000000
142643.000000
143369.000000
144092.000000
144825.000000
145568.000000
146322.000000
147072.000000
147807.000000
148543.000000
149283.000000
150041.000000
150788.000000
151525.000000
152257.000000
152991.000000
153724.000000
154464.000000
155207.000000
155926.000000
156640.000000
157357.000000
158084.000000
158800.000000
159501.000000
160195.000000
160876.000000
161570.000000
162282.000000
163000.000000
163722.000000
164447.000000
165190.000000
165957.000000
166721.000000
167479.000000
168222.000000
168946.000000
169670.000000
170398.000000
171129.000000
171860.000000
172587.000000
173305.000000
174027.000000
174763.000000
175500.000000
176235.000000
176960.000000
177681.000000
178402.000000
179123.000000
179849.000000
180573.000000
181297.000000
182022.000000
182749.000000
183488.000000
184215.000000
184932.000000
185628.000000
186322.000000
187030.000000
187734.000000
188435.000000
189134.000000
189848.000000
190586.000000
191329.000000
192068.000000
192797.000000
193516.000000
194237.000000
194965.000000
195690.000000
196413.000000
197124.000000
197827.000000
198541.000000
199270.000000
200017.000000
200774.000000
201531.000000
202288.000000
203024.000000
203758.000000
204499.000000
205247.000000
206000.000000
206751.000000
207499.000000
208253.000000
209022.000000
209791.000000
210569.000000
211336.000000
212089.000000
212837.000000
213594.000000
214356.000000
215116.000000
215859.000000
216593.000000
217336.000000
218088.000000
218840.000000
219577.000000
220315.000000
221061.000000
221807.000000
222554.000000
223292.000000
224018.000000
224753.000000
225481.000000
226213.000000
226934.000000
227656.000000
228372.000000
229097.000000
229820.000000
230558.000000
231287.000000
232008.000000
232731.000000
233456.000000
234175.000000
234884.000000
235571.000000
236259.000000
236955.000000
237655.000000
238358.000000
239066.000000
239792.000000
240531.000000
241259.000000
241979.000000
242690.000000
243408.000000
244123.000000
244834.000000
245532.000000
246224.000000
246919.000000
247614.000000
248324.000000
249036.000000
249747.000000
250459.000000
251182.000000
251911.000000
252642.000000
253367.000000
254094.000000
254831.000000
255583.000000
256346.000000
257103.000000
257845.000000
258577.000000
259321.000000
260080.000000
260834.000000
261574.000000
262302.000000
263022.000000
263745.000000
264476.000000
265211.000000
265940.000000
266664.000000
267388.000000
268124.000000
268858.000000
269593.000000
270328.000000
271061.000000
271800.000000
272546.000000
273285.000000
274019.000000
274753.000000
275491.000000
276239.000000
276983.000000
277713.000000
278440.000000
279176.000000
279917.000000
280664.000000
281412.000000
282150.000000
282887.000000
283629.000000
284379.000000
285124.000000
285859.000000
286589.000000
287320.000000
288056.000000
288803.000000
289557.000000
290305.000000
291046.000000
291788.000000
292537.000000
293282.000000
294019.000000
294748.000000
295467.000000
296197.000000
296940.000000
297687.000000
298438.000000
299181.000000
299917.000000
300650.000000
301381.000000
302111.000000
302827.000000
303524.000000
304219.000000
304932.000000
305649.000000
306371.000000
307094.000000
307830.000000
308581.000000
309340.000000
310085.000000
310815.000000
311532.000000
312246.000000
312963.000000
313680.000000
314385.000000
315084.000000
315789.000000
316502.000000
317218.000000
317932.000000
318638.000000
319343.000000
320059.000000
320785.000000
321514.000000
322252.000000
322985.000000
323717.000000
324452.000000
325196.000000
325950.000000
326697.000000
327447.000000
328205.000000
328969.000000
329724.000000
330476.000000
331216.000000
331946.000000
332686.000000
333434.000000
334195.000000
334943.000000
335683.000000
336424.000000
337163.000000
337897.000000
338630.000000
339344.000000
340048.000000
340752.000000
341457.000000
342167.000000
342870.000000
343576.000000
344296.000000
345022.000000
345759.000000
346488.000000
347206.000000
347918.000000
348629.000000
349342.000000
350060.000000
350768.000000
351475.000000
352172.000000
352882.000000
353609.000000
354334.000000
355057.000000
355766.000000
356473.000000
357185.000000
357893.000000
358590.000000
359282.000000
359980.000000
360674.000000
361361.000000
362035.000000
362714.000000
363408.000000
364109.000000
364818.000000
365518.000000
366222.000000
366936.000000
367661.000000
368388.000000
369106.000000
369818.000000
370538.000000
371277.000000
372016.000000
372754.000000
373483.000000
374207.000000
374939.000000
375679.000000
376425.000000
377177.000000
377916.000000
378640.000000
379360.000000
380090.000000
380829.000000
381584.000000
382327.000000
383066.000000
383807.000000
384560.000000
385317.000000
386061.000000
386802.000000
387535.000000
388266.000000
389003.000000
389747.000000
390498.000000
391261.000000
392039.000000
392822.000000
393595.000000
394365.000000
395118.000000
395860.000000
396608.000000
397369.000000
398132.000000
398877.000000
399620.000000
400362.000000
401102.000000
401831.000000
402559.000000
403270.000000
403974.000000
404682.000000
405390.000000
406094.000000
406798.000000
407488.000000
408188.000000
408907.000000
409627.000000
410337.000000
411052.000000
411780.000000
412520.000000
413257.000000
413983.000000
414695.000000
415406.000000
416136.000000
416869.000000
417592.000000
418319.000000
419048.000000
419784.000000
420527.000000
421277.000000
422013.000000
422739.000000
423474.000000
424218.000000
424971.000000
425725.000000
426464.000000
427193.000000
427919.000000
428656.000000
429407.000000
430158.000000
430909.000000
431648.000000
432383.000000
433131.000000
433884.000000
434643.000000
435400.000000
436148.000000
436886.000000
437623.000000
438365.000000
439106.000000
439843.000000
440581.000000
441320.000000
442061.000000
442801.000000
443534.000000
444261.000000
444996.000000
445747.000000
446508.000000
447256.000000
447991.000000
448720.000000
449460.000000
450205.000000
450960.000000
451708.000000
452448.000000
453184.000000
453930.000000
454691.000000
455459.000000
456209.000000
456945.000000
457681.000000
458419.000000
459158.000000
459911.000000
460649.000000
461381.000000
462114.000000
462852.000000
463595.000000
464333.000000
465068.000000
465793.000000
466521.000000
467272.000000
468027.000000
468768.000000
469508.000000
470243.000000
470988.000000
471745.000000
472520.000000
473286.000000
474031.000000
474770.000000
475527.000000
476283.000000
477045.000000
477795.000000
478544.000000
479279.000000
480033.000000
480800.000000
481569.000000
482337.000000
483095.000000
483844.000000
484599.000000
485361.000000
486129.000000
486890.000000
487653.000000
488429.000000
489213.000000
489996.000000
490776.000000
491539.000000
492286.000000
493029.000000
493781.000000
494550.000000
495312.000000
496072.000000
496821.000000
497582.000000
498353.000000
499121.000000
499907.000000
500676.000000
501432.000000
502177.000000
502941.000000
503722.000000
504502.000000
505270.000000
506029.000000
506791.000000
507547.000000
508287.000000
509012.000000
509722.000000
510429.000000
511153.000000
511877.000000
512603.000000
513334.000000
514077.000000
514828.000000
515576.000000
516314.000000
517047.000000
517785.000000
518534.000000
519286.000000
520029.000000
520770.000000
521511.000000
522257.000000
523009.000000
523760.000000
524513.000000
525261.000000
526025.000000
526796.000000
527567.000000
528330.000000
529088.000000
529857.000000
530640.000000
531427.000000
532215.000000
532999.000000
533770.000000
534543.000000
535332.000000
536125.000000
536925.000000
537714.000000
538503.000000
539298.000000
540105.000000
540911.000000
541686.000000
542457.000000
543228.000000
544019.000000
544817.000000
545605.000000
546392.000000
547171.000000
547951.000000
548717.000000
549473.000000
550220.000000
550952.000000
551691.000000
552446.000000
553215.000000
553984.000000
554748.000000
555502.000000
556269.000000
557048.000000
557828.000000
558597.000000
559355.000000
560108.000000
560857.000000
561605.000000
562354.000000
563100.000000
563830.000000
564561.000000
565301.000000
566059.000000
566815.000000
567572.000000
568328.000000
569104.000000
569894.000000
570688.000000
571457.000000
572207.000000
572947.000000
573688.000000
574436.000000
575202.000000
575973.000000
576733.000000
577498.000000
578270.000000
579044.000000
579813.000000
580577.000000
581340.000000
582099.000000
582863.000000
583626.000000
584373.000000
585096.000000
585811.000000
586528.000000
587239.000000
587944.000000
588654.000000
589364.000000
590092.000000
590828.000000
591556.000000
592273.000000
592995.000000
593719.000000
594451.000000
595172.000000
595882.000000
596595.000000
597325.000000
598069.000000
598816.000000
599560.000000
600302.000000
601061.000000
601846.000000
602642.000000
603441.000000
604224.000000
605008.000000
605803.000000
606612.000000
607420.000000
608209.000000
608978.000000
609753.000000
610528.000000
611318.000000
612089.000000
612848.000000
613601.000000
614363.000000
615140.000000
615919.000000
616681.000000
617468.000000
618243.000000
619022.000000
619808.000000
620600.000000
621379.000000
622148.000000
622908.000000
623680.000000
624454.000000
625232.000000
626000.000000
626755.000000
627512.000000
628269.000000
628688.000000
629690.000000
630434.000000
631160.000000
631883.000000
632613.000000
633352.000000
634103.000000
634840.000000
635585.000000
636345.000000
637125.000000
637901.000000
638686.000000
639466.000000
640251.000000
641044.000000
641823.000000
642606.000000
643381.000000
644155.000000
644927.000000
645684.000000
646434.000000
647167.000000
647902.000000
648650.000000
649402.000000
650141.000000
650872.000000
651613.000000
652360.000000
653117.000000
653868.000000
654610.000000
655352.000000
656100.000000
656830.000000
657546.000000
658244.000000
658942.000000
659651.000000
660368.000000
661088.000000
661808.000000
662547.000000
663279.000000
664003.000000
664713.000000
665425.000000
666148.000000
666873.000000
667601.000000
668316.000000
669020.000000
669728.000000
670432.000000
671139.000000
671872.000000
672613.000000
673375.000000
674140.000000
674912.000000
675724.000000
676553.000000
677385.000000
678209.000000
679010.000000
679829.000000
680643.000000
681456.000000
682253.000000
683041.000000
683826.000000
684626.000000
685435.000000
686233.000000
687021.000000
687803.000000
688597.000000
689403.000000
690217.000000
691019.000000
691816.000000
692592.000000
693355.000000
694118.000000
694896.000000
695679.000000
696447.000000
697203.000000
697960.000000
698733.000000
699512.000000
700285.000000
701040.000000
701787.000000
702542.000000
703310.000000
704074.000000
704831.000000
705588.000000
706342.000000
707118.000000
707903.000000
708727.000000
709527.000000
710308.000000
711077.000000
711840.000000
712613.000000
713410.000000
714204.000000
714994.000000
715774.000000
716555.000000
717337.000000
718113.000000
718883.000000
719647.000000
720425.000000
721207.000000
721992.000000
722787.000000
723566.000000
724333.000000
725090.000000
725859.000000
726638.000000
727451.000000
728259.000000
728876.000000
729876.000000
730669.000000
731472.000000
732280.000000
733075.000000
733855.000000
734631.000000
735410.000000
736198.000000
736988.000000
737765.000000
738524.000000
739268.000000
740008.000000
740737.000000
741450.000000
742151.000000
742845.000000
743539.000000
744236.000000
744936.000000
745647.000000
746374.000000
747120.000000
747872.000000
748619.000000
749362.000000
750107.000000
750854.000000
751613.000000
752360.000000
753101.000000
753849.000000
754615.000000
755386.000000
756164.000000
756925.000000
757679.000000
758448.000000
759258.000000
760062.000000
760852.000000
761633.000000
762399.000000
763177.000000
763964.000000
764760.000000
765544.000000
766311.000000
767074.000000
767841.000000
768621.000000
769390.000000
770152.000000
770904.000000
771652.000000
772421.000000
773205.000000
773970.000000
774731.000000
775498.000000
776273.000000
777035.000000
777790.000000
778533.000000
779284.000000
780046.000000
780808.000000
781580.000000
782340.000000
783085.000000
783814.000000
784545.000000
785282.000000
786030.000000
786783.000000
787533.000000
788277.000000
789014.000000
789762.000000
790514.000000
791271.000000
792020.000000
792774.000000
793529.000000
794270.000000
795009.000000
795759.000000
796526.000000
797285.000000
798037.000000
798787.000000
799553.000000
800319.000000
801078.000000
801831.000000
802577.000000
803328.000000
804095.000000
804862.000000
805635.000000
806404.000000
807181.000000
807954.000000
808733.000000
809513.000000
810283.000000
811047.000000
811810.000000
812581.000000
813367.000000
814139.000000
814906.000000
815673.000000
816452.000000
817231.000000
818000.000000
818744.000000
819479.000000
820222.000000
820971.000000
821745.000000
822527.000000
823309.000000
824083.000000
824848.000000
825612.000000
826389.000000
827178.000000
827951.000000
828711.000000
829456.000000
830212.000000
830977.000000
831753.000000
832514.000000
833259.000000
834014.000000
834779.000000
835547.000000
836320.000000
837086.000000
837858.000000
838636.000000
839418.000000
840207.000000
841001.000000
841801.000000
842618.000000
843420.000000
844197.000000
844969.000000
845747.000000
846551.000000
847360.000000
848156.000000
848931.000000
849703.000000
850462.000000
851219.000000
851971.000000
852716.000000
853449.000000
854186.000000
854937.000000
855679.000000
856406.000000
857117.000000
857832.000000
858557.000000
859287.000000
860010.000000
860745.000000
861492.000000
862250.000000
862999.000000
863741.000000
864477.000000
865221.000000
865973.000000
866717.000000
867456.000000
868190.000000
868920.000000
869661.000000
870412.000000
871164.000000
871911.000000
872668.000000
873434.000000
874216.000000
875005.000000
875777.000000
876541.000000
877316.000000
878106.000000
878910.000000
879703.000000
880488.000000
881273.000000
882068.000000
882914.000000
883748.000000
884570.000000
885365.000000
886140.000000
886899.000000
887666.000000
888442.000000
889226.000000
889989.000000
890764.000000
891541.000000
892318.000000
893090.000000
893858.000000
894631.000000
895388.000000
896144.000000
896910.000000
897675.000000
898434.000000
899184.000000
899925.000000
900658.000000
901410.000000
902183.000000
902961.000000
903724.000000
904475.000000
905211.000000
905943.000000
906680.000000
907422.000000
908153.000000
908879.000000
909606.000000
910336.000000
911086.000000
911843.000000
912610.000000
913368.000000
914137.000000
914922.000000
915718.000000
916511.000000
917296.000000
918064.000000
918816.000000
919583.000000
920356.000000
921144.000000
921917.000000
922677.000000
923427.000000
924178.000000
924934.000000
925680.000000
926425.000000
927160.000000
927903.000000
928650.000000
929395.000000
930139.000000
930867.000000
931591.000000
932323.000000
933065.000000
933788.000000
934499.000000
935199.000000
935913.000000
936637.000000
937361.000000
938092.000000
938843.000000
939614.000000
940393.000000
941162.000000
941933.000000
942702.000000
943472.000000
944245.000000
945018.000000
945802.000000
946563.000000
947323.000000
948111.000000
948911.000000
949717.000000
950514.000000
951306.000000
952093.000000
952884.000000
953679.000000
954467.000000
955233.000000
955986.000000
956733.000000
957475.000000
958219.000000
958956.000000
959689.000000
960417.000000
961146.000000
961895.000000
962643.000000
963391.000000
964133.000000
964868.000000
965611.000000
966369.000000
967137.000000
967906.000000
968668.000000
969419.000000
970182.000000
970962.000000
971742.000000
972512.000000
973272.000000
974023.000000
974782.000000
975554.000000
976331.000000
977110.000000
977902.000000
978694.000000
979499.000000
980309.000000
981108.000000
981891.000000
982661.000000
983435.000000
984216.000000
985007.000000
985783.000000
986552.000000
987317.000000
988096.000000
988879.000000
989657.000000
990438.000000
991210.000000
991971.000000
992735.000000
993517.000000
994294.000000
995059.000000
995813.000000
996573.000000
997340.000000
998112.000000
998872.000000
999624.000000
1000354.000000
1001092.000000
1001836.000000
1002593.000000
1003344.000000
1004095.000000
1004845.000000
1005610.000000
1006393.000000
1007180.000000
1007960.000000
1008728.000000
1009507.000000
1010282.000000
1011046.000000
1011817.000000
1012584.000000
1013340.000000
1014091.000000
1014842.000000
1015614.000000
1016391.000000
1017156.000000
1017907.000000
1018648.000000
1019385.000000
1020115.000000
1020829.000000
1021531.000000
1022227.000000
1022934.000000
1023648.000000
1024370.000000
1025103.000000
1025855.000000
1026623.000000
1027395.000000
1028156.000000
1028912.000000
1029659.000000
1030418.000000
1031193.000000
1031962.000000
1032710.000000
1033441.000000
1034182.000000
1034935.000000
1035702.000000
1036477.000000
1037249.000000
1038009.000000
1038784.000000
1039559.000000
1040342.000000
1041129.000000
1041919.000000
1042698.000000
1043476.000000
1044255.000000
1045035.000000
1045799.000000
1046563.000000
1047347.000000
1048140.000000
1048946.000000
1049743.000000
1050517.000000
1051276.000000
1052028.000000
1052790.000000
1053569.000000
1054363.000000
1055137.000000
1055911.000000
1056682.000000
1057466.000000
1058266.000000
1059064.000000
1059850.000000
1060613.000000
1061363.000000
1062113.000000
1062868.000000
1063628.000000
1064387.000000
1065150.000000
1065916.000000
1066698.000000
1067474.000000
1068265.000000
1069051.000000
1069825.000000
1070599.000000
1071397.000000
1072205.000000
1073020.000000
1073855.000000
1074672.000000
1075468.000000
1076250.000000
1077025.000000
1077801.000000
1078584.000000
1079364.000000
1080127.000000
1080876.000000
1081617.000000
1082362.000000
1083109.000000
1083852.000000
1084592.000000
1085336.000000
1086078.000000
1086837.000000
1087603.000000
1088374.000000
1089147.000000
1089919.000000
1090693.000000
1091477.000000
1092260.000000
1093032.000000
1093792.000000
1094547.000000
1095316.000000
1096092.000000
1096867.000000
1097630.000000
1098385.000000
1099138.000000
1099897.000000
1100663.000000
1101425.000000
1102173.000000
1102914.000000
1103674.000000
1104439.000000
1105216.000000
1105983.000000
1106743.000000
1107513.000000
1108296.000000
1109100.000000
1109891.000000
1110661.000000
1111437.000000
1112224.000000
1113018.000000
1113810.000000
1114594.000000
1115359.000000
1116122.000000
1116891.000000
1117658.000000
1118425.000000
1119180.000000
1119935.000000
1120700.000000
1121482.000000
1122280.000000
1123073.000000
1123521.000000
1124479.000000
1125223.000000
1125975.000000
1126738.000000
1127503.000000
1128263.000000
1129031.000000
1129799.000000
1130594.000000
1131410.000000
1132251.000000
1133052.000000
1133829.000000
1134582.000000
1135325.000000
1136083.000000
1136858.000000
1137621.000000
1138372.000000
1139111.000000
1139838.000000
1140575.000000
1141316.000000
1142046.000000
1142762.000000
1143465.000000
1144166.000000
1144869.000000
1145576.000000
1146289.000000
1147015.000000
1147757.000000
1148513.000000
1149265.000000
1150011.000000
1150749.000000
1151492.000000
1152249.000000
1153005.000000
1153759.000000
1154503.000000
1155253.000000
1156019.000000
1156794.000000
1157567.000000
1158332.000000
1159099.000000
1159872.000000
1160649.000000
1161432.000000
1162203.000000
1162976.000000
1163738.000000
1164515.000000
1165310.000000
1166107.000000
1166899.000000
1167681.000000
1168476.000000
1169269.000000
1170067.000000
1170857.000000
1171629.000000
1172393.000000
1173163.000000
1173950.000000
1174762.000000
1175570.000000
1176366.000000
1177151.000000
1177922.000000
1178703.000000
1179492.000000
1180292.000000
1181082.000000
1181850.000000
1182599.000000
1183354.000000
1184117.000000
1184890.000000
1185646.000000
1186398.000000
1187144.000000
1187898.000000
1188657.000000
1189415.000000
1190162.000000
1190909.000000
1191654.000000
1192411.000000
1193173.000000
1193926.000000
1194668.000000
1195403.000000
1196127.000000
1196840.000000
1197572.000000
1198328.000000
1199100.000000
1199868.000000
1200614.000000
1201353.000000
1202089.000000
1202802.000000
1203517.000000
1204254.000000
1205031.000000
1205814.000000
1206595.000000
1207390.000000
1208217.000000
1209061.000000
1209906.000000
1210732.000000
1211546.000000
1212364.000000
1213168.000000
1213971.000000
1214757.000000
