ECG (ms)
203.000000
1423.000000
2760.000000
4058.000000
5272.000000
6456.000000
7627.000000
8812.000000
9987.000000
11193.000000
12389.000000
13578.000000
14754.000000
15854.000000
16980.000000
18037.000000
19184.000000
20253.000000
21369.000000
22450.000000
23624.000000
24723.000000
25849.000000
26952.000000
28102.000000
29331.000000
30510.000000
31690.000000
32816.000000
33975.000000
35093.000000
36244.000000
37349.000000
38542.000000
39700.000000
40853.000000
41943.000000
43048.000000
44119.000000
45253.000000
46354.000000
47509.000000
48624.000000
49819.000000
50992.000000
52160.000000
53251.000000
54381.000000
55468.000000
56602.000000
57730.000000
58914.000000
60056.000000
61209.000000
62324.000000
63497.000000
64590.000000
65748.000000
66959.000000
68155.000000
69302.000000
70471.000000
71638.000000
72773.000000
73972.000000
75112.000000
76270.000000
77388.000000
78529.000000
79628.000000
80761.000000
81864.000000
83015.000000
84190.000000
85357.000000
86463.000000
87588.000000
88637.000000
89824.000000
90973.000000
92169.000000
93305.000000
94456.000000
95534.000000
96690.000000
97799.000000
98995.000000
100207.000000
101440.000000
102625.000000
103795.000000
105010.000000
106192.000000
107320.000000
108293.000000
109282.000000
110225.000000
111461.000000
112683.000000
114008.000000
115198.000000
116433.000000
117536.000000
118674.000000
119771.000000
120899.000000
121993.000000
123157.000000
124230.000000
125378.000000
126468.000000
127608.000000
128721.000000
129880.000000
130979.000000
132118.000000
133263.000000
134431.000000
135503.000000
136637.000000
137706.000000
138858.000000
139929.000000
141092.000000
142203.000000
143536.000000
144788.000000
146047.000000
147212.000000
148386.000000
149503.000000
150637.000000
151676.000000
152740.000000
153792.000000
154903.000000
155980.000000
157131.000000
158261.000000
159431.000000
160578.000000
161671.000000
162728.000000
163811.000000
164869.000000
165953.000000
167039.000000
168080.000000
169177.000000
170261.000000
171426.000000
172486.000000
173515.000000
174536.000000
175587.000000
176594.000000
177662.000000
178872.000000
180034.000000
181255.000000
182403.000000
183511.000000
184563.000000
185644.000000
186708.000000
187837.000000
188948.000000
190133.000000
191295.000000
192436.000000
193543.000000
194648.000000
195777.000000
196873.000000
198068.000000
199196.000000
200229.000000
201185.000000
202167.000000
203162.000000
204103.000000
205019.000000
205930.000000
206905.000000
207875.000000
208819.000000
209716.000000
210651.000000
211608.000000
212609.000000
213604.000000
214643.000000
215650.000000
216676.000000
217712.000000
218756.000000
219833.000000
220827.000000
221906.000000
223663.000000
224864.000000
225982.000000
227066.000000
228122.000000
229198.000000
230351.000000
231495.000000
232686.000000
233884.000000
235093.000000
236244.000000
237357.000000
238533.000000
239705.000000
240827.000000
241926.000000
243061.000000
244179.000000
245296.000000
246391.000000
247484.000000
248591.000000
249651.000000
250777.000000
251960.000000
253080.000000
254253.000000
255370.000000
256492.000000
257612.000000
258760.000000
259865.000000
260991.000000
262194.000000
263293.000000
264456.000000
265558.000000
266662.000000
267754.000000
268818.000000
269875.000000
270935.000000
271982.000000
273152.000000
274261.000000
275407.000000
276513.000000
277595.000000
278617.000000
279629.000000
280635.000000
281669.000000
282667.000000
283705.000000
284740.000000
285809.000000
286838.000000
287945.000000
289032.000000
290126.000000
291147.000000
292203.000000
293240.000000
294318.000000
295383.000000
296452.000000
297477.000000
298538.000000
299569.000000
300625.000000
301641.000000
302692.000000
303786.000000
304917.000000
305997.000000
307026.000000
307989.000000
309059.000000
310083.000000
311133.000000
312138.000000
313207.000000
314260.000000
315410.000000
316476.000000
317545.000000
318560.000000
319625.000000
320644.000000
321714.000000
322734.000000
323777.000000
324804.000000
325878.000000
326892.000000
327961.000000
329012.000000
330070.000000
331076.000000
332153.000000
333199.000000
334247.000000
335269.000000
336322.000000
337378.000000
338450.000000
339490.000000
340563.000000
341557.000000
342588.000000
343572.000000
344581.000000
345564.000000
346570.000000
347586.000000
348613.000000
349550.000000
350446.000000
351309.000000
352164.000000
353120.000000
354114.000000
355188.000000
356245.000000
357334.000000
358389.000000
359447.000000
360471.000000
361477.000000
362571.000000
363691.000000
364797.000000
365861.000000
366968.000000
368049.000000
369092.000000
370143.000000
371234.000000
372258.000000
373275.000000
374303.000000
375428.000000
376479.000000
377534.000000
378558.000000
379604.000000
380699.000000
381820.000000
382932.000000
383945.000000
384965.000000
386038.000000
387089.000000
388123.000000
389191.000000
390252.000000
391270.000000
392266.000000
393270.000000
394264.000000
395261.000000
396294.000000
397376.000000
398441.000000
399477.000000
400568.000000
401678.000000
402783.000000
403869.000000
405106.000000
406310.000000
407583.000000
408676.000000
409728.000000
410835.000000
411914.000000
413013.000000
414156.000000
415276.000000
416444.000000
417608.000000
418756.000000
419853.000000
420992.000000
422117.000000
423203.000000
424355.000000
425547.000000
426702.000000
427885.000000
429031.000000
430203.000000
431331.000000
432470.000000
433505.000000
434639.000000
435914.000000
437243.000000
438438.000000
439648.000000
440843.000000
442073.000000
443260.000000
444476.000000
445575.000000
446712.000000
447867.000000
449071.000000
450317.000000
451644.000000
452898.000000
454100.000000
455187.000000
456231.000000
457873.000000
459029.000000
460113.000000
461195.000000
462256.000000
463281.000000
464315.000000
465367.000000
466479.000000
467595.000000
468681.000000
469780.000000
470858.000000
471993.000000
473055.000000
474144.000000
475216.000000
476305.000000
477405.000000
478546.000000
479773.000000
480931.000000
482045.000000
483081.000000
484093.000000
485179.000000
486262.000000
487386.000000
488534.000000
489588.000000
490610.000000
491663.000000
492637.000000
493649.000000
494631.000000
495711.000000
496785.000000
497791.000000
498905.000000
499997.000000
501138.000000
502203.000000
503288.000000
504298.000000
505320.000000
506316.000000
507342.000000
508351.000000
509394.000000
510420.000000
511433.000000
512431.000000
513440.000000
514417.000000
515451.000000
516457.000000
517480.000000
518482.000000
519521.000000
520541.000000
521633.000000
522667.000000
523720.000000
524729.000000
525798.000000
526837.000000
527893.000000
528999.000000
530044.000000
531149.000000
532185.000000
533244.000000
534273.000000
535342.000000
536378.000000
537456.000000
538529.000000
539632.000000
540667.000000
541740.000000
542795.000000
543845.000000
544952.000000
546030.000000
547130.000000
548179.000000
549277.000000
550323.000000
551394.000000
552452.000000
553550.000000
554634.000000
555711.000000
556820.000000
557897.000000
559040.000000
560145.000000
561362.000000
562514.000000
563680.000000
564890.000000
566051.000000
567226.000000
568351.000000
569524.000000
570636.000000
571818.000000
572974.000000
574110.000000
575243.000000
576380.000000
577526.000000
578633.000000
579780.000000
580896.000000
582014.000000
583106.000000
584197.000000
585364.000000
586460.000000
587606.000000
588760.000000
589929.000000
591068.000000
592126.000000
593858.000000
595009.000000
596057.000000
597185.000000
598314.000000
599422.000000
600524.000000
601635.000000
602844.000000
604034.000000
605220.000000
606433.000000
607581.000000
608747.000000
609864.000000
610997.000000
612093.000000
613206.000000
614306.000000
615484.000000
616645.000000
617876.000000
619046.000000
620207.000000
621302.000000
622407.000000
623453.000000
624552.000000
625617.000000
626635.000000
627734.000000
628818.000000
629966.000000
631117.000000
632218.000000
633316.000000
634356.000000
635439.000000
636509.000000
637636.000000
638620.000000
639579.000000
640494.000000
641383.000000
642384.000000
643297.000000
644213.000000
645161.000000
646067.000000
647038.000000
647980.000000
648913.000000
649957.000000
650967.000000
651989.000000
652976.000000
654000.000000
655029.000000
656136.000000
657255.000000
658456.000000
659627.000000
660861.000000
662001.000000
663140.000000
664218.000000
665358.000000
666452.000000
667633.000000
668780.000000
669955.000000
671078.000000
672212.000000
673287.000000
674390.000000
675486.000000
676573.000000
677662.000000
678803.000000
679885.000000
681025.000000
682149.000000
683265.000000
684314.000000
685345.000000
686310.000000
687365.000000
688364.000000
689474.000000
690573.000000
691843.000000
693101.000000
694296.000000
695427.000000
696530.000000
697647.000000
698679.000000
699832.000000
700979.000000
702262.000000
703447.000000
704641.000000
705837.000000
707042.000000
708185.000000
709333.000000
710460.000000
711531.000000
712548.000000
713648.000000
714695.000000
715876.000000
717055.000000
718297.000000
719492.000000
720720.000000
721871.000000
723003.000000
724125.000000
725252.000000
726347.000000
727413.000000
728483.000000
729584.000000
730721.000000
731912.000000
733060.000000
734223.000000
735304.000000
736320.000000
737306.000000
738291.000000
739393.000000
740473.000000
741687.000000
742710.000000
743787.000000
744856.000000
746052.000000
747137.000000
748276.000000
749427.000000
750603.000000
751684.000000
752791.000000
753863.000000
754983.000000
756113.000000
757328.000000
758512.000000
759734.000000
760867.000000
762039.000000
763267.000000
764558.000000
765826.000000
767197.000000
768495.000000
769813.000000
771007.000000
772132.000000
773289.000000
774381.000000
775537.000000
776652.000000
777956.000000
779193.000000
780474.000000
781642.000000
782838.000000
784042.000000
785240.000000
786389.000000
787606.000000
788751.000000
789764.000000
791211.000000
792358.000000
793485.000000
794617.000000
795734.000000
796876.000000
798031.000000
799124.000000
800273.000000
801408.000000
802575.000000
803765.000000
804987.000000
806205.000000
807299.000000
808317.000000
809294.000000
810300.000000
811549.000000
812841.000000
814051.000000
815255.000000
816448.000000
817633.000000
818844.000000
820102.000000
821293.000000
822499.000000
823727.000000
824966.000000
826098.000000
827254.000000
828374.000000
829444.000000
830719.000000
831975.000000
833150.000000
834263.000000
835430.000000
836559.000000
837719.000000
838811.000000
839944.000000
841019.000000
842145.000000
843217.000000
844383.000000
845497.000000
846707.000000
847868.000000
848985.000000
850072.000000
851090.000000
852095.000000
853089.000000
854181.000000
855288.000000
856409.000000
857527.000000
858591.000000
859716.000000
860770.000000
861825.000000
862864.000000
863910.000000
864934.000000
865999.000000
867049.000000
868128.000000
869175.000000
870257.000000
871300.000000
872384.000000
873446.000000
874529.000000
875579.000000
876690.000000
877799.000000
878892.000000
879998.000000
881090.000000
882204.000000
883293.000000
884385.000000
885414.000000
886461.000000
887471.000000
888496.000000
889545.000000
890592.000000
891593.000000
892624.000000
893679.000000
894769.000000
895765.000000
896698.000000
897687.000000
898630.000000
899525.000000
900364.000000
901227.000000
902240.000000
903287.000000
904354.000000
905466.000000
906458.000000
907428.000000
908375.000000
909313.000000
910249.000000
911292.000000
912389.000000
913492.000000
914536.000000
915563.000000
916570.000000
917555.000000
918581.000000
919662.000000
920688.000000
921665.000000
922623.000000
923568.000000
924656.000000
