ECG (ms)
417.000000
1107.000000
1813.000000
2517.000000
3233.000000
3959.000000
4694.000000
5437.000000
6181.000000
6923.000000
7658.000000
8395.000000
9121.000000
9839.000000
10541.000000
11246.000000
11979.000000
12720.000000
13469.000000
14211.000000
14941.000000
15667.000000
16389.000000
17113.000000
17824.000000
18525.000000
19200.000000
19842.000000
20467.000000
21098.000000
21755.000000
22437.000000
23136.000000
23850.000000
24581.000000
25320.000000
26051.000000
26753.000000
27441.000000
28125.000000
28799.000000
29481.000000
30175.000000
30881.000000
31592.000000
32297.000000
33018.000000
33746.000000
34475.000000
35187.000000
35881.000000
36579.000000
37269.000000
37955.000000
38631.000000
39306.000000
39985.000000
40666.000000
41349.000000
42044.000000
42753.000000
43468.000000
44180.000000
44887.000000
45593.000000
46291.000000
46990.000000
47676.000000
48374.000000
49068.000000
49756.000000
50438.000000
51125.000000
51813.000000
52492.000000
53165.000000
53836.000000
54508.000000
55168.000000
55821.000000
56467.000000
57120.000000
57791.000000
58471.000000
59145.000000
59827.000000
60521.000000
61217.000000
61903.000000
62581.000000
63261.000000
63946.000000
64622.000000
65299.000000
65978.000000
66675.000000
67364.000000
68044.000000
68730.000000
69419.000000
70100.000000
70771.000000
71434.000000
72102.000000
72785.000000
73488.000000
74194.000000
74898.000000
75606.000000
76314.000000
77036.000000
77745.000000
78432.000000
79123.000000
79810.000000
80506.000000
81199.000000
81885.000000
82587.000000
83297.000000
84004.000000
84707.000000
85426.000000
86141.000000
86854.000000
87564.000000
88278.000000
88992.000000
89691.000000
90383.000000
91069.000000
91758.000000
92461.000000
93189.000000
93966.000000
94733.000000
95483.000000
96227.000000
96974.000000
97722.000000
98449.000000
99161.000000
99859.000000
100544.000000
101215.000000
101877.000000
102542.000000
103223.000000
103946.000000
104679.000000
105412.000000
106154.000000
106901.000000
107644.000000
108361.000000
109050.000000
109723.000000
110395.000000
111073.000000
111760.000000
112451.000000
113155.000000
113893.000000
114662.000000
115407.000000
116137.000000
116867.000000
117583.000000
118296.000000
118993.000000
119701.000000
120411.000000
121117.000000
121816.000000
122517.000000
123226.000000
123932.000000
124622.000000
125306.000000
125994.000000
126675.000000
127351.000000
128020.000000
128698.000000
129384.000000
130061.000000
130729.000000
131391.000000
132052.000000
132709.000000
133368.000000
134026.000000
134692.000000
135360.000000
136031.000000
136714.000000
137416.000000
138116.000000
138810.000000
139498.000000
140178.000000
140860.000000
141543.000000
142222.000000
142899.000000
143586.000000
144303.000000
145025.000000
145736.000000
146433.000000
147123.000000
147815.000000
148498.000000
149173.000000
149851.000000
150543.000000
151248.000000
151943.000000
152633.000000
153315.000000
153995.000000
154676.000000
155361.000000
156039.000000
156716.000000
157406.000000
158095.000000
158781.000000
159459.000000
160132.000000
160797.000000
161445.000000
162063.000000
162668.000000
163281.000000
163911.000000
164560.000000
165243.000000
165947.000000
166632.000000
167302.000000
167959.000000
168609.000000
169266.000000
169922.000000
170581.000000
171245.000000
171923.000000
172592.000000
173261.000000
173938.000000
174617.000000
175292.000000
175963.000000
176649.000000
177337.000000
178013.000000
178680.000000
179347.000000
180011.000000
180669.000000
181322.000000
181969.000000
182632.000000
183313.000000
184018.000000
184731.000000
185433.000000
186131.000000
186829.000000
187513.000000
188182.000000
188845.000000
189512.000000
190177.000000
190841.000000
191517.000000
192213.000000
192922.000000
193624.000000
194315.000000
194997.000000
195690.000000
196383.000000
197067.000000
197760.000000
198462.000000
199160.000000
199852.000000
200558.000000
201269.000000
201985.000000
202683.000000
203373.000000
204053.000000
204734.000000
205423.000000
206117.000000
206833.000000
207555.000000
208306.000000
209067.000000
209799.000000
210528.000000
211246.000000
211961.000000
212683.000000
213384.000000
214071.000000
214752.000000
215431.000000
216124.000000
216820.000000
217522.000000
218226.000000
218945.000000
219670.000000
220385.000000
221086.000000
221787.000000
222478.000000
223162.000000
223836.000000
224504.000000
225173.000000
225863.000000
226568.000000
227277.000000
227994.000000
228708.000000
229421.000000
230117.000000
230806.000000
231491.000000
232178.000000
232872.000000
233568.000000
234259.000000
234947.000000
235640.000000
236362.000000
237104.000000
237838.000000
238565.000000
239296.000000
240030.000000
240760.000000
241466.000000
242152.000000
242833.000000
243516.000000
244201.000000
244916.000000
245632.000000
246349.000000
247062.000000
247780.000000
248500.000000
249205.000000
249913.000000
250622.000000
251343.000000
252048.000000
252765.000000
253481.000000
254189.000000
254889.000000
255596.000000
256298.000000
257003.000000
257709.000000
258422.000000
259156.000000
259878.000000
260579.000000
261266.000000
261951.000000
262641.000000
263349.000000
264067.000000
264801.000000
265557.000000
266319.000000
267084.000000
267867.000000
268635.000000
269370.000000
270080.000000
270789.000000
271506.000000
272211.000000
272903.000000
273598.000000
274306.000000
275019.000000
275746.000000
276502.000000
277269.000000
278020.000000
278761.000000
279498.000000
280220.000000
280915.000000
281602.000000
282280.000000
282955.000000
283642.000000
284326.000000
285018.000000
285712.000000
286389.000000
287058.000000
287722.000000
288386.000000
289052.000000
289723.000000
290392.000000
291054.000000
291717.000000
292390.000000
293059.000000
293735.000000
294402.000000
295072.000000
295747.000000
296422.000000
297098.000000
297772.000000
298432.000000
299091.000000
299751.000000
300410.000000
301072.000000
301729.000000
302384.000000
303049.000000
303732.000000
304419.000000
305107.000000
305810.000000
306523.000000
307229.000000
307929.000000
308627.000000
309330.000000
310026.000000
310719.000000
311404.000000
312092.000000
312779.000000
313454.000000
314125.000000
314792.000000
315474.000000
316186.000000
316889.000000
317594.000000
318306.000000
319015.000000
319729.000000
320428.000000
321128.000000
321824.000000
322512.000000
323199.000000
323879.000000
324560.000000
325244.000000
325920.000000
326589.000000
327261.000000
327934.000000
328604.000000
329269.000000
329933.000000
330596.000000
331258.000000
331926.000000
332594.000000
333262.000000
333920.000000
334583.000000
335252.000000
335924.000000
336598.000000
337271.000000
337944.000000
338615.000000
339276.000000
339928.000000
340575.000000
341220.000000
341870.000000
342524.000000
343179.000000
343826.000000
344471.000000
345123.000000
345788.000000
346472.000000
347162.000000
347861.000000
348563.000000
349279.000000
349984.000000
350674.000000
351361.000000
352044.000000
352723.000000
353400.000000
354076.000000
354761.000000
355470.000000
356201.000000
356936.000000
357674.000000
358415.000000
359146.000000
359867.000000
360582.000000
361294.000000
362008.000000
362701.000000
363391.000000
364084.000000
364787.000000
365485.000000
366187.000000
366899.000000
367612.000000
368319.000000
369015.000000
369722.000000
370442.000000
371151.000000
371860.000000
372577.000000
373301.000000
373992.000000
374673.000000
375345.000000
376017.000000
376697.000000
377373.000000
378048.000000
378737.000000
379459.000000
380214.000000
380950.000000
381672.000000
382390.000000
383088.000000
383774.000000
384462.000000
385152.000000
385835.000000
386512.000000
387181.000000
387854.000000
388531.000000
389202.000000
389861.000000
390508.000000
391164.000000
391850.000000
392574.000000
393311.000000
394035.000000
394753.000000
395469.000000
396191.000000
396917.000000
397618.000000
398308.000000
398998.000000
399679.000000
400358.000000
401034.000000
401683.000000
402307.000000
402944.000000
403618.000000
404323.000000
405041.000000
405777.000000
406504.000000
407217.000000
407927.000000
408644.000000
409353.000000
410051.000000
410736.000000
411411.000000
412085.000000
412750.000000
413420.000000
414106.000000
414795.000000
415504.000000
416228.000000
416953.000000
417690.000000
418413.000000
419128.000000
419860.000000
420585.000000
421286.000000
421983.000000
422682.000000
423380.000000
424073.000000
424739.000000
425393.000000
426045.000000
426702.000000
427377.000000
428067.000000
428771.000000
429472.000000
430159.000000
430836.000000
431507.000000
432176.000000
432849.000000
433529.000000
434216.000000
434904.000000
435605.000000
436301.000000
436979.000000
437640.000000
438287.000000
438932.000000
439587.000000
440241.000000
440904.000000
441574.000000
442260.000000
442946.000000
443624.000000
444303.000000
444992.000000
445685.000000
446374.000000
447060.000000
447735.000000
448399.000000
449066.000000
449736.000000
450414.000000
451093.000000
451765.000000
452450.000000
453146.000000
453856.000000
454566.000000
455267.000000
455969.000000
456689.000000
457388.000000
458082.000000
458773.000000
459458.000000
460136.000000
460814.000000
461493.000000
462185.000000
462902.000000
463648.000000
464404.000000
465184.000000
465962.000000
466709.000000
467434.000000
468148.000000
468844.000000
469536.000000
470227.000000
470937.000000
471659.000000
472381.000000
473119.000000
473868.000000
474596.000000
475313.000000
476026.000000
476735.000000
477445.000000
478149.000000
478857.000000
479572.000000
480291.000000
480996.000000
481691.000000
482386.000000
483083.000000
483771.000000
484464.000000
485163.000000
485868.000000
486582.000000
487290.000000
488005.000000
488715.000000
489412.000000
490106.000000
490801.000000
491506.000000
492227.000000
492945.000000
493674.000000
494416.000000
495146.000000
495871.000000
496595.000000
497318.000000
498035.000000
498761.000000
499485.000000
500195.000000
500907.000000
501638.000000
502384.000000
503120.000000
503854.000000
504594.000000
505328.000000
506057.000000
506770.000000
507473.000000
508161.000000
508846.000000
509534.000000
510245.000000
510967.000000
511693.000000
512427.000000
513164.000000
513903.000000
514621.000000
515345.000000
516070.000000
516794.000000
517493.000000
518185.000000
518871.000000
519556.000000
520231.000000
520900.000000
521580.000000
522281.000000
523000.000000
523729.000000
524461.000000
525187.000000
525914.000000
526632.000000
527339.000000
528049.000000
528772.000000
529490.000000
530202.000000
530914.000000
531626.000000
532333.000000
533032.000000
533729.000000
534422.000000
535116.000000
535840.000000
536560.000000
537280.000000
537997.000000
538705.000000
539409.000000
540100.000000
540782.000000
541462.000000
542146.000000
542866.000000
543609.000000
544385.000000
545149.000000
545906.000000
546675.000000
547426.000000
548163.000000
548874.000000
549579.000000
550282.000000
550984.000000
551686.000000
552385.000000
553104.000000
553832.000000
554565.000000
555309.000000
556059.000000
556814.000000
557551.000000
558285.000000
559019.000000
559755.000000
560483.000000
561199.000000
561918.000000
562656.000000
563413.000000
564198.000000
564987.000000
565776.000000
566552.000000
567329.000000
568080.000000
568820.000000
569555.000000
570279.000000
571001.000000
571719.000000
572448.000000
573208.000000
573994.000000
574765.000000
575531.000000
576309.000000
577073.000000
577827.000000
578564.000000
579290.000000
580021.000000
580760.000000
581480.000000
582193.000000
582913.000000
583634.000000
584364.000000
585088.000000
585811.000000
586538.000000
587237.000000
587927.000000
588620.000000
589311.000000
590001.000000
590682.000000
591367.000000
592054.000000
592727.000000
593390.000000
594058.000000
594732.000000
595402.000000
596071.000000
596738.000000
597419.000000
598106.000000
598786.000000
599472.000000
600165.000000
600858.000000
601542.000000
602221.000000
602897.000000
603580.000000
604254.000000
604928.000000
605604.000000
606287.000000
606971.000000
607662.000000
608370.000000
609056.000000
609735.000000
610402.000000
611066.000000
611741.000000
612422.000000
613112.000000
613827.000000
614555.000000
615287.000000
615992.000000
616710.000000
617440.000000
618148.000000
618855.000000
619563.000000
620274.000000
620971.000000
621666.000000
622362.000000
623055.000000
623745.000000
624438.000000
625149.000000
625878.000000
626622.000000
627359.000000
628104.000000
628847.000000
629563.000000
630273.000000
630975.000000
631674.000000
632371.000000
633073.000000
633791.000000
634515.000000
635258.000000
636037.000000
636848.000000
637668.000000
638451.000000
639257.000000
640054.000000
640809.000000
641546.000000
642282.000000
643005.000000
643716.000000
644413.000000
645120.000000
645851.000000
646627.000000
647404.000000
648199.000000
648997.000000
649776.000000
650538.000000
651288.000000
652026.000000
652758.000000
653483.000000
654211.000000
654929.000000
655635.000000
656334.000000
657028.000000
657715.000000
658403.000000
659099.000000
659817.000000
660535.000000
661261.000000
662005.000000
662769.000000
663519.000000
664268.000000
665012.000000
665745.000000
666475.000000
667192.000000
667901.000000
668602.000000
669295.000000
669979.000000
670681.000000
671413.000000
672143.000000
672875.000000
673647.000000
674435.000000
675199.000000
675964.000000
676739.000000
677502.000000
678225.000000
678949.000000
679672.000000
680415.000000
681154.000000
681902.000000
682660.000000
683441.000000
684213.000000
684945.000000
685675.000000
686415.000000
687146.000000
687859.000000
688567.000000
689300.000000
690051.000000
690798.000000
691544.000000
692292.000000
693031.000000
693760.000000
694469.000000
695174.000000
695875.000000
696579.000000
697275.000000
697967.000000
698658.000000
699355.000000
700050.000000
700739.000000
701421.000000
702096.000000
702761.000000
703397.000000
704011.000000
704627.000000
705267.000000
705919.000000
706588.000000
707278.000000
707980.000000
708683.000000
709381.000000
710074.000000
710768.000000
711459.000000
712135.000000
712803.000000
713468.000000
714136.000000
714815.000000
715507.000000
716214.000000
716924.000000
717644.000000
718356.000000
719053.000000
719756.000000
720459.000000
721158.000000
721845.000000
722538.000000
723242.000000
723954.000000
724676.000000
725413.000000
726148.000000
726862.000000
727578.000000
728311.000000
729057.000000
729791.000000
730518.000000
731249.000000
731976.000000
732686.000000
733392.000000
734095.000000
734812.000000
735526.000000
736264.000000
737019.000000
737786.000000
738528.000000
739255.000000
739974.000000
740679.000000
741376.000000
742071.000000
742780.000000
743534.000000
744286.000000
745052.000000
745851.000000
746669.000000
747461.000000
748232.000000
749007.000000
749769.000000
750514.000000
751259.000000
752012.000000
752758.000000
753516.000000
754313.000000
755145.000000
755956.000000
756797.000000
757641.000000
758452.000000
759232.000000
760001.000000
760769.000000
761516.000000
762247.000000
762989.000000
763757.000000
764527.000000
765285.000000
766070.000000
766869.000000
767640.000000
768400.000000
769162.000000
769919.000000
770658.000000
771383.000000
772116.000000
772859.000000
773597.000000
774348.000000
775125.000000
775888.000000
776639.000000
777396.000000
778157.000000
778904.000000
779633.000000
780354.000000
781069.000000
781771.000000
782473.000000
783191.000000
783932.000000
784681.000000
785436.000000
786198.000000
786944.000000
787672.000000
788392.000000
789103.000000
789802.000000
790484.000000
791174.000000
791871.000000
792564.000000
793262.000000
793961.000000
794663.000000
795350.000000
796028.000000
796704.000000
797380.000000
798044.000000
798701.000000
799360.000000
800038.000000
800723.000000
801403.000000
802091.000000
802787.000000
803474.000000
804151.000000
804819.000000
805478.000000
806135.000000
806784.000000
807431.000000
808084.000000
808754.000000
809424.000000
810086.000000
810752.000000
811423.000000
812091.000000
812759.000000
813430.000000
814099.000000
814765.000000
815430.000000
816098.000000
816784.000000
817480.000000
818175.000000
818874.000000
819584.000000
820287.000000
820994.000000
821695.000000
822403.000000
823115.000000
823812.000000
824504.000000
825193.000000
825889.000000
826596.000000
827304.000000
828016.000000
828732.000000
829450.000000
830158.000000
830873.000000
831579.000000
832266.000000
832952.000000
833651.000000
834340.000000
835039.000000
835743.000000
836490.000000
837251.000000
838010.000000
838758.000000
839500.000000
840225.000000
840930.000000
841642.000000
842370.000000
843093.000000
843797.000000
844501.000000
845197.000000
845892.000000
846584.000000
847273.000000
847976.000000
848684.000000
849379.000000
850065.000000
850746.000000
851426.000000
852101.000000
852767.000000
853438.000000
854117.000000
854813.000000
855499.000000
856199.000000
856920.000000
857640.000000
858332.000000
859018.000000
859698.000000
860382.000000
861067.000000
861757.000000
862447.000000
863139.000000
863838.000000
864540.000000
865244.000000
865948.000000
866654.000000
867377.000000
868093.000000
868819.000000
869542.000000
870258.000000
870971.000000
871686.000000
872398.000000
873103.000000
873795.000000
874484.000000
875181.000000
875871.000000
876569.000000
877274.000000
878011.000000
878759.000000
879485.000000
880203.000000
880923.000000
881651.000000
882374.000000
883084.000000
883793.000000
884527.000000
885290.000000
886054.000000
886823.000000
887602.000000
888368.000000
889118.000000
889853.000000
890595.000000
891349.000000
892107.000000
892862.000000
893626.000000
894404.000000
895185.000000
895936.000000
896679.000000
897402.000000
898126.000000
898842.000000
899582.000000
900357.000000
901182.000000
902000.000000
902779.000000
903566.000000
904357.000000
905141.000000
905926.000000
906708.000000
907472.000000
908228.000000
908990.000000
909765.000000
910529.000000
911296.000000
912081.000000
912865.000000
913630.000000
914380.000000
915144.000000
915904.000000
916653.000000
917406.000000
918186.000000
918974.000000
919754.000000
