ECG (ms)
441.000000
1357.000000
2331.000000
3333.000000
4279.000000
5238.000000
6250.000000
7210.000000
8213.000000
9246.000000
10234.000000
11245.000000
12290.000000
13283.000000
14274.000000
15295.000000
16346.000000
17334.000000
18344.000000
19379.000000
20438.000000
21485.000000
22554.000000
23660.000000
24751.000000
25763.000000
26821.000000
27921.000000
29012.000000
30049.000000
31151.000000
32266.000000
33304.000000
34343.000000
35447.000000
36514.000000
37495.000000
38534.000000
39591.000000
40608.000000
41620.000000
42690.000000
43769.000000
44795.000000
45839.000000
46919.000000
47960.000000
48981.000000
50054.000000
51131.000000
52135.000000
53198.000000
54274.000000
55286.000000
56332.000000
57418.000000
58444.000000
59427.000000
60478.000000
61535.000000
62529.000000
63601.000000
64687.000000
65692.000000
66736.000000
67780.000000
68767.000000
69721.000000
70738.000000
71774.000000
72740.000000
73753.000000
74782.000000
75821.000000
76808.000000
77830.000000
78893.000000
79956.000000
80960.000000
82001.000000
83079.000000
84124.000000
85120.000000
86187.000000
87249.000000
88292.000000
89300.000000
90369.000000
91458.000000
92482.000000
93502.000000
94571.000000
95640.000000
96628.000000
97665.000000
98731.000000
99720.000000
100759.000000
101840.000000
102944.000000
103989.000000
105069.000000
106154.000000
107234.000000
108250.000000
109321.000000
110410.000000
111514.000000
112559.000000
113656.000000
114768.000000
115805.000000
116885.000000
117987.000000
119060.000000
120160.000000
121280.000000
122339.000000
123418.000000
124534.000000
125660.000000
126766.000000
127869.000000
128898.000000
129950.000000
131013.000000
132050.000000
133085.000000
134160.000000
135214.000000
136242.000000
137296.000000
138341.000000
139332.000000
140382.000000
141456.000000
142452.000000
143501.000000
144592.000000
145610.000000
146693.000000
147806.000000
148831.000000
149921.000000
151029.000000
152052.000000
153105.000000
154211.000000
155254.000000
156263.000000
157328.000000
158374.000000
159358.000000
160403.000000
161465.000000
162450.000000
163472.000000
164521.000000
165561.000000
166541.000000
167587.000000
168645.000000
169660.000000
170671.000000
171729.000000
172815.000000
173821.000000
174909.000000
176017.000000
177044.000000
178108.000000
179207.000000
180269.000000
181261.000000
182298.000000
183345.000000
184350.000000
185400.000000
186489.000000
187570.000000
188589.000000
189645.000000
190717.000000
191780.000000
192766.000000
193839.000000
194938.000000
196043.000000
197073.000000
198087.000000
199161.000000
200223.000000
201216.000000
202237.000000
203282.000000
204358.000000
205359.000000
206410.000000
207491.000000
208493.000000
209544.000000
210608.000000
211634.000000
212668.000000
213735.000000
214762.000000
215763.000000
216837.000000
217914.000000
218943.000000
220006.000000
221023.000000
222027.000000
223072.000000
224094.000000
225058.000000
226098.000000
227141.000000
228114.000000
229131.000000
230076.000000
231033.000000
232036.000000
232971.000000
233946.000000
234930.000000
235890.000000
236811.000000
237833.000000
238838.000000
239789.000000
240782.000000
241798.000000
242758.000000
243722.000000
244746.000000
245767.000000
246722.000000
247737.000000
248739.000000
249673.000000
250687.000000
251693.000000
252681.000000
253631.000000
254636.000000
255651.000000
256595.000000
257578.000000
258591.000000
259567.000000
260488.000000
261486.000000
262525.000000
263582.000000
264577.000000
265609.000000
266669.000000
267723.000000
268733.000000
269730.000000
270776.000000
271842.000000
272867.000000
273928.000000
275020.000000
276109.000000
277141.000000
278180.000000
279257.000000
280296.000000
281342.000000
282404.000000
283460.000000
284507.000000
285590.000000
286679.000000
287758.000000
288841.000000
289922.000000
290970.000000
291977.000000
293058.000000
294282.000000
295326.000000
296436.000000
297517.000000
298565.000000
299604.000000
300657.000000
301672.000000
302693.000000
303769.000000
304802.000000
305845.000000
306934.000000
307960.000000
308997.000000
310068.000000
311110.000000
312129.000000
313175.000000
314173.000000
315232.000000
316304.000000
317303.000000
318373.000000
319466.000000
320475.000000
321534.000000
322617.000000
323622.000000
324671.000000
325775.000000
326810.000000
327904.000000
328996.000000
330025.000000
331106.000000
332207.000000
333235.000000
334298.000000
335401.000000
336427.000000
337494.000000
338602.000000
339695.000000
340790.000000
341816.000000
342868.000000
343945.000000
344959.000000
345975.000000
347053.000000
348128.000000
349149.000000
350207.000000
351302.000000
352394.000000
353420.000000
354465.000000
355548.000000
356634.000000
357674.000000
358755.000000
359847.000000
360851.000000
361892.000000
362875.000000
363860.000000
364985.000000
365989.000000
367076.000000
368196.000000
369184.000000
370241.000000
371317.000000
372312.000000
373358.000000
374422.000000
375418.000000
376469.000000
377539.000000
378531.000000
379577.000000
380641.000000
381650.000000
382713.000000
383796.000000
384809.000000
385875.000000
386979.000000
387999.000000
389077.000000
390205.000000
391269.000000
392308.000000
393420.000000
394546.000000
395565.000000
396616.000000
397713.000000
398838.000000
399892.000000
400993.000000
402139.000000
403232.000000
404255.000000
405315.000000
406428.000000
407494.000000
408493.000000
409535.000000
410619.000000
411652.000000
412662.000000
413714.000000
414756.000000
415815.000000
416810.000000
417853.000000
418907.000000
419909.000000
420942.000000
421999.000000
422993.000000
424030.000000
425090.000000
426165.000000
427174.000000
428100.000000
428990.000000
430042.000000
431189.000000
432351.000000
433512.000000
434668.000000
435812.000000
436845.000000
437920.000000
438985.000000
439970.000000
441021.000000
442080.000000
443114.000000
444104.000000
445131.000000
446167.000000
447132.000000
448152.000000
449166.000000
450200.000000
451167.000000
452210.000000
453239.000000
454203.000000
455193.000000
456211.000000
457250.000000
458239.000000
459289.000000
460363.000000
461403.000000
462416.000000
463473.000000
464484.000000
465495.000000
466535.000000
467567.000000
468611.000000
469700.000000
470767.000000
471768.000000
472808.000000
473880.000000
474960.000000
475987.000000
477067.000000
478147.000000
479193.000000
480295.000000
481324.000000
482391.000000
483451.000000
484438.000000
485453.000000
486469.000000
487476.000000
488459.000000
489519.000000
490600.000000
491638.000000
492746.000000
493897.000000
494985.000000
496071.000000
497185.000000
498214.000000
499294.000000
500371.000000
501418.000000
502488.000000
503540.000000
504553.000000
505626.000000
506689.000000
507706.000000
508761.000000
509816.000000
510823.000000
511824.000000
512895.000000
513976.000000
515063.000000
516085.000000
517163.000000
518256.000000
519297.000000
520377.000000
521476.000000
522522.000000
523609.000000
524704.000000
525735.000000
526783.000000
527837.000000
528851.000000
529892.000000
530946.000000
531953.000000
532987.000000
534037.000000
535061.000000
536130.000000
537181.000000
538172.000000
539218.000000
540258.000000
541195.000000
542242.000000
543271.000000
544235.000000
545289.000000
546379.000000
547370.000000
548467.000000
549531.000000
550525.000000
551602.000000
552604.000000
553629.000000
554719.000000
555827.000000
556838.000000
557937.000000
559022.000000
560150.000000
561298.000000
562328.000000
563415.000000
564515.000000
565571.000000
566701.000000
567863.000000
568975.000000
570063.000000
571168.000000
572264.000000
573371.000000
574483.000000
575527.000000
576588.000000
577670.000000
578664.000000
579676.000000
580747.000000
581820.000000
582915.000000
583964.000000
585058.000000
586114.000000
587170.000000
588285.000000
589402.000000
590523.000000
591637.000000
592700.000000
593785.000000
594997.000000
596080.000000
597159.000000
598221.000000
599181.000000
600265.000000
601359.000000
602332.000000
603408.000000
604513.000000
605492.000000
606605.000000
607620.000000
608636.000000
609695.000000
610795.000000
611841.000000
612917.000000
613990.000000
614984.000000
616059.000000
617146.000000
618121.000000
619146.000000
620220.000000
621260.000000
622271.000000
623321.000000
624352.000000
625341.000000
626380.000000
627454.000000
628456.000000
629520.000000
630602.000000
631615.000000
632658.000000
633685.000000
634666.000000
635636.000000
636570.000000
637464.000000
638506.000000
639599.000000
640734.000000
641798.000000
642887.000000
643996.000000
645048.000000
646082.000000
647133.000000
648211.000000
649274.000000
650355.000000
651401.000000
652413.000000
653505.000000
654576.000000
655603.000000
656620.000000
657670.000000
658712.000000
659754.000000
660824.000000
661846.000000
662910.000000
663994.000000
665061.000000
666132.000000
667204.000000
668293.000000
669379.000000
670393.000000
671341.000000
672383.000000
673476.000000
674470.000000
675544.000000
676621.000000
677649.000000
678731.000000
679780.000000
680788.000000
681829.000000
682798.000000
683761.000000
684758.000000
685730.000000
686714.000000
687739.000000
688729.000000
689771.000000
690778.000000
691783.000000
692809.000000
693777.000000
694700.000000
695681.000000
696673.000000
697621.000000
698660.000000
699666.000000
700637.000000
701668.000000
702717.000000
703676.000000
704678.000000
705664.000000
706543.000000
707508.000000
708568.000000
709509.000000
710561.000000
711690.000000
712804.000000
713793.000000
714891.000000
716012.000000
717060.000000
718141.000000
719219.000000
720171.000000
721229.000000
722320.000000
723307.000000
724342.000000
725420.000000
726527.000000
727534.000000
728608.000000
729754.000000
730836.000000
731854.000000
732956.000000
733961.000000
735027.000000
736129.000000
737195.000000
738291.000000
739284.000000
740258.000000
741357.000000
742469.000000
743456.000000
744528.000000
745612.000000
746609.000000
747721.000000
748834.000000
749885.000000
750908.000000
751960.000000
753009.000000
754040.000000
755108.000000
756178.000000
757205.000000
758264.000000
759322.000000
760347.000000
761397.000000
762433.000000
763423.000000
764409.000000
765577.000000
766720.000000
767846.000000
768901.000000
770003.000000
771160.000000
772314.000000
773381.000000
774471.000000
775599.000000
776686.000000
777819.000000
778955.000000
780059.000000
781140.000000
782263.000000
783334.000000
784370.000000
785481.000000
786553.000000
787575.000000
788616.000000
789665.000000
790710.000000
791798.000000
792845.000000
793912.000000
795081.000000
796192.000000
797293.000000
798264.000000
799328.000000
800396.000000
801428.000000
802373.000000
803391.000000
804413.000000
805413.000000
806514.000000
807569.000000
808665.000000
809798.000000
810814.000000
811785.000000
812850.000000
813835.000000
814904.000000
815971.000000
816997.000000
818097.000000
819153.000000
820128.000000
821168.000000
822203.000000
823253.000000
824252.000000
825236.000000
826356.000000
827512.000000
828539.000000
829647.000000
830768.000000
831788.000000
832822.000000
833878.000000
834788.000000
835785.000000
836741.000000
837719.000000
838765.000000
839718.000000
840780.000000
841896.000000
843004.000000
843958.000000
845004.000000
846102.000000
847136.000000
848335.000000
849511.000000
850534.000000
851621.000000
852760.000000
853818.000000
854940.000000
856032.000000
857023.000000
858080.000000
859187.000000
860232.000000
861299.000000
862443.000000
863563.000000
864561.000000
865568.000000
866684.000000
867753.000000
868843.000000
869944.000000
871063.000000
872093.000000
873170.000000
874255.000000
875305.000000
876397.000000
877664.000000
878841.000000
879974.000000
881113.000000
882204.000000
883334.000000
884496.000000
885610.000000
886720.000000
887925.000000
888999.000000
890048.000000
891184.000000
892276.000000
893244.000000
894380.000000
895462.000000
896571.000000
897732.000000
898731.000000
899784.000000
900847.000000
901831.000000
902890.000000
903958.000000
904950.000000
906030.000000
907141.000000
908189.000000
909286.000000
910379.000000
911413.000000
912511.000000
913613.000000
914615.000000
915644.000000
916704.000000
917682.000000
918737.000000
919775.000000
920770.000000
921827.000000
922855.000000
923845.000000
924907.000000
925929.000000
926972.000000
928068.000000
929121.000000
930199.000000
931297.000000
932348.000000
933428.000000
934468.000000
935444.000000
936476.000000
937499.000000
938506.000000
939576.000000
940621.000000
941668.000000
942760.000000
943865.000000
944978.000000
946085.000000
947144.000000
948241.000000
949364.000000
950460.000000
951533.000000
952633.000000
953652.000000
954599.000000
955634.000000
956704.000000
957823.000000
958858.000000
959885.000000
961007.000000
962135.000000
963257.000000
964395.000000
965473.000000
966559.000000
967667.000000
968725.000000
969801.000000
970893.000000
971925.000000
972987.000000
974063.000000
975156.000000
976181.000000
977249.000000
978358.000000
979428.000000
980496.000000
981609.000000
982687.000000
983783.000000
984895.000000
985989.000000
987022.000000
988105.000000
989169.000000
990235.000000
991328.000000
992437.000000
993524.000000
994687.000000
995867.000000
997020.000000
998066.000000
999095.000000
1000238.000000
1001396.000000
1002482.000000
1003573.000000
1004679.000000
1005712.000000
1006833.000000
1007959.000000
1009039.000000
1010121.000000
1011221.000000
1012308.000000
1013423.000000
1014537.000000
1015581.000000
1016636.000000
1017722.000000
1018794.000000
1019874.000000
1020968.000000
1021999.000000
1023045.000000
1024160.000000
1025410.000000
1026593.000000
1027652.000000
1028744.000000
1029855.000000
1031005.000000
1032052.000000
1033113.000000
1034199.000000
1035230.000000
1036311.000000
1037438.000000
1038458.000000
1039527.000000
1040614.000000
1041651.000000
1042675.000000
1043748.000000
1044781.000000
1045799.000000
1046865.000000
1047866.000000
1048779.000000
1049669.000000
1050592.000000
1051648.000000
1052725.000000
1053802.000000
1054898.000000
1055989.000000
1057043.000000
1058151.000000
1059209.000000
1060232.000000
1061301.000000
1062373.000000
1063392.000000
1064445.000000
1065500.000000
1066570.000000
1067666.000000
1068703.000000
1069759.000000
1070775.000000
1071822.000000
1072920.000000
1073968.000000
1075039.000000
1076097.000000
1077111.000000
1078198.000000
1079264.000000
1080280.000000
1081314.000000
1082345.000000
1083335.000000
1084414.000000
1085501.000000
1086507.000000
1087562.000000
1088677.000000
1089713.000000
1090754.000000
1091863.000000
1092986.000000
1093997.000000
1095055.000000
1096305.000000
1097485.000000
1098651.000000
1099730.000000
1100830.000000
1102007.000000
1103175.000000
1104246.000000
1105350.000000
1106497.000000
1107628.000000
1108740.000000
1109844.000000
1110955.000000
1112179.000000
1113199.000000
1114255.000000
1115337.000000
1116405.000000
1117385.000000
1118539.000000
1119694.000000
1120730.000000
1121811.000000
1122950.000000
1124047.000000
1125036.000000
1126121.000000
1127210.000000
1128082.000000
1128936.000000
1129825.000000
1130957.000000
1132065.000000
1133054.000000
1134127.000000
1135251.000000
1136458.000000
1137645.000000
1138765.000000
1139941.000000
1141064.000000
1142082.000000
1143110.000000
1144221.000000
1145293.000000
1146213.000000
1147325.000000
1148457.000000
1149467.000000
1150476.000000
1151594.000000
1152668.000000
1153742.000000
1154940.000000
1156120.000000
1157226.000000
1158254.000000
1159365.000000
1160449.000000
1161403.000000
1162463.000000
1163591.000000
1164685.000000
1165666.000000
1166751.000000
1167878.000000
1168874.000000
1169886.000000
1170971.000000
1171976.000000
1172966.000000
1174078.000000
1175139.000000
1176194.000000
1177287.000000
1178243.000000
1179212.000000
1180277.000000
1181402.000000
1182443.000000
1183411.000000
1184520.000000
1185649.000000
1186671.000000
1187619.000000
1188666.000000
1189696.000000
1190643.000000
1191667.000000
1192720.000000
1193667.000000
1194657.000000
1195670.000000
1196576.000000
1197490.000000
1198512.000000
1199487.000000
1200434.000000
1201463.000000
1202496.000000
1203434.000000
1204424.000000
1205414.000000
1206410.000000
1207459.000000
1208501.000000
1209507.000000
1210559.000000
1211613.000000
