ECG (ms)
-4.000000
884.000000
1786.000000
2729.000000
3663.000000
4560.000000
5456.000000
6399.000000
7342.000000
8249.000000
9147.000000
10082.000000
11010.000000
11929.000000
12824.000000
13738.000000
14662.000000
15581.000000
16481.000000
17372.000000
18302.000000
19220.000000
20119.000000
21005.000000
21915.000000
22832.000000
23737.000000
24628.000000
25517.000000
26442.000000
27359.000000
28239.000000
29110.000000
30019.000000
30935.000000
31848.000000
32732.000000
33611.000000
34539.000000
35455.000000
36343.000000
37241.000000
38174.000000
39105.000000
40001.000000
40908.000000
41845.000000
42769.000000
43660.000000
44554.000000
45481.000000
46405.000000
47298.000000
48186.000000
49090.000000
50023.000000
50947.000000
51835.000000
52720.000000
53642.000000
54563.000000
55468.000000
56356.000000
57239.000000
58154.000000
59067.000000
59954.000000
60831.000000
61765.000000
62701.000000
63586.000000
64463.000000
65393.000000
66315.000000
67215.000000
68098.000000
69003.000000
69939.000000
70876.000000
71779.000000
72672.000000
73614.000000
74554.000000
75470.000000
76368.000000
77290.000000
78223.000000
79140.000000
80033.000000
80944.000000
81874.000000
82802.000000
83701.000000
84593.000000
85529.000000
86458.000000
87365.000000
88259.000000
89171.000000
90098.000000
90993.000000
91894.000000
92833.000000
93772.000000
94677.000000
95557.000000
96477.000000
97419.000000
98360.000000
99264.000000
100168.000000
101127.000000
102080.000000
103003.000000
103900.000000
104846.000000
105789.000000
106728.000000
107636.000000
108577.000000
109523.000000
110474.000000
111396.000000
112336.000000
113281.000000
114219.000000
115127.000000
116024.000000
116977.000000
117919.000000
118854.000000
119763.000000
120705.000000
121650.000000
122554.000000
123463.000000
124414.000000
125364.000000
126288.000000
127206.000000
128158.000000
129102.000000
130033.000000
130942.000000
131885.000000
132821.000000
133752.000000
134665.000000
135580.000000
136513.000000
137431.000000
138346.000000
139279.000000
140209.000000
141108.000000
141972.000000
142919.000000
143862.000000
144782.000000
145692.000000
146621.000000
147579.000000
148489.000000
149395.000000
150351.000000
151300.000000
152202.000000
153070.000000
154002.000000
154935.000000
155860.000000
156750.000000
157666.000000
158599.000000
159534.000000
160467.000000
161368.000000
162300.000000
163255.000000
164206.000000
165148.000000
166064.000000
167013.000000
167959.000000
168901.000000
169822.000000
170727.000000
171668.000000
172601.000000
173531.000000
174443.000000
175329.000000
175655.000000
175975.000000
176287.000000
177215.000000
178105.000000
179040.000000
179948.000000
180827.000000
181739.000000
182675.000000
183596.000000
184475.000000
185413.000000
186351.000000
187286.000000
188204.000000
189111.000000
190026.000000
190976.000000
191922.000000
192856.000000
193775.000000
194704.000000
195612.000000
196496.000000
197454.000000
198285.000000
199359.000000
200271.000000
201204.000000
202164.000000
203123.000000
204043.000000
204971.000000
205917.000000
206865.000000
207803.000000
208732.000000
209664.000000
210609.000000
211556.000000
212504.000000
213431.000000
214354.000000
215307.000000
216255.000000
217188.000000
218099.000000
219030.000000
219995.000000
220906.000000
221817.000000
222781.000000
223724.000000
224651.000000
225554.000000
226501.000000
227477.000000
228415.000000
229344.000000
230316.000000
231287.000000
232224.000000
233150.000000
234117.000000
235071.000000
236004.000000
236916.000000
237859.000000
238800.000000
239740.000000
240646.000000
241551.000000
242498.000000
243432.000000
244353.000000
245253.000000
246190.000000
247123.000000
248044.000000
248951.000000
249867.000000
250807.000000
251746.000000
252655.000000
253550.000000
254481.000000
255430.000000
256338.000000
257239.000000
258202.000000
259144.000000
260059.000000
260989.000000
261956.000000
262910.000000
263835.000000
264768.000000
265741.000000
266698.000000
267620.000000
268546.000000
269517.000000
270479.000000
271416.000000
272339.000000
273261.000000
274222.000000
275181.000000
276119.000000
277035.000000
277969.000000
278911.000000
279848.000000
280759.000000
281680.000000
282631.000000
283575.000000
284492.000000
285399.000000
286344.000000
287290.000000
288214.000000
289114.000000
290039.000000
290987.000000
291889.000000
292785.000000
293729.000000
294667.000000
295569.000000
296475.000000
297422.000000
298315.000000
299036.000000
300125.000000
301059.000000
301990.000000
302867.000000
303759.000000
304667.000000
305577.000000
306456.000000
307308.000000
308213.000000
309132.000000
310068.000000
311342.000000
312362.000000
313394.000000
314402.000000
315322.000000
316234.000000
317179.000000
318447.000000
319466.000000
320451.000000
321446.000000
322441.000000
323379.000000
324262.000000
325159.000000
326109.000000
327050.000000
328001.000000
328924.000000
329834.000000
330804.000000
331771.000000
332698.000000
333624.000000
334578.000000
335530.000000
336477.000000
337406.000000
338362.000000
339312.000000
340259.000000
341202.000000
342114.000000
343018.000000
343974.000000
344923.000000
345837.000000
346746.000000
347674.000000
348637.000000
349585.000000
350496.000000
351390.000000
352337.000000
353297.000000
354240.000000
355157.000000
356084.000000
357038.000000
357986.000000
358938.000000
359882.000000
360817.000000
361722.000000
362683.000000
363636.000000
364555.000000
365466.000000
366434.000000
367389.000000
368338.000000
369279.000000
370190.000000
371139.000000
372070.000000
373000.000000
373874.000000
374821.000000
375757.000000
376690.000000
377580.000000
378520.000000
379468.000000
380409.000000
381319.000000
382258.000000
383215.000000
384165.000000
385083.000000
385986.000000
386934.000000
387877.000000
388821.000000
389766.000000
390710.000000
391620.000000
392555.000000
393493.000000
394423.000000
395325.000000
396260.000000
397195.000000
398126.000000
399022.000000
399973.000000
400911.000000
401844.000000
402783.000000
403718.000000
404610.000000
405516.000000
406464.000000
407399.000000
408333.000000
409231.000000
410132.000000
411073.000000
411996.000000
412881.000000
413766.000000
414696.000000
415616.000000
416530.000000
417440.000000
418323.000000
419236.000000
420150.000000
421047.000000
421935.000000
422846.000000
423757.000000
424667.000000
425573.000000
426447.000000
427334.000000
428263.000000
429191.000000
430123.000000
431004.000000
431930.000000
432865.000000
433800.000000
434707.000000
435632.000000
436560.000000
437490.000000
438408.000000
439348.000000
440260.000000
441196.000000
442133.000000
443063.000000
443952.000000
444882.000000
445829.000000
446782.000000
447709.000000
448631.000000
449581.000000
450551.000000
451503.000000
452430.000000
453385.000000
454338.000000
455292.000000
456218.000000
457157.000000
458102.000000
459045.000000
460006.000000
460937.000000
461875.000000
462829.000000
463747.000000
464614.000000
465578.000000
466515.000000
467429.000000
468370.000000
469303.000000
470158.000000
471045.000000
471957.000000
472844.000000
473717.000000
475001.000000
476080.000000
477072.000000
478015.000000
479189.000000
480217.000000
481202.000000
482200.000000
483179.000000
484143.000000
485171.000000
486138.000000
487118.000000
488112.000000
489102.000000
490034.000000
490957.000000
491908.000000
492866.000000
494021.000000
495017.000000
495992.000000
496978.000000
497825.000000
498894.000000
499832.000000
500740.000000
501522.000000
502587.000000
503544.000000
504843.000000
505875.000000
506868.000000
507879.000000
508846.000000
509769.000000
510671.000000
511597.000000
512547.000000
513446.000000
514342.000000
515275.000000
516226.000000
517138.000000
518039.000000
518936.000000
519880.000000
520829.000000
521755.000000
522666.000000
523616.000000
524575.000000
525504.000000
526431.000000
527393.000000
528345.000000
529288.000000
530215.000000
531162.000000
532102.000000
532684.000000
533860.000000
534830.000000
535764.000000
536669.000000
537618.000000
538558.000000
539470.000000
540425.000000
541371.000000
542307.000000
543218.000000
544139.000000
545095.000000
546063.000000
547016.000000
547945.000000
548913.000000
549876.000000
550814.000000
551741.000000
552694.000000
553632.000000
554580.000000
555496.000000
556423.000000
557369.000000
558307.000000
559222.000000
560116.000000
561039.000000
561988.000000
562933.000000
563847.000000
564756.000000
565704.000000
566646.000000
567550.000000
568453.000000
569394.000000
570323.000000
571229.000000
572133.000000
573070.000000
573999.000000
574908.000000
575805.000000
576739.000000
577666.000000
578581.000000
579478.000000
580372.000000
581300.000000
582259.000000
583201.000000
584123.000000
585045.000000
586010.000000
586985.000000
587912.000000
588832.000000
589780.000000
590716.000000
591648.000000
592589.000000
593491.000000
594406.000000
595297.000000
596191.000000
597117.000000
597976.000000
598877.000000
599817.000000
600752.000000
601616.000000
602486.000000
603390.000000
604303.000000
605211.000000
606117.000000
607024.000000
607890.000000
608810.000000
609720.000000
610656.000000
611911.000000
612969.000000
614014.000000
614963.000000
615915.000000
616845.000000
617770.000000
618715.000000
619631.000000
620586.000000
621542.000000
622432.000000
623379.000000
624340.000000
625251.000000
626193.000000
627140.000000
628100.000000
629056.000000
629960.000000
630919.000000
631878.000000
632814.000000
633726.000000
634684.000000
635642.000000
636568.000000
637474.000000
638428.000000
639382.000000
640331.000000
641246.000000
642149.000000
643100.000000
644051.000000
644995.000000
645938.000000
646833.000000
647780.000000
648718.000000
649608.000000
650504.000000
651447.000000
652384.000000
653329.000000
654215.000000
655139.000000
656084.000000
657027.000000
657967.000000
658878.000000
659781.000000
660696.000000
661634.000000
662579.000000
663477.000000
664384.000000
665344.000000
666293.000000
667254.000000
668244.000000
669184.000000
670118.000000
671093.000000
672071.000000
672996.000000
673903.000000
674876.000000
675842.000000
676777.000000
677696.000000
678656.000000
679614.000000
680531.000000
681451.000000
682406.000000
683349.000000
684259.000000
685198.000000
686100.000000
687047.000000
688013.000000
688959.000000
689869.000000
690833.000000
691792.000000
692746.000000
693689.000000
694595.000000
695542.000000
696464.000000
697376.000000
698279.000000
699193.000000
700141.000000
701066.000000
701965.000000
702851.000000
703774.000000
704271.000000
704629.000000
705560.000000
706491.000000
707396.000000
708308.000000
709180.000000
710043.000000
710952.000000
711843.000000
712709.000000
713578.000000
714435.000000
715304.000000
716216.000000
717452.000000
718478.000000
719466.000000
720449.000000
721377.000000
722256.000000
723123.000000
724050.000000
724984.000000
725914.000000
726842.000000
727768.000000
728655.000000
729575.000000
730512.000000
731441.000000
732372.000000
733258.000000
734179.000000
735109.000000
736039.000000
736970.000000
737904.000000
738799.000000
739730.000000
740676.000000
741620.000000
742566.000000
743514.000000
744450.000000
745355.000000
746307.000000
747258.000000
748203.000000
749148.000000
750089.000000
751023.000000
751949.000000
752851.000000
753778.000000
754721.000000
755665.000000
756606.000000
757542.000000
758443.000000
759345.000000
760292.000000
761228.000000
762161.000000
763077.000000
763971.000000
764912.000000
765841.000000
766764.000000
767680.000000
768580.000000
769521.000000
770446.000000
771371.000000
772295.000000
773190.000000
774084.000000
775020.000000
775945.000000
776865.000000
777763.000000
778660.000000
779583.000000
780872.000000
781958.000000
782930.000000
783886.000000
784812.000000
785733.000000
786662.000000
787595.000000
788507.000000
789406.000000
790345.000000
791277.000000
792203.000000
793089.000000
794005.000000
794952.000000
795896.000000
796848.000000
797784.000000
798687.000000
799630.000000
800575.000000
801519.000000
802454.000000
803366.000000
804276.000000
805222.000000
806147.000000
807045.000000
807947.000000
808871.000000
809789.000000
810704.000000
811623.000000
812547.000000
813467.000000
814352.000000
815218.000000
816189.000000
817139.000000
818084.000000
818991.000000
819914.000000
820875.000000
821838.000000
822759.000000
823693.000000
824650.000000
825610.000000
826557.000000
827487.000000
828443.000000
829393.000000
830336.000000
831273.000000
832197.000000
833151.000000
834093.000000
835034.000000
835968.000000
836896.000000
837827.000000
838735.000000
839647.000000
840593.000000
841524.000000
842430.000000
843369.000000
844306.000000
845224.000000
846125.000000
847062.000000
848014.000000
848956.000000
849872.000000
850822.000000
851754.000000
852671.000000
853617.000000
854557.000000
855494.000000
856414.000000
857330.000000
858244.000000
859187.000000
860122.000000
861057.000000
861966.000000
862872.000000
863810.000000
864756.000000
865691.000000
866605.000000
867517.000000
868470.000000
869411.000000
870347.000000
871269.000000
872172.000000
873132.000000
874083.000000
874996.000000
875910.000000
876862.000000
877809.000000
878722.000000
879625.000000
880574.000000
881515.000000
882426.000000
883333.000000
884278.000000
885214.000000
886134.000000
887044.000000
887991.000000
888929.000000
889847.000000
890538.000000
891438.000000
892379.000000
892969.000000
894107.000000
895057.000000
895995.000000
896917.000000
897820.000000
898731.000000
899664.000000
900596.000000
