ECG (ms)
260.000000
1234.000000
2112.000000
3002.000000
3870.000000
4805.000000
5752.000000
6683.000000
7597.000000
8512.000000
9416.000000
10227.000000
11072.000000
11910.000000
12726.000000
13617.000000
14612.000000
15611.000000
16498.000000
17402.000000
18315.000000
19181.000000
19997.000000
20855.000000
21731.000000
22620.000000
23491.000000
24366.000000
25199.000000
26065.000000
26937.000000
27847.000000
28699.000000
29585.000000
30473.000000
31298.000000
32185.000000
33120.000000
34049.000000
34945.000000
35843.000000
36750.000000
37589.000000
38412.000000
39251.000000
40081.000000
40884.000000
41737.000000
42585.000000
43412.000000
44259.000000
45128.000000
46029.000000
46874.000000
47745.000000
48582.000000
49374.000000
50217.000000
51096.000000
52023.000000
52882.000000
53738.000000
54632.000000
55560.000000
56434.000000
57330.000000
58212.000000
59112.000000
59982.000000
60821.000000
61701.000000
62602.000000
63514.000000
64366.000000
65243.000000
66125.000000
67032.000000
67885.000000
68773.000000
69665.000000
70543.000000
71385.000000
72237.000000
73090.000000
73929.000000
74748.000000
75613.000000
76485.000000
77315.000000
78163.000000
79045.000000
79903.000000
80729.000000
81688.000000
82678.000000
83554.000000
84414.000000
85244.000000
86044.000000
86845.000000
87748.000000
88809.000000
89725.000000
90763.000000
91877.000000
92876.000000
93886.000000
94898.000000
95818.000000
96758.000000
97684.000000
98575.000000
99426.000000
100270.000000
101110.000000
101924.000000
102783.000000
103677.000000
104605.000000
105491.000000
106383.000000
107271.000000
108110.000000
108999.000000
109913.000000
110767.000000
111651.000000
112528.000000
113384.000000
114193.000000
115046.000000
115934.000000
116815.000000
117670.000000
118547.000000
119422.000000
120239.000000
121092.000000
121961.000000
122814.000000
123681.000000
124577.000000
125421.000000
126272.000000
127131.000000
128002.000000
128824.000000
129683.000000
130552.000000
131433.000000
132252.000000
133099.000000
133985.000000
134847.000000
135700.000000
136573.000000
137477.000000
138325.000000
139213.000000
140100.000000
140949.000000
141843.000000
142735.000000
143614.000000
144453.000000
145307.000000
146136.000000
146915.000000
147694.000000
148506.000000
149560.000000
150493.000000
151385.000000
152365.000000
153328.000000
154194.000000
155098.000000
156000.000000
156848.000000
157687.000000
158577.000000
159494.000000
160373.000000
161198.000000
162046.000000
162917.000000
163802.000000
164645.000000
165552.000000
166478.000000
167360.000000
168200.000000
169067.000000
169942.000000
170773.000000
171619.000000
172535.000000
173481.000000
174357.000000
175274.000000
176238.000000
177130.000000
178055.000000
178992.000000
179911.000000
180808.000000
181714.000000
182563.000000
183402.000000
184274.000000
185171.000000
186026.000000
186893.000000
187777.000000
188639.000000
189496.000000
190390.000000
191304.000000
192155.000000
193033.000000
193959.000000
194873.000000
195718.000000
196590.000000
197474.000000
198359.000000
199208.000000
200100.000000
200986.000000
201829.000000
202680.000000
203551.000000
204433.000000
205264.000000
206148.000000
207044.000000
207889.000000
208714.000000
209592.000000
210540.000000
211473.000000
212366.000000
213242.000000
214089.000000
214909.000000
215684.000000
216452.000000
217256.000000
218183.000000
219169.000000
220069.000000
220947.000000
221845.000000
222708.000000
223575.000000
224397.000000
225194.000000
225998.000000
226820.000000
227631.000000
228455.000000
229321.000000
230216.000000
231067.000000
231943.000000
232834.000000
233735.000000
234571.000000
235434.000000
236299.000000
237126.000000
237947.000000
238800.000000
239668.000000
240521.000000
241336.000000
242192.000000
243063.000000
243886.000000
244723.000000
245583.000000
246471.000000
247304.000000
248173.000000
249066.000000
249956.000000
250790.000000
251647.000000
252495.000000
253311.000000
254187.000000
255076.000000
255954.000000
256788.000000
257632.000000
258464.000000
259246.000000
260063.000000
260917.000000
261774.000000
262665.000000
263637.000000
264636.000000
265537.000000
266454.000000
267397.000000
268270.000000
269153.000000
270073.000000
271007.000000
271879.000000
272778.000000
273711.000000
274601.000000
275497.000000
276456.000000
277417.000000
278311.000000
279278.000000
280271.000000
281188.000000
282114.000000
283058.000000
284009.000000
284857.000000
285750.000000
286645.000000
287572.000000
288483.000000
289443.000000
290403.000000
291274.000000
292180.000000
293095.000000
293991.000000
294888.000000
295832.000000
296783.000000
297654.000000
298530.000000
299406.000000
300304.000000
301137.000000
302010.000000
302903.000000
303830.000000
304691.000000
305546.000000
306433.000000
307352.000000
308210.000000
309092.000000
309993.000000
310851.000000
311702.000000
312612.000000
313502.000000
314358.000000
315248.000000
316119.000000
316943.000000
317804.000000
318714.000000
319584.000000
320487.000000
321421.000000
322307.000000
323132.000000
323986.000000
324765.000000
325544.000000
326288.000000
327059.000000
327859.000000
328641.000000
329492.000000
330413.000000
331293.000000
332204.000000
333125.000000
333978.000000
334866.000000
335764.000000
336628.000000
337435.000000
338259.000000
339099.000000
339918.000000
340805.000000
341775.000000
342757.000000
343688.000000
344634.000000
345563.000000
346423.000000
347320.000000
348238.000000
349134.000000
349993.000000
350871.000000
351778.000000
352622.000000
353478.000000
354373.000000
355304.000000
356155.000000
357040.000000
357996.000000
358903.000000
359752.000000
360614.000000
361490.000000
362316.000000
363126.000000
363985.000000
364958.000000
365832.000000
366760.000000
367730.000000
368679.000000
369555.000000
370449.000000
371314.000000
372122.000000
372978.000000
373858.000000
374746.000000
375601.000000
376497.000000
377435.000000
378327.000000
379209.000000
380099.000000
380982.000000
381826.000000
382712.000000
383615.000000
384496.000000
385375.000000
386299.000000
387200.000000
388038.000000
388910.000000
389788.000000
390642.000000
391477.000000
392345.000000
393273.000000
394150.000000
395060.000000
396035.000000
396975.000000
397832.000000
398736.000000
399663.000000
400495.000000
401298.000000
402125.000000
402999.000000
403881.000000
404795.000000
405816.000000
406843.000000
407760.000000
408712.000000
409658.000000
410592.000000
411472.000000
412389.000000
413311.000000
414171.000000
415051.000000
415932.000000
416805.000000
417620.000000
418461.000000
419322.000000
420229.000000
421101.000000
422041.000000
423008.000000
423969.000000
424837.000000
425727.000000
426597.000000
427441.000000
428258.000000
429111.000000
430017.000000
430909.000000
431806.000000
432745.000000
433646.000000
434504.000000
435356.000000
436246.000000
437122.000000
437933.000000
438766.000000
439617.000000
440491.000000
441335.000000
442261.000000
443190.000000
444053.000000
444934.000000
445823.000000
446701.000000
447514.000000
448358.000000
449221.000000
450146.000000
451024.000000
451954.000000
452919.000000
453807.000000
454732.000000
455655.000000
456545.000000
457390.000000
458249.000000
459125.000000
459978.000000
460808.000000
461656.000000
462512.000000
463340.000000
464186.000000
465020.000000
465871.000000
466684.000000
467568.000000
468458.000000
469322.000000
470145.000000
471000.000000
471901.000000
472785.000000
473627.000000
474494.000000
475368.000000
476218.000000
477023.000000
477869.000000
478764.000000
479633.000000
480487.000000
481404.000000
482340.000000
483195.000000
484054.000000
484915.000000
485799.000000
486637.000000
487493.000000
488343.000000
489179.000000
489978.000000
490828.000000
491701.000000
492593.000000
493446.000000
494340.000000
495238.000000
496075.000000
496909.000000
497742.000000
498575.000000
499374.000000
500206.000000
501065.000000
501942.000000
502755.000000
503593.000000
504467.000000
505330.000000
506143.000000
506978.000000
507817.000000
508633.000000
509438.000000
510285.000000
511206.000000
512072.000000
512921.000000
513782.000000
514610.000000
515381.000000
516189.000000
516998.000000
517826.000000
518629.000000
519568.000000
520568.000000
521508.000000
522426.000000
523363.000000
524271.000000
525114.000000
525993.000000
526898.000000
527772.000000
528631.000000
529548.000000
530521.000000
531405.000000
532283.000000
533216.000000
534124.000000
534960.000000
535839.000000
536730.000000
537571.000000
538392.000000
539239.000000
540176.000000
541042.000000
541898.000000
542822.000000
543779.000000
544735.000000
545783.000000
546829.000000
547780.000000
548724.000000
549691.000000
550661.000000
551565.000000
552504.000000
553455.000000
554364.000000
555307.000000
556286.000000
557209.000000
558101.000000
559063.000000
560052.000000
560940.000000
561815.000000
562715.000000
563634.000000
564513.000000
565488.000000
566457.000000
567387.000000
568259.000000
569158.000000
570079.000000
570958.000000
571891.000000
572827.000000
573738.000000
574625.000000
575534.000000
576458.000000
577278.000000
578116.000000
578970.000000
579862.000000
580711.000000
581627.000000
582641.000000
583601.000000
584563.000000
585568.000000
586549.000000
587439.000000
588355.000000
589290.000000
590152.000000
590995.000000
591859.000000
592737.000000
593595.000000
594496.000000
595439.000000
596351.000000
597230.000000
598146.000000
599070.000000
599967.000000
600872.000000
601798.000000
602744.000000
603651.000000
604563.000000
605512.000000
606456.000000
607340.000000
608244.000000
609156.000000
610062.000000
610903.000000
611786.000000
612679.000000
613606.000000
614459.000000
615335.000000
616227.000000
617152.000000
617999.000000
618874.000000
619737.000000
620594.000000
621413.000000
622273.000000
623196.000000
624149.000000
625048.000000
625977.000000
626943.000000
627885.000000
628768.000000
629644.000000
630526.000000
631355.000000
632137.000000
632960.000000
633806.000000
634648.000000
635535.000000
636453.000000
637333.000000
638220.000000
