ECG (ms)
653.000000
1322.000000
2035.000000
2839.000000
3702.000000
4503.000000
5219.000000
5891.000000
6548.000000
7217.000000
7949.000000
8946.000000
9898.000000
10804.000000
11555.000000
12248.000000
12921.000000
13609.000000
14348.000000
15437.000000
16453.000000
17347.000000
18084.000000
18785.000000
19454.000000
20128.000000
20904.000000
21960.000000
22882.000000
23749.000000
24483.000000
25160.000000
25844.000000
26567.000000
27382.000000
28202.000000
28987.000000
29703.000000
30385.000000
31075.000000
31786.000000
32552.000000
33360.000000
34139.000000
34881.000000
35578.000000
36255.000000
36938.000000
37657.000000
38530.000000
39415.000000
40235.000000
40987.000000
41685.000000
42350.000000
43020.000000
43699.000000
44434.000000
45258.000000
46242.000000
47072.000000
47789.000000
48465.000000
49136.000000
49840.000000
50634.000000
51418.000000
52193.000000
53060.000000
53868.000000
54603.000000
55299.000000
56021.000000
56793.000000
57794.000000
58807.000000
59791.000000
60724.000000
61538.000000
62240.000000
62915.000000
63597.000000
64346.000000
65458.000000
66452.000000
67338.000000
68136.000000
68869.000000
69570.000000
70251.000000
70947.000000
71754.000000
72778.000000
73745.000000
74537.000000
75243.000000
75920.000000
76604.000000
77322.000000
78143.000000
79146.000000
80077.000000
80846.000000
81550.000000
82226.000000
82898.000000
83600.000000
84368.000000
85137.000000
85914.000000
86697.000000
87397.000000
88070.000000
88752.000000
89479.000000
90270.000000
91115.000000
91894.000000
92634.000000
93311.000000
93965.000000
94602.000000
95236.000000
95878.000000
96542.000000
97264.000000
98268.000000
99195.000000
99936.000000
100629.000000
101297.000000
101969.000000
102684.000000
103465.000000
104334.000000
105263.000000
106071.000000
106787.000000
107463.000000
108150.000000
108876.000000
109835.000000
110764.000000
111644.000000
112483.000000
113214.000000
113886.000000
114564.000000
115274.000000
116050.000000
117113.000000
118044.000000
118834.000000
119537.000000
120208.000000
120879.000000
121591.000000
122366.000000
123190.000000
124018.000000
124739.000000
125431.000000
126096.000000
126779.000000
127500.000000
128461.000000
129387.000000
130342.000000
131234.000000
131992.000000
132680.000000
133339.000000
134010.000000
134806.000000
135904.000000
136810.000000
137547.000000
138278.000000
139032.000000
139894.000000
140804.000000
141565.000000
142292.000000
143108.000000
144022.000000
144923.000000
145726.000000
146444.000000
147153.000000
147901.000000
148763.000000
149797.000000
150755.000000
151594.000000
152329.000000
153008.000000
153686.000000
154395.000000
155199.000000
156244.000000
157145.000000
157933.000000
158784.000000
159751.000000
160714.000000
161503.000000
162218.000000
162933.000000
163734.000000
164822.000000
165756.000000
166487.000000
167182.000000
167980.000000
168985.000000
169919.000000
170785.000000
171495.000000
172179.000000
172875.000000
173597.000000
174372.000000
175406.000000
176348.000000
177215.000000
178006.000000
178736.000000
179422.000000
180101.000000
180806.000000
181662.000000
182662.000000
183604.000000
184439.000000
185169.000000
185846.000000
186514.000000
187183.000000
187895.000000
188765.000000
189704.000000
190558.000000
191327.000000
192024.000000
192708.000000
193381.000000
194140.000000
194981.000000
195802.000000
196618.000000
197415.000000
198111.000000
198780.000000
199441.000000
200131.000000
201072.000000
201967.000000
202740.000000
203445.000000
204133.000000
204872.000000
205682.000000
206532.000000
207371.000000
208121.000000
208827.000000
209559.000000
210358.000000
211181.000000
211969.000000
212690.000000
213383.000000
214100.000000
214868.000000
215714.000000
216509.000000
217256.000000
217939.000000
218606.000000
219296.000000
220030.000000
220870.000000
221765.000000
222605.000000
223423.000000
224153.000000
224838.000000
225508.000000
226197.000000
226938.000000
227771.000000
228640.000000
229523.000000
230282.000000
230986.000000
231661.000000
232343.000000
233061.000000
233888.000000
234800.000000
235640.000000
236374.000000
237068.000000
237742.000000
238447.000000
239117.000000
239775.000000
240444.000000
241165.000000
242030.000000
242910.000000
243739.000000
244480.000000
245156.000000
245818.000000
246488.000000
247222.000000
248136.000000
249052.000000
249945.000000
250749.000000
251460.000000
252151.000000
252856.000000
253621.000000
254467.000000
255441.000000
256319.000000
257093.000000
257799.000000
258486.000000
259222.000000
260117.000000
261018.000000
261998.000000
262886.000000
263688.000000
264408.000000
265091.000000
265846.000000
266624.000000
267512.000000
268402.000000
269291.000000
270040.000000
270734.000000
271435.000000
272175.000000
273133.000000
274096.000000
274972.000000
275731.000000
276436.000000
277131.000000
277877.000000
278822.000000
279824.000000
280776.000000
281628.000000
282372.000000
283080.000000
283828.000000
284680.000000
285572.000000
286478.000000
287267.000000
287980.000000
288677.000000
289419.000000
290364.000000
291436.000000
292403.000000
293176.000000
293913.000000
294674.000000
295452.000000
296401.000000
297223.000000
297947.000000
298665.000000
299398.000000
300198.000000
301250.000000
302233.000000
303052.000000
303776.000000
304478.000000
305215.000000
306018.000000
306978.000000
307829.000000
308564.000000
309284.000000
310035.000000
310909.000000
311868.000000
312801.000000
313601.000000
314318.000000
315026.000000
315848.000000
316761.000000
317705.000000
318507.000000
319231.000000
319981.000000
320828.000000
321750.000000
322633.000000
323367.000000
324076.000000
324853.000000
325817.000000
326729.000000
327565.000000
328305.000000
329013.000000
329765.000000
330660.000000
331564.000000
332499.000000
333279.000000
333998.000000
334717.000000
335502.000000
336329.000000
337255.000000
338107.000000
338845.000000
339538.000000
340241.000000
341002.000000
341921.000000
342834.000000
343695.000000
344447.000000
345170.000000
345905.000000
346779.000000
347651.000000
348517.000000
349285.000000
349974.000000
350658.000000
351382.000000
352232.000000
353124.000000
353879.000000
354607.000000
355388.000000
356336.000000
357266.000000
358112.000000
358843.000000
359525.000000
360183.000000
360868.000000
361990.000000
363005.000000
363977.000000
364898.000000
365787.000000
366656.000000
367386.000000
368093.000000
368867.000000
369911.000000
370874.000000
371693.000000
372402.000000
373074.000000
373747.000000
374471.000000
375608.000000
376575.000000
377492.000000
378334.000000
379077.000000
379790.000000
380484.000000
381191.000000
381936.000000
382794.000000
383604.000000
384378.000000
385091.000000
385770.000000
386441.000000
387117.000000
387818.000000
388602.000000
389386.000000
390221.000000
391016.000000
391730.000000
392413.000000
393069.000000
393734.000000
394447.000000
395272.000000
396224.000000
397078.000000
397884.000000
398622.000000
399312.000000
399981.000000
400643.000000
401333.000000
402055.000000
402838.000000
403620.000000
404407.000000
405176.000000
405906.000000
406589.000000
407241.000000
407886.000000
408551.000000
409273.000000
410118.000000
410895.000000
411642.000000
412350.000000
413027.000000
413674.000000
414310.000000
414947.000000
415616.000000
416371.000000
417145.000000
417966.000000
418757.000000
419498.000000
420184.000000
420839.000000
421485.000000
422128.000000
422787.000000
423478.000000
424165.000000
424831.000000
425471.000000
426099.000000
426750.000000
427402.000000
428037.000000
428673.000000
429326.000000
430044.000000
430831.000000
431674.000000
432486.000000
433264.000000
433975.000000
434647.000000
435304.000000
435963.000000
436723.000000
437521.000000
438457.000000
439398.000000
440236.000000
440962.000000
441661.000000
442379.000000
443137.000000
444176.000000
445093.000000
445867.000000
446588.000000
447288.000000
448018.000000
448861.000000
449904.000000
450920.000000
451695.000000
452405.000000
453111.000000
453858.000000
454878.000000
455849.000000
456623.000000
457356.000000
458090.000000
458969.000000
459888.000000
460812.000000
461684.000000
462473.000000
463189.000000
463898.000000
464627.000000
465471.000000
466366.000000
467302.000000
468111.000000
468835.000000
469545.000000
470300.000000
471094.000000
471947.000000
472769.000000
473522.000000
474220.000000
474915.000000
475640.000000
476569.000000
477525.000000
478429.000000
479229.000000
479924.000000
480595.000000
481266.000000
481999.000000
482964.000000
483919.000000
484826.000000
485598.000000
486308.000000
487001.000000
487693.000000
488428.000000
489231.000000
490063.000000
491046.000000
491940.000000
492678.000000
493388.000000
494125.000000
494898.000000
495793.000000
496683.000000
497619.000000
498474.000000
499224.000000
499911.000000
500587.000000
501286.000000
502307.000000
503356.000000
504303.000000
505203.000000
506020.000000
506774.000000
507471.000000
508174.000000
508980.000000
509938.000000
510891.000000
511784.000000
512622.000000
513355.000000
514051.000000
514755.000000
515538.000000
516629.000000
517566.000000
518403.000000
519206.000000
519976.000000
520683.000000
521362.000000
522038.000000
522835.000000
523851.000000
524830.000000
525670.000000
526414.000000
527120.000000
527787.000000
528447.000000
529137.000000
530168.000000
531234.000000
532167.000000
532956.000000
533666.000000
534350.000000
535031.000000
535757.000000
536613.000000
537531.000000
538496.000000
539360.000000
540091.000000
540783.000000
541457.000000
542170.000000
543238.000000
544145.000000
545069.000000
545955.000000
546847.000000
547715.000000
548547.000000
549288.000000
549972.000000
550654.000000
551453.000000
552582.000000
553652.000000
554608.000000
555520.000000
556371.000000
557132.000000
557840.000000
558522.000000
559236.000000
560025.000000
560953.000000
561827.000000
562667.000000
563470.000000
564191.000000
564877.000000
565551.000000
566231.000000
566953.000000
567741.000000
568515.000000
569302.000000
570003.000000
570691.000000
571357.000000
572036.000000
572801.000000
573623.000000
574402.000000
575140.000000
575873.000000
576558.000000
577222.000000
577890.000000
578589.000000
579349.000000
580246.000000
581126.000000
581901.000000
582609.000000
583296.000000
583990.000000
584751.000000
585551.000000
586374.000000
587124.000000
587842.000000
588562.000000
589246.000000
589910.000000
590560.000000
591216.000000
591913.000000
592852.000000
593870.000000
594764.000000
595629.000000
596436.000000
597200.000000
597896.000000
598562.000000
599206.000000
599852.000000
600507.000000
601250.000000
602300.000000
603342.000000
604269.000000
605163.000000
605940.000000
606643.000000
607323.000000
608022.000000
608806.000000
609797.000000
610796.000000
611650.000000
612409.000000
613148.000000
613899.000000
614702.000000
615642.000000
616595.000000
617495.000000
618240.000000
618971.000000
619705.000000
620474.000000
621404.000000
622316.000000
623118.000000
623841.000000
624585.000000
625364.000000
626250.000000
627171.000000
627959.000000
628689.000000
629422.000000
630199.000000
631069.000000
632001.000000
632942.000000
633706.000000
634449.000000
635218.000000
636073.000000
636993.000000
637933.000000
638816.000000
639576.000000
640301.000000
641047.000000
641926.000000
642965.000000
643980.000000
644856.000000
645601.000000
646325.000000
647061.000000
647957.000000
648952.000000
649810.000000
650541.000000
651239.000000
651932.000000
652693.000000
653723.000000
654669.000000
655470.000000
656190.000000
656882.000000
657586.000000
658371.000000
659301.000000
660189.000000
660978.000000
661700.000000
662423.000000
663163.000000
664027.000000
664967.000000
665927.000000
666799.000000
667624.000000
668348.000000
669052.000000
669772.000000
670520.000000
671344.000000
672148.000000
672880.000000
673567.000000
674246.000000
674937.000000
675783.000000
676821.000000
677815.000000
678729.000000
679487.000000
680205.000000
680904.000000
681607.000000
682415.000000
683337.000000
684220.000000
685005.000000
685709.000000
686399.000000
687104.000000
687951.000000
688856.000000
689681.000000
690471.000000
691196.000000
691881.000000
692548.000000
693228.000000
693952.000000
694716.000000
695549.000000
696387.000000
697161.000000
697875.000000
698564.000000
699246.000000
699979.000000
700750.000000
701667.000000
702537.000000
703349.000000
704067.000000
704758.000000
705440.000000
706187.000000
707022.000000
707864.000000
708690.000000
709445.000000
710152.000000
710849.000000
711589.000000
712451.000000
713432.000000
714441.000000
715239.000000
715972.000000
716688.000000
717428.000000
718443.000000
719397.000000
720287.000000
721057.000000
721788.000000
722522.000000
723351.000000
724259.000000
725234.000000
726104.000000
726868.000000
727600.000000
728326.000000
729081.000000
729993.000000
730910.000000
731806.000000
732546.000000
733255.000000
733951.000000
734673.000000
735554.000000
736546.000000
737547.000000
738452.000000
739210.000000
739922.000000
740629.000000
741380.000000
742391.000000
743408.000000
744344.000000
745284.000000
746113.000000
746886.000000
747585.000000
748338.000000
749429.000000
750421.000000
751387.000000
752241.000000
753035.000000
753773.000000
754603.000000
755585.000000
756577.000000
757469.000000
758262.000000
759013.000000
759762.000000
760660.000000
761681.000000
762765.000000
763589.000000
764355.000000
765124.000000
766117.000000
767147.000000
768107.000000
769106.000000
770044.000000
770866.000000
771693.000000
772511.000000
773481.000000
774433.000000
775368.000000
776278.000000
777145.000000
777973.000000
778790.000000
779595.000000
780433.000000
781377.000000
782247.000000
783080.000000
783823.000000
784539.000000
785272.000000
786045.000000
786932.000000
787818.000000
788615.000000
789333.000000
790031.000000
790756.000000
791565.000000
792429.000000
793351.000000
794148.000000
794865.000000
795603.000000
796366.000000
797276.000000
798199.000000
799079.000000
799859.000000
800579.000000
801318.000000
802095.000000
803002.000000
803922.000000
804711.000000
805430.000000
806162.000000
806966.000000
807974.000000
808842.000000
809617.000000
810354.000000
811188.000000
812197.000000
813161.000000
813971.000000
814701.000000
815408.000000
816156.000000
817116.000000
818137.000000
819092.000000
819935.000000
820673.000000
821380.000000
822121.000000
822917.000000
823794.000000
824760.000000
825653.000000
826472.000000
827251.000000
827962.000000
828640.000000
829304.000000
830011.000000
830797.000000
831627.000000
832446.000000
833212.000000
833958.000000
834654.000000
835329.000000
835996.000000
836699.000000
837476.000000
838229.000000
838924.000000
839587.000000
840238.000000
840884.000000
841518.000000
842155.000000
842807.000000
843524.000000
844399.000000
845340.000000
846130.000000
846827.000000
847501.000000
848190.000000
848969.000000
849834.000000
850689.000000
851523.000000
852246.000000
852941.000000
853627.000000
854369.000000
855250.000000
856138.000000
857045.000000
857816.000000
858536.000000
859233.000000
859941.000000
860752.000000
861740.000000
862648.000000
863455.000000
864166.000000
864851.000000
865545.000000
866319.000000
867263.000000
868266.000000
869163.000000
869896.000000
870591.000000
871266.000000
871946.000000
872689.000000
873532.000000
874315.000000
875061.000000
875774.000000
876467.000000
877140.000000
877823.000000
878593.000000
879549.000000
880446.000000
881272.000000
882028.000000
882733.000000
883409.000000
884087.000000
884819.000000
885733.000000
886660.000000
887545.000000
888337.000000
889050.000000
889734.000000
890418.000000
891110.000000
891905.000000
892865.000000
893738.000000
894541.000000
895250.000000
895939.000000
896623.000000
897358.000000
898167.000000
899144.000000
900060.000000
