ECG (ms)
957.000000
1988.000000
3030.000000
4036.000000
5018.000000
5956.000000
6810.000000
7603.000000
8460.000000
9580.000000
10595.000000
11592.000000
12628.000000
13569.000000
14424.000000
15266.000000
16130.000000
16981.000000
17886.000000
18890.000000
19876.000000
20760.000000
21603.000000
22449.000000
23340.000000
24225.000000
25135.000000
26008.000000
26950.000000
27937.000000
28878.000000
29758.000000
30653.000000
31566.000000
32490.000000
33381.000000
34281.000000
35231.000000
36223.000000
37164.000000
38059.000000
38963.000000
39878.000000
40800.000000
41739.000000
42745.000000
43911.000000
44966.000000
45972.000000
46977.000000
47979.000000
48968.000000
49939.000000
50916.000000
51883.000000
52833.000000
53818.000000
54857.000000
55879.000000
56916.000000
57965.000000
58975.000000
59932.000000
60838.000000
61756.000000
62705.000000
63706.000000
64811.000000
65920.000000
66979.000000
68013.000000
69023.000000
70038.000000
71032.000000
72029.000000
73059.000000
74115.000000
75167.000000
76222.000000
77248.000000
78223.000000
79191.000000
80170.000000
81162.000000
82143.000000
83125.000000
84141.000000
85196.000000
86211.000000
87230.000000
88217.000000
89201.000000
90203.000000
91208.000000
92201.000000
93219.000000
94226.000000
95200.000000
96161.000000
97113.000000
98096.000000
99130.000000
100232.000000
101331.000000
102451.000000
103520.000000
104549.000000
105525.000000
106396.000000
107214.000000
108058.000000
109020.000000
110287.000000
111424.000000
112505.000000
113585.000000
114669.000000
115729.000000
116772.000000
117787.000000
118771.000000
119737.000000
120724.000000
121748.000000
122744.000000
123798.000000
124891.000000
125971.000000
127005.000000
128069.000000
129117.000000
130108.000000
131069.000000
132058.000000
133095.000000
134182.000000
135265.000000
136368.000000
137408.000000
138437.000000
139416.000000
140417.000000
141456.000000
142521.000000
143580.000000
144703.000000
145829.000000
146900.000000
147934.000000
148935.000000
149913.000000
150786.000000
151673.000000
152738.000000
153882.000000
154909.000000
155943.000000
156976.000000
157967.000000
158976.000000
159930.000000
160760.000000
161566.000000
162413.000000
163295.000000
164340.000000
165407.000000
166503.000000
167549.000000
168521.000000
169402.000000
170251.000000
171128.000000
172090.000000
173111.000000
174293.000000
175397.000000
176472.000000
177491.000000
178477.000000
179465.000000
180460.000000
181489.000000
182499.000000
183548.000000
184588.000000
185635.000000
186676.000000
187674.000000
188693.000000
189657.000000
190585.000000
191512.000000
192390.000000
193530.000000
194574.000000
195645.000000
196733.000000
197765.000000
198794.000000
199798.000000
200761.000000
201707.000000
202579.000000
203539.000000
204689.000000
205747.000000
206820.000000
207887.000000
208911.000000
209923.000000
210924.000000
211952.000000
213005.000000
214068.000000
215097.000000
216099.000000
217094.000000
218112.000000
219165.000000
220205.000000
221253.000000
222306.000000
223329.000000
224314.000000
225348.000000
226420.000000
227452.000000
228502.000000
229490.000000
230442.000000
231347.000000
232195.000000
233408.000000
234565.000000
235673.000000
236714.000000
237740.000000
238756.000000
239758.000000
240768.000000
241801.000000
242805.000000
243782.000000
244796.000000
245837.000000
246859.000000
247885.000000
248946.000000
250014.000000
251004.000000
251988.000000
252948.000000
253899.000000
254875.000000
255836.000000
256821.000000
257799.000000
258801.000000
259823.000000
260817.000000
261848.000000
262841.000000
263787.000000
264728.000000
265567.000000
266482.000000
267375.000000
268417.000000
269575.000000
270644.000000
271694.000000
272746.000000
273775.000000
274754.000000
275717.000000
276681.000000
277667.000000
278663.000000
279732.000000
280824.000000
281847.000000
282823.000000
283792.000000
284720.000000
285606.000000
286488.000000
287442.000000
288336.000000
289161.000000
289985.000000
290958.000000
291928.000000
292921.000000
293885.000000
294779.000000
295676.000000
296619.000000
297511.000000
298369.000000
299255.000000
300178.000000
301126.000000
302008.000000
302881.000000
303835.000000
304761.000000
305661.000000
306571.000000
307509.000000
308384.000000
309230.000000
310038.000000
310830.000000
311649.000000
312530.000000
313393.000000
314217.000000
315069.000000
315965.000000
317060.000000
318114.000000
319127.000000
320166.000000
321170.000000
322159.000000
323148.000000
324153.000000
325204.000000
326263.000000
327287.000000
328304.000000
329351.000000
330396.000000
331427.000000
332423.000000
333369.000000
334299.000000
335235.000000
336257.000000
337322.000000
338469.000000
339528.000000
340568.000000
341608.000000
342635.000000
343624.000000
344613.000000
345607.000000
346626.000000
347645.000000
348686.000000
349704.000000
350695.000000
351701.000000
352662.000000
353620.000000
354580.000000
355562.000000
356551.000000
357535.000000
358536.000000
359524.000000
360513.000000
361472.000000
362306.000000
363072.000000
363842.000000
364638.000000
365532.000000
366641.000000
367743.000000
368772.000000
369785.000000
370770.000000
371739.000000
372581.000000
373424.000000
374270.000000
375184.000000
376106.000000
377004.000000
377911.000000
378818.000000
379728.000000
380633.000000
381513.000000
382422.000000
383344.000000
384284.000000
385192.000000
386101.000000
387137.000000
388229.000000
389297.000000
390267.000000
391159.000000
392015.000000
392932.000000
394129.000000
395203.000000
396228.000000
397210.000000
398219.000000
399258.000000
400309.000000
401349.000000
402380.000000
403376.000000
404388.000000
405378.000000
406358.000000
407330.000000
408312.000000
409310.000000
410348.000000
411384.000000
412437.000000
413471.000000
414464.000000
415437.000000
416411.000000
417404.000000
418389.000000
419400.000000
420429.000000
421459.000000
422525.000000
423555.000000
424547.000000
425497.000000
426411.000000
427281.000000
428284.000000
429291.000000
430284.000000
431232.000000
432132.000000
433040.000000
433968.000000
434867.000000
435731.000000
436619.000000
437529.000000
438425.000000
439294.000000
440166.000000
441040.000000
441915.000000
442816.000000
443798.000000
444845.000000
445861.000000
446870.000000
447851.000000
448737.000000
449596.000000
450477.000000
451430.000000
452540.000000
453573.000000
454558.000000
455515.000000
456487.000000
457453.000000
458426.000000
459381.000000
460308.000000
461218.000000
462145.000000
463050.000000
463973.000000
464922.000000
465893.000000
466817.000000
467746.000000
468701.000000
469713.000000
470845.000000
471859.000000
472845.000000
473819.000000
474808.000000
475828.000000
476837.000000
477857.000000
478858.000000
479853.000000
480812.000000
481778.000000
482744.000000
483734.000000
484712.000000
485703.000000
486685.000000
487649.000000
488614.000000
489577.000000
490537.000000
491478.000000
492402.000000
493280.000000
494179.000000
495056.000000
495946.000000
496968.000000
498090.000000
499145.000000
500158.000000
501168.000000
502173.000000
503185.000000
504206.000000
505178.000000
506112.000000
507073.000000
508043.000000
509014.000000
509983.000000
511014.000000
512068.000000
513098.000000
514145.000000
515178.000000
516159.000000
517143.000000
518138.000000
519019.000000
520020.000000
521165.000000
522233.000000
523253.000000
524265.000000
525257.000000
526254.000000
527284.000000
528351.000000
529400.000000
530405.000000
531368.000000
532344.000000
533302.000000
534220.000000
535077.000000
535935.000000
536840.000000
538006.000000
539050.000000
540093.000000
541150.000000
542192.000000
543235.000000
544279.000000
545250.000000
546203.000000
547184.000000
548190.000000
549185.000000
550215.000000
551258.000000
552239.000000
553189.000000
554099.000000
554965.000000
556141.000000
557197.000000
558302.000000
559409.000000
560491.000000
561449.000000
562252.000000
563040.000000
563835.000000
564692.000000
565724.000000
566686.000000
567636.000000
568598.000000
569551.000000
570498.000000
571390.000000
572218.000000
573044.000000
573865.000000
574697.000000
575533.000000
576388.000000
577239.000000
578133.000000
579053.000000
579986.000000
580872.000000
581741.000000
582662.000000
583577.000000
584464.000000
585330.000000
586201.000000
587094.000000
588002.000000
588884.000000
589794.000000
590747.000000
591655.000000
592560.000000
593466.000000
594385.000000
595272.000000
596163.000000
597069.000000
597969.000000
598845.000000
599744.000000
600691.000000
601654.000000
602543.000000
603421.000000
604337.000000
605286.000000
606177.000000
607065.000000
607968.000000
608872.000000
609754.000000
610611.000000
611466.000000
612369.000000
613274.000000
614186.000000
615088.000000
615976.000000
616898.000000
617796.000000
618655.000000
619501.000000
620359.000000
621257.000000
622188.000000
623093.000000
623918.000000
624717.000000
625551.000000
626502.000000
627537.000000
628579.000000
629583.000000
630571.000000
631536.000000
632496.000000
633452.000000
634405.000000
635341.000000
636287.000000
637248.000000
638224.000000
639191.000000
640175.000000
641165.000000
642164.000000
643131.000000
644057.000000
645007.000000
646048.000000
647088.000000
648125.000000
649172.000000
650178.000000
651179.000000
652178.000000
653181.000000
654205.000000
655255.000000
656293.000000
657316.000000
658330.000000
659323.000000
660295.000000
661275.000000
662263.000000
663249.000000
664200.000000
665170.000000
666155.000000
667103.000000
668011.000000
668907.000000
669749.000000
670610.000000
671505.000000
672412.000000
673403.000000
674406.000000
675395.000000
676338.000000
677224.000000
678106.000000
679036.000000
680070.000000
681154.000000
682192.000000
683127.000000
683961.000000
684871.000000
686029.000000
687071.000000
688093.000000
689085.000000
690078.000000
691069.000000
692055.000000
693053.000000
694061.000000
695044.000000
696020.000000
697010.000000
697995.000000
698993.000000
700003.000000
701010.000000
702039.000000
703060.000000
704065.000000
705043.000000
706055.000000
707037.000000
708013.000000
708955.000000
709880.000000
710820.000000
711806.000000
712823.000000
713824.000000
714837.000000
715826.000000
716813.000000
717805.000000
718787.000000
719748.000000
720728.000000
721718.000000
722715.000000
723710.000000
724696.000000
725677.000000
726660.000000
727647.000000
728627.000000
729605.000000
730601.000000
731587.000000
732587.000000
733598.000000
734619.000000
735643.000000
736671.000000
737697.000000
738734.000000
739744.000000
740736.000000
741698.000000
742633.000000
743618.000000
744604.000000
745587.000000
746581.000000
747571.000000
748556.000000
749517.000000
750486.000000
751381.000000
752220.000000
753072.000000
753941.000000
754882.000000
755758.000000
756662.000000
757598.000000
758505.000000
759400.000000
760321.000000
761240.000000
762123.000000
763009.000000
763908.000000
764815.000000
765748.000000
766684.000000
767721.000000
768774.000000
769844.000000
770854.000000
771815.000000
772784.000000
773750.000000
774743.000000
775730.000000
776726.000000
777726.000000
778713.000000
779681.000000
780650.000000
781618.000000
782556.000000
783474.000000
784327.000000
785215.000000
786093.000000
787010.000000
787924.000000
788806.000000
789725.000000
790682.000000
791585.000000
792503.000000
793424.000000
794377.000000
795290.000000
796163.000000
797031.000000
797916.000000
798825.000000
799729.000000
800632.000000
801524.000000
802414.000000
803289.000000
804187.000000
805092.000000
805982.000000
806867.000000
807756.000000
808672.000000
809580.000000
810493.000000
811379.000000
812287.000000
813164.000000
814025.000000
814908.000000
815745.000000
816549.000000
817408.000000
818445.000000
819520.000000
820519.000000
821526.000000
822530.000000
823519.000000
824488.000000
825460.000000
826443.000000
827451.000000
828454.000000
829456.000000
830477.000000
831493.000000
832528.000000
833566.000000
834616.000000
835655.000000
836673.000000
837663.000000
838658.000000
839648.000000
840652.000000
841655.000000
842651.000000
843656.000000
844666.000000
845654.000000
846630.000000
847613.000000
848605.000000
849597.000000
850585.000000
851598.000000
852598.000000
853583.000000
854568.000000
855592.000000
856621.000000
857658.000000
858665.000000
859674.000000
860664.000000
861651.000000
862621.000000
863642.000000
864682.000000
865679.000000
866685.000000
867713.000000
868695.000000
869663.000000
870622.000000
871578.000000
872472.000000
873375.000000
874336.000000
875441.000000
876511.000000
877549.000000
878577.000000
879573.000000
880561.000000
881571.000000
882582.000000
883578.000000
884608.000000
885603.000000
886577.000000
887539.000000
888520.000000
889567.000000
890625.000000
891664.000000
892636.000000
893653.000000
894702.000000
895739.000000
896769.000000
897786.000000
898770.000000
899765.000000
900631.000000
901518.000000
902596.000000
