ECG (ms)
91.000000
903.000000
1731.000000
2565.000000
3389.000000
4213.000000
5046.000000
5876.000000
6693.000000
7522.000000
8350.000000
9169.000000
10000.000000
10836.000000
11660.000000
12490.000000
13325.000000
14154.000000
14989.000000
15845.000000
16691.000000
17527.000000
18365.000000
19211.000000
20038.000000
20866.000000
21697.000000
22537.000000
23369.000000
24213.000000
25073.000000
25922.000000
26783.000000
27655.000000
28523.000000
29370.000000
30222.000000
31070.000000
31902.000000
32746.000000
33593.000000
34430.000000
35276.000000
36128.000000
36978.000000
37819.000000
38655.000000
39479.000000
40296.000000
41120.000000
41950.000000
42782.000000
43629.000000
44484.000000
45331.000000
46179.000000
47034.000000
47871.000000
48711.000000
49550.000000
50373.000000
51208.000000
52037.000000
52856.000000
53690.000000
54523.000000
55342.000000
56173.000000
57009.000000
57836.000000
58664.000000
59497.000000
60328.000000
61154.000000
61997.000000
62839.000000
63672.000000
64525.000000
65378.000000
66223.000000
67072.000000
67924.000000
68764.000000
69615.000000
70470.000000
71321.000000
72161.000000
73011.000000
73853.000000
74695.000000
75536.000000
76379.000000
77215.000000
78048.000000
78901.000000
79760.000000
80626.000000
81508.000000
82384.000000
83237.000000
84082.000000
84935.000000
85771.000000
86598.000000
87437.000000
88269.000000
89093.000000
89921.000000
90758.000000
91589.000000
92412.000000
93246.000000
94071.000000
94881.000000
95688.000000
96493.000000
97288.000000
98090.000000
98890.000000
99689.000000
100496.000000
101309.000000
102115.000000
102924.000000
103736.000000
104544.000000
105356.000000
106182.000000
107003.000000
107805.000000
108616.000000
109420.000000
110216.000000
111019.000000
111828.000000
112630.000000
113434.000000
114244.000000
115051.000000
115847.000000
116644.000000
117443.000000
118231.000000
119030.000000
119832.000000
120634.000000
121430.000000
122236.000000
123038.000000
123832.000000
124623.000000
125406.000000
126184.000000
126968.000000
127748.000000
128530.000000
129314.000000
130105.000000
130901.000000
131697.000000
132492.000000
133294.000000
134085.000000
134883.000000
135680.000000
136484.000000
137301.000000
138133.000000
138962.000000
139790.000000
140627.000000
141459.000000
142263.000000
143056.000000
143860.000000
144668.000000
145471.000000
146288.000000
147107.000000
147923.000000
148731.000000
149547.000000
150358.000000
151162.000000
151973.000000
152784.000000
153587.000000
154387.000000
155204.000000
156028.000000
156842.000000
157660.000000
158490.000000
159309.000000
160119.000000
160936.000000
161749.000000
162562.000000
163367.000000
164189.000000
165023.000000
165846.000000
166681.000000
167512.000000
168334.000000
169165.000000
169996.000000
170815.000000
171630.000000
172449.000000
173257.000000
174069.000000
174890.000000
175711.000000
176523.000000
177343.000000
178168.000000
178997.000000
179839.000000
180687.000000
181520.000000
182340.000000
183165.000000
183987.000000
184804.000000
185632.000000
186463.000000
187283.000000
188120.000000
188953.000000
189789.000000
190619.000000
191456.000000
192299.000000
193145.000000
194000.000000
194848.000000
195686.000000
196524.000000
197362.000000
198186.000000
199005.000000
199828.000000
200645.000000
201465.000000
202295.000000
203126.000000
203950.000000
204788.000000
205623.000000
206444.000000
207268.000000
208097.000000
208927.000000
209757.000000
210592.000000
211428.000000
212256.000000
213090.000000
213924.000000
214760.000000
215596.000000
216429.000000
217251.000000
218087.000000
218926.000000
219766.000000
220615.000000
221457.000000
222279.000000
223105.000000
223919.000000
224732.000000
225545.000000
226366.000000
227193.000000
228025.000000
228864.000000
229698.000000
230528.000000
231356.000000
232177.000000
233004.000000
233833.000000
234669.000000
235511.000000
236343.000000
237189.000000
238040.000000
238884.000000
239718.000000
240552.000000
241376.000000
242182.000000
242998.000000
243813.000000
244624.000000
245428.000000
246246.000000
247064.000000
247868.000000
248669.000000
249465.000000
250244.000000
251006.000000
251710.000000
252431.000000
253180.000000
253944.000000
254736.000000
255542.000000
256326.000000
257112.000000
257897.000000
258670.000000
259450.000000
260246.000000
261032.000000
261815.000000
262613.000000
263405.000000
264190.000000
264983.000000
265770.000000
266558.000000
267349.000000
268148.000000
268944.000000
269731.000000
270526.000000
271319.000000
272100.000000
272903.000000
273702.000000
274498.000000
275296.000000
276100.000000
276908.000000
277708.000000
278506.000000
279297.000000
280082.000000
280865.000000
281655.000000
282442.000000
283227.000000
284021.000000
284817.000000
285613.000000
286402.000000
287198.000000
287984.000000
288768.000000
289563.000000
290365.000000
291168.000000
291972.000000
292780.000000
293587.000000
294381.000000
295184.000000
295969.000000
296746.000000
297523.000000
298306.000000
299093.000000
299873.000000
300668.000000
301462.000000
302254.000000
303053.000000
303865.000000
304686.000000
305493.000000
306309.000000
307120.000000
307921.000000
308718.000000
309528.000000
310341.000000
311149.000000
311964.000000
312778.000000
313581.000000
314381.000000
315183.000000
315988.000000
316788.000000
317587.000000
318382.000000
319180.000000
319970.000000
320764.000000
321546.000000
322326.000000
323096.000000
323866.000000
324646.000000
325442.000000
326243.000000
327053.000000
327872.000000
328678.000000
329478.000000
330269.000000
331055.000000
331837.000000
332621.000000
333406.000000
334190.000000
334988.000000
335804.000000
336623.000000
337436.000000
338259.000000
339086.000000
339910.000000
340728.000000
341560.000000
342394.000000
343217.000000
344047.000000
344882.000000
345709.000000
346525.000000
347336.000000
348149.000000
348958.000000
349772.000000
350595.000000
351427.000000
352248.000000
353079.000000
353905.000000
354721.000000
355533.000000
356343.000000
357149.000000
357943.000000
358747.000000
359561.000000
360369.000000
361180.000000
361998.000000
362815.000000
363627.000000
364443.000000
365256.000000
366061.000000
366862.000000
367662.000000
368461.000000
369265.000000
370079.000000
370901.000000
371721.000000
372548.000000
373381.000000
374213.000000
375043.000000
375872.000000
376689.000000
377504.000000
378331.000000
379150.000000
379966.000000
380790.000000
381620.000000
382436.000000
383251.000000
384061.000000
384865.000000
385673.000000
386474.000000
387272.000000
388069.000000
388870.000000
389670.000000
390476.000000
391296.000000
392123.000000
392954.000000
393781.000000
394605.000000
395409.000000
396203.000000
396992.000000
397775.000000
398562.000000
399344.000000
400139.000000
400948.000000
401752.000000
402556.000000
403363.000000
404173.000000
404974.000000
405772.000000
406576.000000
407380.000000
408185.000000
409005.000000
409831.000000
410648.000000
411468.000000
412278.000000
413082.000000
413883.000000
414689.000000
415484.000000
416275.000000
417058.000000
417845.000000
418621.000000
419393.000000
420196.000000
420990.000000
421770.000000
422550.000000
423324.000000
424068.000000
424777.000000
425477.000000
426200.000000
426959.000000
427753.000000
428537.000000
429335.000000
430130.000000
430922.000000
431736.000000
432527.000000
433314.000000
434083.000000
434887.000000
435705.000000
436506.000000
437333.000000
438159.000000
438980.000000
439809.000000
440627.000000
441435.000000
442231.000000
443028.000000
443825.000000
444622.000000
445432.000000
446257.000000
447076.000000
447888.000000
448709.000000
449528.000000
450346.000000
451140.000000
451932.000000
452736.000000
453564.000000
454388.000000
455222.000000
456051.000000
456872.000000
457680.000000
458479.000000
459268.000000
460065.000000
460877.000000
461716.000000
462552.000000
463405.000000
464255.000000
465102.000000
465934.000000
466777.000000
467624.000000
468465.000000
469305.000000
470149.000000
470992.000000
471825.000000
472667.000000
473524.000000
474372.000000
475210.000000
476050.000000
476877.000000
477692.000000
478502.000000
479323.000000
480153.000000
480988.000000
481836.000000
482695.000000
483543.000000
484384.000000
485229.000000
486072.000000
486894.000000
487718.000000
488548.000000
489366.000000
490177.000000
490998.000000
491810.000000
492619.000000
493429.000000
494254.000000
495086.000000
495904.000000
496728.000000
497553.000000
498374.000000
499201.000000
500037.000000
500882.000000
501722.000000
502572.000000
503432.000000
504273.000000
505105.000000
505943.000000
506771.000000
507594.000000
508429.000000
509253.000000
510083.000000
510908.000000
511747.000000
512587.000000
513413.000000
514245.000000
515078.000000
515900.000000
516683.000000
517427.000000
518189.000000
518963.000000
519779.000000
520616.000000
521443.000000
522273.000000
523110.000000
523936.000000
524746.000000
525564.000000
526378.000000
527181.000000
527989.000000
528800.000000
529623.000000
530435.000000
531259.000000
532091.000000
532909.000000
533741.000000
534575.000000
535401.000000
536228.000000
537065.000000
537908.000000
538738.000000
539571.000000
540406.000000
541244.000000
542074.000000
542903.000000
543721.000000
544529.000000
545349.000000
546184.000000
547012.000000
547847.000000
548693.000000
549538.000000
550364.000000
551192.000000
552012.000000
552818.000000
553621.000000
554428.000000
555237.000000
556047.000000
556860.000000
557683.000000
558509.000000
559337.000000
560174.000000
561024.000000
561861.000000
562694.000000
563527.000000
564350.000000
565169.000000
565990.000000
566816.000000
567629.000000
568452.000000
569284.000000
570106.000000
570929.000000
571759.000000
572588.000000
573416.000000
574256.000000
575101.000000
575937.000000
576772.000000
577607.000000
578446.000000
579282.000000
580126.000000
580970.000000
581810.000000
582642.000000
583478.000000
584328.000000
585159.000000
585984.000000
586818.000000
587644.000000
588459.000000
589259.000000
590064.000000
590881.000000
591699.000000
592526.000000
593356.000000
594188.000000
595015.000000
595848.000000
596683.000000
597506.000000
598331.000000
599149.000000
599963.000000
600774.000000
601595.000000
602412.000000
603225.000000
604056.000000
604887.000000
605709.000000
606538.000000
607367.000000
608182.000000
608985.000000
609800.000000
610607.000000
611411.000000
612215.000000
613021.000000
613824.000000
614627.000000
615440.000000
616250.000000
617057.000000
617871.000000
618678.000000
619481.000000
620275.000000
621074.000000
621867.000000
622655.000000
623447.000000
624239.000000
625037.000000
625834.000000
626639.000000
627454.000000
628260.000000
629083.000000
629908.000000
630732.000000
631549.000000
632375.000000
633201.000000
634016.000000
634840.000000
635667.000000
636496.000000
637309.000000
638129.000000
638944.000000
639755.000000
640569.000000
641386.000000
642208.000000
643027.000000
643850.000000
644680.000000
645508.000000
646327.000000
647157.000000
647986.000000
648812.000000
649640.000000
650472.000000
651304.000000
652123.000000
652951.000000
653790.000000
654625.000000
655449.000000
656285.000000
657125.000000
657959.000000
658778.000000
659614.000000
660457.000000
661300.000000
662140.000000
662994.000000
663849.000000
664686.000000
665535.000000
666382.000000
667221.000000
668058.000000
668909.000000
669755.000000
670591.000000
671427.000000
672266.000000
673103.000000
673942.000000
674799.000000
675655.000000
676504.000000
677347.000000
678185.000000
679020.000000
679846.000000
680680.000000
681516.000000
682354.000000
683195.000000
684041.000000
684875.000000
685694.000000
686516.000000
687338.000000
688162.000000
688996.000000
689848.000000
690707.000000
691570.000000
692438.000000
693308.000000
694165.000000
695017.000000
695869.000000
696727.000000
697576.000000
698434.000000
699295.000000
700151.000000
700996.000000
701841.000000
702681.000000
703519.000000
704369.000000
705230.000000
706081.000000
706914.000000
707759.000000
708603.000000
709442.000000
710299.000000
711158.000000
712008.000000
712843.000000
713687.000000
714537.000000
715376.000000
716221.000000
717062.000000
717898.000000
718718.000000
719547.000000
720380.000000
721200.000000
722028.000000
722866.000000
723704.000000
724532.000000
725371.000000
726209.000000
727043.000000
727869.000000
728702.000000
729531.000000
730355.000000
731187.000000
732023.000000
732859.000000
733694.000000
734540.000000
735377.000000
736200.000000
737030.000000
737863.000000
738701.000000
739533.000000
740370.000000
741204.000000
742029.000000
742871.000000
743719.000000
744566.000000
745408.000000
746259.000000
747117.000000
747959.000000
748806.000000
749656.000000
750488.000000
751330.000000
752180.000000
753031.000000
753874.000000
754722.000000
755562.000000
756396.000000
757233.000000
758068.000000
758904.000000
759734.000000
760568.000000
761397.000000
762219.000000
763052.000000
763881.000000
764711.000000
765537.000000
766369.000000
767194.000000
768010.000000
768828.000000
769643.000000
770450.000000
771263.000000
772087.000000
772921.000000
773746.000000
774566.000000
775399.000000
776236.000000
777060.000000
777878.000000
778701.000000
779525.000000
780332.000000
781146.000000
781962.000000
782770.000000
783574.000000
784384.000000
785198.000000
786008.000000
786816.000000
787634.000000
788452.000000
789261.000000
790078.000000
790896.000000
791716.000000
792529.000000
793352.000000
794169.000000
794977.000000
795788.000000
796609.000000
797425.000000
798233.000000
799050.000000
799862.000000
800671.000000
801471.000000
802276.000000
803083.000000
803892.000000
804698.000000
805506.000000
806316.000000
807122.000000
807936.000000
808750.000000
809565.000000
810372.000000
811189.000000
812008.000000
812821.000000
813643.000000
814468.000000
815295.000000
816116.000000
816948.000000
817775.000000
818587.000000
819392.000000
820203.000000
821017.000000
821821.000000
822626.000000
823436.000000
824239.000000
825043.000000
825849.000000
826653.000000
827452.000000
828252.000000
829059.000000
829866.000000
830673.000000
831479.000000
832294.000000
833104.000000
833899.000000
834705.000000
835510.000000
836306.000000
837097.000000
837895.000000
838693.000000
839488.000000
840285.000000
841093.000000
841903.000000
842705.000000
843505.000000
844301.000000
845059.000000
845772.000000
846514.000000
847293.000000
848076.000000
848869.000000
849682.000000
850474.000000
851262.000000
852079.000000
852916.000000
853724.000000
854518.000000
855343.000000
856187.000000
856998.000000
857826.000000
858657.000000
859486.000000
860308.000000
861137.000000
861968.000000
862787.000000
863614.000000
864451.000000
865285.000000
866106.000000
866912.000000
867721.000000
868545.000000
869386.000000
870230.000000
871070.000000
871919.000000
872769.000000
873613.000000
874462.000000
875323.000000
876183.000000
877035.000000
877909.000000
878788.000000
879656.000000
880518.000000
881386.000000
882250.000000
883104.000000
883962.000000
884828.000000
885704.000000
886567.000000
887442.000000
888315.000000
889181.000000
890054.000000
890932.000000
891800.000000
892661.000000
893539.000000
894436.000000
895312.000000
896195.000000
897077.000000
897952.000000
898811.000000
899678.000000
