ECG (ms)
337.000000
1059.000000
1923.000000
3008.000000
4022.000000
5039.000000
6001.000000
6858.000000
7640.000000
8388.000000
9190.000000
10194.000000
11295.000000
12355.000000
13349.000000
14261.000000
15164.000000
15994.000000
16754.000000
17493.000000
18248.000000
19174.000000
20215.000000
21270.000000
22280.000000
23177.000000
24029.000000
24784.000000
25516.000000
26255.000000
27053.000000
28043.000000
29163.000000
30216.000000
31219.000000
32161.000000
33034.000000
33879.000000
34649.000000
35365.000000
36072.000000
36809.000000
37669.000000
38734.000000
39765.000000
40722.000000
41627.000000
42485.000000
43319.000000
44088.000000
44815.000000
45526.000000
46278.000000
47299.000000
48320.000000
49326.000000
50295.000000
51227.000000
52040.000000
52781.000000
53487.000000
54195.000000
54977.000000
56056.000000
57150.000000
58199.000000
59189.000000
60130.000000
61027.000000
61940.000000
62772.000000
63521.000000
64249.000000
64977.000000
65836.000000
66898.000000
67930.000000
68904.000000
69850.000000
70771.000000
71625.000000
72494.000000
73385.000000
74199.000000
74958.000000
75701.000000
76453.000000
77358.000000
78336.000000
79325.000000
80262.000000
81191.000000
82038.000000
82786.000000
83485.000000
84172.000000
84889.000000
85841.000000
86852.000000
87816.000000
88740.000000
89564.000000
90367.000000
91128.000000
91847.000000
92544.000000
93234.000000
93963.000000
94821.000000
95822.000000
96804.000000
97777.000000
98710.000000
99606.000000
100440.000000
101180.000000
101885.000000
102579.000000
103323.000000
104403.000000
105480.000000
106487.000000
107459.000000
108388.000000
109233.000000
109985.000000
110703.000000
111411.000000
112145.000000
113263.000000
114327.000000
115358.000000
116368.000000
117282.000000
118073.000000
118791.000000
119480.000000
120173.000000
121251.000000
122297.000000
123308.000000
124325.000000
125271.000000
126229.000000
127156.000000
128089.000000
129009.000000
129900.000000
130712.000000
131457.000000
132170.000000
132880.000000
133656.000000
134622.000000
135607.000000
136601.000000
137575.000000
138519.000000
139410.000000
140281.000000
141111.000000
141860.000000
142581.000000
143300.000000
144033.000000
145112.000000
146093.000000
147069.000000
148014.000000
148835.000000
149710.000000
150543.000000
151325.000000
152068.000000
152781.000000
153490.000000
154257.000000
155244.000000
156252.000000
157232.000000
158191.000000
159112.000000
159909.000000
160623.000000
161307.000000
161988.000000
162884.000000
163968.000000
164975.000000
165942.000000
166897.000000
167763.000000
168531.000000
169245.000000
169940.000000
170672.000000
171784.000000
172882.000000
173930.000000
174923.000000
175868.000000
176806.000000
177728.000000
178641.000000
179466.000000
180247.000000
180994.000000
181778.000000
182750.000000
183835.000000
184904.000000
185898.000000
186893.000000
187848.000000
188727.000000
189521.000000
190278.000000
191018.000000
191829.000000
192927.000000
193956.000000
194973.000000
195976.000000
196854.000000
197617.000000
198343.000000
199060.000000
199825.000000
200848.000000
201928.000000
202994.000000
204009.000000
204975.000000
205916.000000
206792.000000
207616.000000
208378.000000
209119.000000
209868.000000
210794.000000
211877.000000
212921.000000
213945.000000
214864.000000
215768.000000
216666.000000
217621.000000
218509.000000
219307.000000
220057.000000
220798.000000
221558.000000
222386.000000
223397.000000
224450.000000
225418.000000
226317.000000
227167.000000
227931.000000
228683.000000
229429.000000
230194.000000
231007.000000
232066.000000
233161.000000
234219.000000
235252.000000
236238.000000
237140.000000
237924.000000
238664.000000
239429.000000
240525.000000
241578.000000
242579.000000
243498.000000
244276.000000
245013.000000
245713.000000
246486.000000
247572.000000
248631.000000
249615.000000
250546.000000
251501.000000
252350.000000
253101.000000
253832.000000
254564.000000
255536.000000
256614.000000
257676.000000
258656.000000
259511.000000
260281.000000
261020.000000
261769.000000
262653.000000
263725.000000
264775.000000
265773.000000
266709.000000
267582.000000
268431.000000
269349.000000
270183.000000
270977.000000
271750.000000
272655.000000
273774.000000
274799.000000
275736.000000
276625.000000
277449.000000
278274.000000
279071.000000
279853.000000
280653.000000
281530.000000
282603.000000
283697.000000
284745.000000
285769.000000
286668.000000
287456.000000
288202.000000
288953.000000
289855.000000
290981.000000
292064.000000
293040.000000
293900.000000
294688.000000
295528.000000
296645.000000
297734.000000
298778.000000
299777.000000
300740.000000
301691.000000
302561.000000
303333.000000
304100.000000
304989.000000
306084.000000
307191.000000
308276.000000
309198.000000
310032.000000
310860.000000
311871.000000
312968.000000
314024.000000
315004.000000
315832.000000
316595.000000
317341.000000
318193.000000
319333.000000
320408.000000
321454.000000
322466.000000
323420.000000
324363.000000
325329.000000
326227.000000
327038.000000
327812.000000
328573.000000
329475.000000
330592.000000
331637.000000
332629.000000
333545.000000
334444.000000
335373.000000
336305.000000
337140.000000
337929.000000
338691.000000
339456.000000
340332.000000
341395.000000
342468.000000
343468.000000
344410.000000
345301.000000
346153.000000
346970.000000
347766.000000
348545.000000
349340.000000
350126.000000
350996.000000
352014.000000
353096.000000
354125.000000
355065.000000
355924.000000
356759.000000
357563.000000
358324.000000
359097.000000
359858.000000
360638.000000
361537.000000
362548.000000
363557.000000
364495.000000
365411.000000
366272.000000
367053.000000
367800.000000
368565.000000
369543.000000
370558.000000
371560.000000
372537.000000
373403.000000
374199.000000
374955.000000
375707.000000
376589.000000
377749.000000
378824.000000
379782.000000
380587.000000
381331.000000
382038.000000
382749.000000
383483.000000
384514.000000
385587.000000
386652.000000
387664.000000
388686.000000
389671.000000
390603.000000
391445.000000
392224.000000
392994.000000
393824.000000
394843.000000
395936.000000
397034.000000
398086.000000
399106.000000
400074.000000
400917.000000
401712.000000
402523.000000
403642.000000
404744.000000
405781.000000
406789.000000
407768.000000
408620.000000
409416.000000
410192.000000
410987.000000
412044.000000
413159.000000
414219.000000
415117.000000
415916.000000
416654.000000
417408.000000
418507.000000
419562.000000
420589.000000
421599.000000
422549.000000
423378.000000
424141.000000
424882.000000
425682.000000
426743.000000
427742.000000
428693.000000
429598.000000
430527.000000
431450.000000
432277.000000
433050.000000
433819.000000
434586.000000
435501.000000
436520.000000
437534.000000
438443.000000
439322.000000
440169.000000
440971.000000
441734.000000
442463.000000
443185.000000
443940.000000
444893.000000
445935.000000
446921.000000
447831.000000
448704.000000
449472.000000
450214.000000
450956.000000
451760.000000
452819.000000
453892.000000
454908.000000
455856.000000
456668.000000
457408.000000
458120.000000
458864.000000
460000.000000
461090.000000
462121.000000
463037.000000
463837.000000
464590.000000
465349.000000
466333.000000
467431.000000
468505.000000
469501.000000
470412.000000
471286.000000
472108.000000
472855.000000
473595.000000
474373.000000
475360.000000
476433.000000
477478.000000
478496.000000
479337.000000
480132.000000
480897.000000
481670.000000
482779.000000
483848.000000
484875.000000
485850.000000
486691.000000
487473.000000
488216.000000
488946.000000
489873.000000
490874.000000
491940.000000
492899.000000
493863.000000
494854.000000
495700.000000
496460.000000
497191.000000
497994.000000
499136.000000
500204.000000
501207.000000
502164.000000
503111.000000
503920.000000
504699.000000
505562.000000
506651.000000
507757.000000
508692.000000
509507.000000
510309.000000
511339.000000
512409.000000
513412.000000
514363.000000
515268.000000
516273.000000
517175.000000
517996.000000
518837.000000
519908.000000
521017.000000
522102.000000
523115.000000
523993.000000
524778.000000
525525.000000
526382.000000
527519.000000
528629.000000
529715.000000
530741.000000
531611.000000
532418.000000
533192.000000
534090.000000
535144.000000
536205.000000
537116.000000
538047.000000
539103.000000
540060.000000
540884.000000
541656.000000
542445.000000
543515.000000
544535.000000
545541.000000
546523.000000
547352.000000
548247.000000
549306.000000
550322.000000
551314.000000
552182.000000
552986.000000
553771.000000
554707.000000
555803.000000
556844.000000
557854.000000
558746.000000
559529.000000
560266.000000
561033.000000
562076.000000
563189.000000
564223.000000
565268.000000
566276.000000
567213.000000
568051.000000
568835.000000
569660.000000
570787.000000
571902.000000
572956.000000
573975.000000
574846.000000
575681.000000
576608.000000
577701.000000
578763.000000
579783.000000
580788.000000
581766.000000
582634.000000
583483.000000
584367.000000
585480.000000
586589.000000
587677.000000
588708.000000
589720.000000
590607.000000
591418.000000
592265.000000
593423.000000
594557.000000
595607.000000
596460.000000
597270.000000
598117.000000
599254.000000
600352.000000
601417.000000
602434.000000
603428.000000
604354.000000
605179.000000
606040.000000
607054.000000
608132.000000
609164.000000
610167.000000
611111.000000
611926.000000
612690.000000
613467.000000
614571.000000
615675.000000
616674.000000
617603.000000
618514.000000
619477.000000
620431.000000
621261.000000
622074.000000
622913.000000
624047.000000
625125.000000
626216.000000
627243.000000
628113.000000
628892.000000
629634.000000
630395.000000
631465.000000
632554.000000
633627.000000
634666.000000
635702.000000
636712.000000
637597.000000
638393.000000
639159.000000
640039.000000
641198.000000
642293.000000
643346.000000
644328.000000
645288.000000
646151.000000
646898.000000
647609.000000
648321.000000
649211.000000
650252.000000
651291.000000
652256.000000
653213.000000
654148.000000
655096.000000
656034.000000
656852.000000
657628.000000
658411.000000
659407.000000
660507.000000
661565.000000
662556.000000
663481.000000
664263.000000
664994.000000
665702.000000
666487.000000
667628.000000
668747.000000
669805.000000
670734.000000
671549.000000
672331.000000
673332.000000
674425.000000
675521.000000
676538.000000
677474.000000
678394.000000
679345.000000
680186.000000
680989.000000
681776.000000
682554.000000
683331.000000
684493.000000
685632.000000
686721.000000
687805.000000
688899.000000
689933.000000
690928.000000
691909.000000
692863.000000
693732.000000
694547.000000
695418.000000
696582.000000
697713.000000
698781.000000
699808.000000
700835.000000
701787.000000
702646.000000
703449.000000
704331.000000
705532.000000
706687.000000
707789.000000
708829.000000
709753.000000
710592.000000
711518.000000
712568.000000
713600.000000
714505.000000
715368.000000
716257.000000
717371.000000
718491.000000
719528.000000
720550.000000
721411.000000
722193.000000
722963.000000
723841.000000
725005.000000
726144.000000
727239.000000
728283.000000
729333.000000
730374.000000
731334.000000
732179.000000
733008.000000
734125.000000
735235.000000
736310.000000
737363.000000
738295.000000
739132.000000
739939.000000
741062.000000
742164.000000
743219.000000
744254.000000
745239.000000
746231.000000
747126.000000
747979.000000
748806.000000
749881.000000
750979.000000
752029.000000
753023.000000
754007.000000
754836.000000
755613.000000
756461.000000
757672.000000
758786.000000
759812.000000
760670.000000
761445.000000
762236.000000
763377.000000
764498.000000
765531.000000
766390.000000
767173.000000
767971.000000
769160.000000
770297.000000
771373.000000
772412.000000
773418.000000
774270.000000
775068.000000
775891.000000
776962.000000
778023.000000
778964.000000
779793.000000
780744.000000
781826.000000
782846.000000
783736.000000
784603.000000
785605.000000
786716.000000
787761.000000
788776.000000
789689.000000
790525.000000
791370.000000
792455.000000
793593.000000
794635.000000
795535.000000
796354.000000
797265.000000
798420.000000
799526.000000
800489.000000
801507.000000
802576.000000
803601.000000
804481.000000
805346.000000
806479.000000
807587.000000
808641.000000
809509.000000
810303.000000
811201.000000
812347.000000
813456.000000
814510.000000
815517.000000
816400.000000
817213.000000
817996.000000
818786.000000
819880.000000
820983.000000
822066.000000
823088.000000
823982.000000
824885.000000
825947.000000
827005.000000
827956.000000
828772.000000
829547.000000
830366.000000
831582.000000
832780.000000
833904.000000
834999.000000
836059.000000
836975.000000
837784.000000
838567.000000
839521.000000
840671.000000
841774.000000
842847.000000
843839.000000
844698.000000
845479.000000
846236.000000
847137.000000
848286.000000
849416.000000
850513.000000
851585.000000
852599.000000
853467.000000
854278.000000
855068.000000
855940.000000
857047.000000
858056.000000
858812.000000
859497.000000
860208.000000
861011.000000
861894.000000
862841.000000
863830.000000
864836.000000
865810.000000
866760.000000
867656.000000
868399.000000
869087.000000
869743.000000
870387.000000
871084.000000
872120.000000
873043.000000
873977.000000
874905.000000
875799.000000
876676.000000
877442.000000
878137.000000
878795.000000
879438.000000
880091.000000
881043.000000
881923.000000
882786.000000
883665.000000
884518.000000
885373.000000
886259.000000
887033.000000
887739.000000
888414.000000
889075.000000
889764.000000
890511.000000
891386.000000
892309.000000
893224.000000
894119.000000
894966.000000
895830.000000
896677.000000
897502.000000
898239.000000
898939.000000
899627.000000
900363.000000
901420.000000
902424.000000
903407.000000
904397.000000
905374.000000
906315.000000
907237.000000
908019.000000
908752.000000
909449.000000
910158.000000
911300.000000
912344.000000
913344.000000
914333.000000
915340.000000
916291.000000
917243.000000
918012.000000
918726.000000
919413.000000
920128.000000
921082.000000
922102.000000
923102.000000
924093.000000
925047.000000
925945.000000
926845.000000
927642.000000
928382.000000
929073.000000
929752.000000
930509.000000
931576.000000
932535.000000
933500.000000
934435.000000
935332.000000
936241.000000
937145.000000
937917.000000
938634.000000
939318.000000
940004.000000
940835.000000
941909.000000
942938.000000
943920.000000
944864.000000
945766.000000
946708.000000
947577.000000
948326.000000
949038.000000
949740.000000
950548.000000
951614.000000
952652.000000
953663.000000
954658.000000
955619.000000
956538.000000
957432.000000
958194.000000
958910.000000
959615.000000
960695.000000
961765.000000
962778.000000
963769.000000
964679.000000
965526.000000
966413.000000
967342.000000
968123.000000
968856.000000
969591.000000
970516.000000
971617.000000
972690.000000
973722.000000
974707.000000
975660.000000
976604.000000
977472.000000
978224.000000
978935.000000
979635.000000
980410.000000
981484.000000
982521.000000
983517.000000
984507.000000
985482.000000
986451.000000
987412.000000
988195.000000
988926.000000
989654.000000
990564.000000
991616.000000
992642.000000
993614.000000
994615.000000
995526.000000
996464.000000
997349.000000
998118.000000
998830.000000
999528.000000
1000282.000000
1001378.000000
1002443.000000
1003455.000000
1004452.000000
1005403.000000
1006313.000000
1007199.000000
1007959.000000
1008671.000000
1009364.000000
1010089.000000
1010908.000000
1012036.000000
1013117.000000
1014180.000000
1015239.000000
1016240.000000
1017229.000000
1018035.000000
1018778.000000
1019483.000000
1020220.000000
1021363.000000
1022439.000000
1023468.000000
1024462.000000
1025405.000000
1026292.000000
1027163.000000
1027919.000000
1028631.000000
1029334.000000
1030070.000000
1031179.000000
1032236.000000
1033226.000000
1034202.000000
1035168.000000
1036123.000000
1037053.000000
1037868.000000
1038602.000000
1039296.000000
1039978.000000
1041086.000000
1042140.000000
1043148.000000
1044132.000000
1045106.000000
1045996.000000
1046877.000000
1047671.000000
1048405.000000
1049120.000000
1049838.000000
1050640.000000
1051729.000000
1052798.000000
1053842.000000
1054841.000000
1055788.000000
1056732.000000
