ECG (ms)
681.000000
1515.000000
2398.000000
2841.000000
4184.000000
5041.000000
5923.000000
6794.000000
7649.000000
8542.000000
9500.000000
10432.000000
11371.000000
12344.000000
13259.000000
13725.000000
14962.000000
15731.000000
16442.000000
17147.000000
17886.000000
19284.000000
20242.000000
21180.000000
22193.000000
23187.000000
24091.000000
24968.000000
25874.000000
26749.000000
27600.000000
28465.000000
29332.000000
30168.000000
31013.000000
31875.000000
32702.000000
33491.000000
34287.000000
35077.000000
35851.000000
36603.000000
37337.000000
38047.000000
38742.000000
39457.000000
40217.000000
41021.000000
41842.000000
42644.000000
43408.000000
44153.000000
44909.000000
45695.000000
46536.000000
47336.000000
48144.000000
48930.000000
49674.000000
50394.000000
51104.000000
51836.000000
52621.000000
53400.000000
54179.000000
54976.000000
55772.000000
56567.000000
57367.000000
58157.000000
58942.000000
59728.000000
60509.000000
61288.000000
62065.000000
62845.000000
63621.000000
64378.000000
65127.000000
65901.000000
66738.000000
67565.000000
68360.000000
69173.000000
69997.000000
70788.000000
71583.000000
72389.000000
73216.000000
74053.000000
74911.000000
75783.000000
76674.000000
77501.000000
78331.000000
79179.000000
80023.000000
80844.000000
81682.000000
82541.000000
83370.000000
84175.000000
85059.000000
86007.000000
86898.000000
87749.000000
88608.000000
89462.000000
90299.000000
91140.000000
91998.000000
92846.000000
93665.000000
94499.000000
95337.000000
96193.000000
97121.000000
98036.000000
98925.000000
99792.000000
100659.000000
101502.000000
102307.000000
103097.000000
103928.000000
104798.000000
105609.000000
106407.000000
107225.000000
108045.000000
108827.000000
109637.000000
110504.000000
111360.000000
112158.000000
112998.000000
113876.000000
114710.000000
115556.000000
116454.000000
117333.000000
118181.000000
119022.000000
119851.000000
120660.000000
121432.000000
122198.000000
122981.000000
123900.000000
124827.000000
125742.000000
126180.000000
127538.000000
128375.000000
129150.000000
129586.000000
130663.000000
131350.000000
132035.000000
132813.000000
134248.000000
135280.000000
136218.000000
137193.000000
138190.000000
139118.000000
140050.000000
140996.000000
141919.000000
142781.000000
143633.000000
144489.000000
145337.000000
146151.000000
146983.000000
147838.000000
148683.000000
149152.000000
150388.000000
151195.000000
151967.000000
152426.000000
153520.000000
154240.000000
154978.000000
155753.000000
156621.000000
157711.000000
158721.000000
159834.000000
160892.000000
161846.000000
162787.000000
163732.000000
164642.000000
165501.000000
166339.000000
167204.000000
168127.000000
169053.000000
169964.000000
170913.000000
171818.000000
172729.000000
173640.000000
174556.000000
175435.000000
176278.000000
177089.000000
177876.000000
178321.000000
179510.000000
180263.000000
181052.000000
181890.000000
182764.000000
183714.000000
184712.000000
185753.000000
186746.000000
187645.000000
188487.000000
189313.000000
190140.000000
190579.000000
191818.000000
192602.000000
193336.000000
194052.000000
194783.000000
195602.000000
196467.000000
197482.000000
198579.000000
199565.000000
200447.000000
200891.000000
202177.000000
202978.000000
203779.000000
204220.000000
205379.000000
206128.000000
206888.000000
207747.000000
208653.000000
209092.000000
210494.000000
211389.000000
212295.000000
213236.000000
214130.000000
215054.000000
215959.000000
216805.000000
217652.000000
218110.000000
219388.000000
220160.000000
220909.000000
221356.000000
222507.000000
223224.000000
224021.000000
224460.000000
225843.000000
226724.000000
227581.000000
228452.000000
229369.000000
230293.000000
231185.000000
232138.000000
233054.000000
233907.000000
234741.000000
235557.000000
236372.000000
237148.000000
237916.000000
238362.000000
239499.000000
240236.000000
240967.000000
241675.000000
242388.000000
243152.000000
244081.000000
244525.000000
245895.000000
246746.000000
247555.000000
248012.000000
249141.000000
249872.000000
250594.000000
251053.000000
252205.000000
252956.000000
253766.000000
254207.000000
255590.000000
256432.000000
257252.000000
258090.000000
258995.000000
259920.000000
260867.000000
261816.000000
262729.000000
263660.000000
264586.000000
265448.000000
266312.000000
267181.000000
268043.000000
268900.000000
269764.000000
270629.000000
271468.000000
271910.000000
273160.000000
273919.000000
274658.000000
275378.000000
276171.000000
276617.000000
277926.000000
278717.000000
279512.000000
279948.000000
281227.000000
281962.000000
282714.000000
283150.000000
284351.000000
285078.000000
285839.000000
286275.000000
287579.000000
288362.000000
289148.000000
289546.000000
290819.000000
291604.000000
292426.000000
293264.000000
294176.000000
295263.000000
295712.000000
297107.000000
298001.000000
298843.000000
299292.000000
300559.000000
301312.000000
302065.000000
302867.000000
304262.000000
305327.000000
306307.000000
307342.000000
308502.000000
309527.000000
310470.000000
311432.000000
312372.000000
313288.000000
314231.000000
315158.000000
316059.000000
316984.000000
317880.000000
318754.000000
319589.000000
320056.000000
321327.000000
322143.000000
322925.000000
323691.000000
324474.000000
325349.000000
326358.000000
327311.000000
328248.000000
329269.000000
330279.000000
331212.000000
332138.000000
333066.000000
333937.000000
334788.000000
335637.000000
336513.000000
337380.000000
338263.000000
339201.000000
340110.000000
340973.000000
341864.000000
342757.000000
343623.000000
344498.000000
345382.000000
346253.000000
347090.000000
347536.000000
348822.000000
349626.000000
350410.000000
351199.000000
351985.000000
352425.000000
353745.000000
354506.000000
355269.000000
355721.000000
356898.000000
357622.000000
358365.000000
359316.000000
360416.000000
361418.000000
362412.000000
363459.000000
364471.000000
365488.000000
365944.000000
367323.000000
368184.000000
368970.000000
369422.000000
370558.000000
371305.000000
372061.000000
372901.000000
373821.000000
374804.000000
375752.000000
376738.000000
377760.000000
378659.000000
379494.000000
380320.000000
381160.000000
381981.000000
382790.000000
383229.000000
384459.000000
385226.000000
385954.000000
386413.000000
387405.000000
388087.000000
388786.000000
389545.000000
390365.000000
390799.000000
392152.000000
392933.000000
393692.000000
394126.000000
395233.000000
395927.000000
396605.000000
397292.000000
398011.000000
398448.000000
399579.000000
400310.000000
401058.000000
401490.000000
402616.000000
403343.000000
404066.000000
404503.000000
405547.000000
406240.000000
406968.000000
407404.000000
408639.000000
409430.000000
410239.000000
410673.000000
411872.000000
412638.000000
413402.000000
413834.000000
414926.000000
415648.000000
416364.000000
417095.000000
417891.000000
418319.000000
419723.000000
420602.000000
421484.000000
422380.000000
423256.000000
424142.000000
425029.000000
425874.000000
426704.000000
427154.000000
428377.000000
429126.000000
429846.000000
430556.000000
431292.000000
431736.000000
432896.000000
433644.000000
434404.000000
434838.000000
435981.000000
436726.000000
437473.000000
437918.000000
438991.000000
439678.000000
440361.000000
441082.000000
441975.000000
442970.000000
443412.000000
444778.000000
445616.000000
446447.000000
446892.000000
448099.000000
448832.000000
449555.000000
450006.000000
451139.000000
451845.000000
452573.000000
453409.000000
454408.000000
455403.000000
456437.000000
457392.000000
458268.000000
459155.000000
460082.000000
460980.000000
461827.000000
462679.000000
463541.000000
464411.000000
465260.000000
466114.000000
466973.000000
467810.000000
468661.000000
469535.000000
470365.000000
471164.000000
471960.000000
472409.000000
473628.000000
474373.000000
475089.000000
475787.000000
476577.000000
477499.000000
478408.000000
478874.000000
480174.000000
481022.000000
481857.000000
482300.000000
483554.000000
484342.000000
485110.000000
485945.000000
486867.000000
487308.000000
488686.000000
489547.000000
490411.000000
491270.000000
492125.000000
492572.000000
493943.000000
494770.000000
495553.000000
495994.000000
497202.000000
497949.000000
498764.000000
499201.000000
500526.000000
501292.000000
502079.000000
502976.000000
504038.000000
505176.000000
506279.000000
507355.000000
508317.000000
509282.000000
510239.000000
511160.000000
512122.000000
512996.000000
513826.000000
514671.000000
515621.000000
516614.000000
517524.000000
518392.000000
519294.000000
520219.000000
521140.000000
521978.000000
522795.000000
523276.000000
524475.000000
525246.000000
525988.000000
526713.000000
527430.000000
528256.000000
529109.000000
529937.000000
530779.000000
531622.000000
532523.000000
533461.000000
534329.000000
535163.000000
535996.000000
536847.000000
537665.000000
538459.000000
539254.000000
540087.000000
540913.000000
541702.000000
542525.000000
543376.000000
544234.000000
545033.000000
545806.000000
546586.000000
547383.000000
548196.000000
548975.000000
549730.000000
550489.000000
551257.000000
552036.000000
552799.000000
553570.000000
554365.000000
555150.000000
555912.000000
556670.000000
557446.000000
558221.000000
558993.000000
559798.000000
560628.000000
561443.000000
562266.000000
563117.000000
563938.000000
564725.000000
565511.000000
566324.000000
567146.000000
567942.000000
568742.000000
569564.000000
570412.000000
571240.000000
572060.000000
572912.000000
573742.000000
574557.000000
575397.000000
576270.000000
577111.000000
577917.000000
578737.000000
579586.000000
580419.000000
581261.000000
582110.000000
582939.000000
583737.000000
584519.000000
585307.000000
586128.000000
586979.000000
587800.000000
588631.000000
589507.000000
590332.000000
591219.000000
592087.000000
592934.000000
593726.000000
594517.000000
595365.000000
596333.000000
597223.000000
598134.000000
599046.000000
599904.000000
600754.000000
601589.000000
602385.000000
603178.000000
603981.000000
604781.000000
605574.000000
606406.000000
607284.000000
608119.000000
609002.000000
609933.000000
610373.000000
611618.000000
612066.000000
613161.000000
613881.000000
614600.000000
615340.000000
616195.000000
617319.000000
618375.000000
619321.000000
620248.000000
620700.000000
622064.000000
622868.000000
623617.000000
624053.000000
625155.000000
625876.000000
626623.000000
627064.000000
628355.000000
629154.000000
630033.000000
631024.000000
631497.000000
632846.000000
633671.000000
634462.000000
635272.000000
636183.000000
637158.000000
638251.000000
639308.000000
640321.000000
641218.000000
642102.000000
643007.000000
643900.000000
644743.000000
645219.000000
646428.000000
647208.000000
647954.000000
648669.000000
649392.000000
649835.000000
651232.000000
652095.000000
652971.000000
653913.000000
654904.000000
655821.000000
656747.000000
657674.000000
658553.000000
659392.000000
660214.000000
661008.000000
661846.000000
662686.000000
663519.000000
664395.000000
665276.000000
666121.000000
666940.000000
667787.000000
668671.000000
669548.000000
670379.000000
670821.000000
672057.000000
672875.000000
673668.000000
674131.000000
675235.000000
675969.000000
676719.000000
677544.000000
678534.000000
679634.000000
680675.000000
681675.000000
682723.000000
683703.000000
684147.000000
685454.000000
686239.000000
686984.000000
687715.000000
688462.000000
689459.000000
689905.000000
691332.000000
692290.000000
693230.000000
694082.000000
694945.000000
695388.000000
696683.000000
697462.000000
698212.000000
698651.000000
699783.000000
700489.000000
701208.000000
702044.000000
703272.000000
704231.000000
705206.000000
706275.000000
707229.000000
708165.000000
709115.000000
710028.000000
710479.000000
711771.000000
712563.000000
713315.000000
713760.000000
714844.000000
715550.000000
716308.000000
716749.000000
718023.000000
718812.000000
719633.000000
720461.000000
721390.000000
722372.000000
723296.000000
723758.000000
725017.000000
725793.000000
726544.000000
726985.000000
728072.000000
728791.000000
729551.000000
729990.000000
731321.000000
732097.000000
732941.000000
733837.000000
734721.000000
735550.000000
736429.000000
737431.000000
738387.000000
739304.000000
740179.000000
741006.000000
741804.000000
742603.000000
743407.000000
744193.000000
744985.000000
745811.000000
746647.000000
747090.000000
748263.000000
749011.000000
749736.000000
750190.000000
751215.000000
751912.000000
752622.000000
753383.000000
754215.000000
754647.000000
756076.000000
756986.000000
757936.000000
758923.000000
759858.000000
760798.000000
761262.000000
762625.000000
763476.000000
764305.000000
765142.000000
765988.000000
766992.000000
768063.000000
769053.000000
769969.000000
770856.000000
771804.000000
772825.000000
773739.000000
774595.000000
775450.000000
776320.000000
777163.000000
777984.000000
778822.000000
779676.000000
780519.000000
781340.000000
782170.000000
783002.000000
783811.000000
784254.000000
785406.000000
786117.000000
786806.000000
787481.000000
788179.000000
788921.000000
789687.000000
790560.000000
791568.000000
792516.000000
793383.000000
794234.000000
795106.000000
795943.000000
796751.000000
797568.000000
798408.000000
799259.000000
800117.000000
801015.000000
801930.000000
802807.000000
803679.000000
804547.000000
805410.000000
806249.000000
807081.000000
807948.000000
808860.000000
809715.000000
810538.000000
811309.000000
812051.000000
812786.000000
813601.000000
814556.000000
815489.000000
816355.000000
817304.000000
818249.000000
819124.000000
819991.000000
820835.000000
821687.000000
822566.000000
823417.000000
824241.000000
825083.000000
825960.000000
826798.000000
827596.000000
828384.000000
829193.000000
830057.000000
830896.000000
831720.000000
832553.000000
833438.000000
834351.000000
835203.000000
836065.000000
836925.000000
837754.000000
838548.000000
839325.000000
840128.000000
840995.000000
841848.000000
842665.000000
843510.000000
844379.000000
845198.000000
845989.000000
846776.000000
847591.000000
848410.000000
849195.000000
849966.000000
850749.000000
851536.000000
852299.000000
853064.000000
853850.000000
854666.000000
855440.000000
856214.000000
856998.000000
857806.000000
858585.000000
859359.000000
860162.000000
860958.000000
861738.000000
862526.000000
863340.000000
864131.000000
864913.000000
865703.000000
866527.000000
867327.000000
868118.000000
868907.000000
869721.000000
870537.000000
871319.000000
872097.000000
872894.000000
873691.000000
874490.000000
875314.000000
876159.000000
876991.000000
877851.000000
878726.000000
879555.000000
880363.000000
881162.000000
881955.000000
882735.000000
883537.000000
884369.000000
885232.000000
886130.000000
887001.000000
887834.000000
888665.000000
889497.000000
890307.000000
891090.000000
891871.000000
892687.000000
893533.000000
894365.000000
895183.000000
896045.000000
896489.000000
897784.000000
898232.000000
899314.000000
900021.000000
900709.000000
901430.000000
902212.000000
902648.000000
904074.000000
904966.000000
905827.000000
906709.000000
907620.000000
908517.000000
909428.000000
910388.000000
911332.000000
912210.000000
913097.000000
913983.000000
914874.000000
915717.000000
916549.000000
917398.000000
918304.000000
919195.000000
919665.000000
920944.000000
921773.000000
922573.000000
923022.000000
924142.000000
924875.000000
925673.000000
926070.000000
927445.000000
928254.000000
929126.000000
930022.000000
930887.000000
931800.000000
932768.000000
933723.000000
934660.000000
935625.000000
936527.000000
937400.000000
938284.000000
939180.000000
940040.000000
940891.000000
941744.000000
942596.000000
943435.000000
944254.000000
945092.000000
945543.000000
946812.000000
947577.000000
948342.000000
949095.000000
949912.000000
950350.000000
951677.000000
952481.000000
953305.000000
953741.000000
954995.000000
955753.000000
956528.000000
956972.000000
958239.000000
958999.000000
959794.000000
960232.000000
961620.000000
962493.000000
963401.000000
964385.000000
965312.000000
966208.000000
967101.000000
968014.000000
968876.000000
969319.000000
970562.000000
971347.000000
972116.000000
972881.000000
973688.000000
974125.000000
975525.000000
976382.000000
977212.000000
977646.000000
978928.000000
979685.000000
980446.000000
981254.000000
982194.000000
982633.000000
984016.000000
984887.000000
985779.000000
986651.000000
987589.000000
988583.000000
989481.000000
990385.000000
991362.000000
992254.000000
993099.000000
993540.000000
994779.000000
995540.000000
996275.000000
997002.000000
997768.000000
998215.000000
999594.000000
1000408.000000
1001241.000000
1001682.000000
1002982.000000
1003761.000000
1004554.000000
1004992.000000
1006198.000000
1006941.000000
1007719.000000
1008160.000000
1009483.000000
1010286.000000
1011137.000000
1012071.000000
1013008.000000
1013970.000000
1014918.000000
1015842.000000
1016792.000000
1017704.000000
1018584.000000
1019436.000000
1020268.000000
1021060.000000
1021860.000000
1022306.000000
1023491.000000
1024244.000000
1024984.000000
1025433.000000
1026531.000000
1027251.000000
1027998.000000
1028437.000000
1029817.000000
1030658.000000
1031512.000000
1032412.000000
1033415.000000
1034423.000000
1035361.000000
1035825.000000
1037212.000000
1038046.000000
1038843.000000
1039644.000000
1040481.000000
1041334.000000
1042257.000000
1043258.000000
1044408.000000
1045425.000000
1046411.000000
1047391.000000
1048283.000000
1049156.000000
1050045.000000
1050932.000000
1051825.000000
1052748.000000
1053686.000000
1054566.000000
1055424.000000
1056294.000000
1057176.000000
1058010.000000
1058839.000000
1059676.000000
1060521.000000
1061356.000000
1062185.000000
1062629.000000
1063910.000000
1064695.000000
1065447.000000
1066161.000000
1066909.000000
1067372.000000
1068725.000000
1069515.000000
1070332.000000
1070770.000000
1072074.000000
1072829.000000
1073603.000000
1074041.000000
1075288.000000
1076043.000000
1076818.000000
1077257.000000
1078511.000000
1079275.000000
1080041.000000
1080494.000000
1081735.000000
1082486.000000
1083262.000000
1083700.000000
1085030.000000
1085802.000000
1086626.000000
1087060.000000
1088391.000000
1089175.000000
1090012.000000
1090446.000000
1091747.000000
1092519.000000
1093302.000000
1093692.000000
1095046.000000
1095868.000000
1096821.000000
1098043.000000
1099184.000000
1100245.000000
1100697.000000
1102066.000000
1102880.000000
1103671.000000
1104110.000000
1105239.000000
1105949.000000
1106662.000000
1107523.000000
1108656.000000
1109655.000000
1110733.000000
1111826.000000
1112852.000000
1113891.000000
1114850.000000
1115795.000000
1116715.000000
1117590.000000
1118422.000000
1119275.000000
1120163.000000
1121048.000000
1121887.000000
1122355.000000
1123600.000000
1124393.000000
1125147.000000
1125876.000000
1126608.000000
1127456.000000
1128351.000000
1129235.000000
1130156.000000
1131175.000000
1132119.000000
1133049.000000
1133989.000000
1134868.000000
1135327.000000
1136590.000000
1137382.000000
1138147.000000
1138882.000000
1139664.000000
1140627.000000
1141567.000000
1142017.000000
1143393.000000
1144268.000000
1145081.000000
1145525.000000
1146678.000000
1147427.000000
1148188.000000
1148973.000000
1149857.000000
1150298.000000
1151672.000000
1152520.000000
1153387.000000
1154282.000000
1155140.000000
1156073.000000
1157075.000000
1158045.000000
1159007.000000
1159959.000000
1160838.000000
1161683.000000
1162528.000000
1163381.000000
1164218.000000
1164657.000000
1165905.000000
1166694.000000
1167446.000000
1168181.000000
1168972.000000
1169367.000000
1170761.000000
1171621.000000
1172477.000000
1173309.000000
1174226.000000
1175277.000000
1176337.000000
1176789.000000
1178141.000000
1178970.000000
1179773.000000
1180548.000000
1181337.000000
1181773.000000
1183188.000000
1184018.000000
1184819.000000
1185262.000000
1186476.000000
1187251.000000
1188023.000000
1188481.000000
1189589.000000
1190332.000000
1191110.000000
1191584.000000
1192761.000000
1193538.000000
1194330.000000
1194780.000000
1195914.000000
1196661.000000
1197429.000000
1198243.000000
1199060.000000
1199500.000000
1200825.000000
1201625.000000
1202409.000000
1203208.000000
1204034.000000
1204471.000000
1205750.000000
1206537.000000
1207347.000000
1207784.000000
1208994.000000
1209788.000000
1210621.000000
1211058.000000
1212340.000000
1213134.000000
1213957.000000
1214393.000000
1215664.000000
1216462.000000
1217367.000000
1218387.000000
1219466.000000
1220553.000000
1221013.000000
1222436.000000
1223393.000000
1224260.000000
1225099.000000
1225955.000000
1226837.000000
1227713.000000
1228611.000000
1229546.000000
1230507.000000
1231487.000000
1232501.000000
1233464.000000
1234355.000000
1235231.000000
1236106.000000
1236980.000000
1237802.000000
1238634.000000
1239477.000000
1240332.000000
1241169.000000
1241964.000000
1242406.000000
1243564.000000
1244299.000000
1245005.000000
1245710.000000
1246430.000000
1247312.000000
1248442.000000
1248925.000000
1250286.000000
1251166.000000
1251982.000000
1252755.000000
1253540.000000
1253977.000000
1255210.000000
1255957.000000
1256729.000000
1257165.000000
1258450.000000
1259226.000000
1259994.000000
1260433.000000
1261609.000000
1262352.000000
1263136.000000
1263574.000000
1264850.000000
1265636.000000
1266444.000000
1266883.000000
1268103.000000
1268871.000000
1269668.000000
1270106.000000
1271275.000000
1272023.000000
1272830.000000
1273267.000000
1274495.000000
1275259.000000
1276054.000000
1276489.000000
1277722.000000
1278481.000000
1279253.000000
1279688.000000
1280894.000000
1281643.000000
1282417.000000
1282852.000000
1284174.000000
1284951.000000
1285774.000000
1286208.000000
1287470.000000
1288235.000000
1288999.000000
1289432.000000
1290597.000000
1291343.000000
1292124.000000
1292561.000000
1293874.000000
1294664.000000
1295502.000000
1295934.000000
1297242.000000
1298037.000000
1298832.000000
1299264.000000
1300543.000000
1301306.000000
1302113.000000
1302545.000000
