ECG (ms)
978.000000
1933.000000
2862.000000
3799.000000
4730.000000
5581.000000
6450.000000
7430.000000
8422.000000
9381.000000
10348.000000
11317.000000
12312.000000
13309.000000
14287.000000
15223.000000
16150.000000
17059.000000
17978.000000
18922.000000
19914.000000
20932.000000
21986.000000
23053.000000
24073.000000
25076.000000
26084.000000
27103.000000
28107.000000
29078.000000
30048.000000
31027.000000
32047.000000
33081.000000
34117.000000
35148.000000
36164.000000
37180.000000
38193.000000
39211.000000
40210.000000
41185.000000
42187.000000
43202.000000
44233.000000
45248.000000
46238.000000
47236.000000
48231.000000
49241.000000
50254.000000
51245.000000
52231.000000
53227.000000
54242.000000
55258.000000
56264.000000
57248.000000
58223.000000
59199.000000
60210.000000
61225.000000
62255.000000
63263.000000
64257.000000
65237.000000
66241.000000
67230.000000
68216.000000
69197.000000
70155.000000
71108.000000
72075.000000
73065.000000
74069.000000
75067.000000
76065.000000
77081.000000
78107.000000
79119.000000
80115.000000
81094.000000
82051.000000
82980.000000
83910.000000
84838.000000
85769.000000
86728.000000
87697.000000
88658.000000
89625.000000
90637.000000
91636.000000
92637.000000
93600.000000
94532.000000
95427.000000
96319.000000
97248.000000
98245.000000
99296.000000
100332.000000
101339.000000
102318.000000
103292.000000
104261.000000
105221.000000
106166.000000
107090.000000
108009.000000
108982.000000
109983.000000
111058.000000
112107.000000
113069.000000
113973.000000
114839.000000
115715.000000
116685.000000
117766.000000
118866.000000
119946.000000
121005.000000
122012.000000
122979.000000
123927.000000
124856.000000
125828.000000
126854.000000
127929.000000
129043.000000
130111.000000
131141.000000
132141.000000
133126.000000
134121.000000
135149.000000
136172.000000
137205.000000
138279.000000
139358.000000
140388.000000
141394.000000
142383.000000
143358.000000
144355.000000
145414.000000
146467.000000
147545.000000
148614.000000
149658.000000
150668.000000
151655.000000
152631.000000
153593.000000
154584.000000
155601.000000
156631.000000
157665.000000
158673.000000
159641.000000
160564.000000
161482.000000
162390.000000
163227.000000
164006.000000
164774.000000
165609.000000
166569.000000
167623.000000
168649.000000
169631.000000
170608.000000
171583.000000
172575.000000
173543.000000
174508.000000
175460.000000
176429.000000
177418.000000
178415.000000
179405.000000
180364.000000
181314.000000
182265.000000
183234.000000
184207.000000
185200.000000
186187.000000
187166.000000
188149.000000
189141.000000
190125.000000
191089.000000
192046.000000
193000.000000
193962.000000
194935.000000
195912.000000
196876.000000
197820.000000
198756.000000
199705.000000
200672.000000
201650.000000
202616.000000
203583.000000
204566.000000
205568.000000
206581.000000
207592.000000
208594.000000
209556.000000
210487.000000
211411.000000
212360.000000
213362.000000
214404.000000
215431.000000
216458.000000
217464.000000
218466.000000
219489.000000
220539.000000
221619.000000
222684.000000
223726.000000
224738.000000
225735.000000
226728.000000
227735.000000
228770.000000
229817.000000
230868.000000
231923.000000
232929.000000
233883.000000
234807.000000
235735.000000
236702.000000
237684.000000
238693.000000
239711.000000
240716.000000
241694.000000
242651.000000
243599.000000
244557.000000
245570.000000
246597.000000
247651.000000
248689.000000
249701.000000
250675.000000
251637.000000
252592.000000
253564.000000
254565.000000
255595.000000
256620.000000
257637.000000
258680.000000
259713.000000
260725.000000
261720.000000
262678.000000
263605.000000
264500.000000
265476.000000
266538.000000
267616.000000
268708.000000
269775.000000
270807.000000
271815.000000
272791.000000
273730.000000
274653.000000
275571.000000
276522.000000
277555.000000
278656.000000
279745.000000
280807.000000
281843.000000
282848.000000
283832.000000
284764.000000
285677.000000
286608.000000
287611.000000
288686.000000
289799.000000
290874.000000
291913.000000
292930.000000
293937.000000
294945.000000
295937.000000
296902.000000
297859.000000
298838.000000
299851.000000
300900.000000
301923.000000
302923.000000
303911.000000
304902.000000
305896.000000
306892.000000
307862.000000
308802.000000
309752.000000
310733.000000
311739.000000
312751.000000
313740.000000
314696.000000
315623.000000
316550.000000
317520.000000
318538.000000
319577.000000
320616.000000
321663.000000
322679.000000
323652.000000
324603.000000
325576.000000
326574.000000
327603.000000
328617.000000
329643.000000
330666.000000
331677.000000
332665.000000
333630.000000
334570.000000
335506.000000
336488.000000
337511.000000
338526.000000
339508.000000
340447.000000
341416.000000
342445.000000
343500.000000
344549.000000
345585.000000
346595.000000
347569.000000
348511.000000
349436.000000
350394.000000
351422.000000
352498.000000
353552.000000
354603.000000
355646.000000
356674.000000
357657.000000
358616.000000
359565.000000
360602.000000
361751.000000
362896.000000
364000.000000
365060.000000
366107.000000
367155.000000
368197.000000
369232.000000
370230.000000
371227.000000
372203.000000
373117.000000
373954.000000
374824.000000
375769.000000
376758.000000
377778.000000
378813.000000
379832.000000
380793.000000
381681.000000
382561.000000
383487.000000
384463.000000
385483.000000
386520.000000
387529.000000
388522.000000
389520.000000
390539.000000
391558.000000
392573.000000
393585.000000
394603.000000
395650.000000
396695.000000
397694.000000
398664.000000
399627.000000
400593.000000
401580.000000
402557.000000
403549.000000
404580.000000
405659.000000
406719.000000
407739.000000
408726.000000
409698.000000
410671.000000
411651.000000
412631.000000
413591.000000
414546.000000
415521.000000
416535.000000
417543.000000
418527.000000
419483.000000
420421.000000
421331.000000
422220.000000
423154.000000
424274.000000
425404.000000
426522.000000
427616.000000
428731.000000
429826.000000
430901.000000
431934.000000
432957.000000
433962.000000
434941.000000
435944.000000
436976.000000
438019.000000
439044.000000
440074.000000
441129.000000
442179.000000
443197.000000
444214.000000
445244.000000
446286.000000
447344.000000
448402.000000
449461.000000
450519.000000
451610.000000
452709.000000
453766.000000
454815.000000
455869.000000
456933.000000
457992.000000
459030.000000
460061.000000
461063.000000
462060.000000
463082.000000
464138.000000
465192.000000
466217.000000
467248.000000
468265.000000
469270.000000
470253.000000
471225.000000
472210.000000
473195.000000
474161.000000
475136.000000
476124.000000
477107.000000
478089.000000
479086.000000
480051.000000
481012.000000
481989.000000
482973.000000
483956.000000
484920.000000
485915.000000
486922.000000
487939.000000
488928.000000
489924.000000
490913.000000
491904.000000
492911.000000
493900.000000
494882.000000
495887.000000
496915.000000
497943.000000
498975.000000
500044.000000
501145.000000
502227.000000
503325.000000
504428.000000
505537.000000
506653.000000
507722.000000
508742.000000
509695.000000
510545.000000
511397.000000
512213.000000
513037.000000
514022.000000
515153.000000
516309.000000
517457.000000
518561.000000
519637.000000
520668.000000
521607.000000
522538.000000
523463.000000
524450.000000
525604.000000
526755.000000
527914.000000
529077.000000
530209.000000
531312.000000
532390.000000
533455.000000
534513.000000
535556.000000
536584.000000
537572.000000
538517.000000
539453.000000
540433.000000
541501.000000
542578.000000
543649.000000
544699.000000
545711.000000
546713.000000
547714.000000
548733.000000
549733.000000
550754.000000
551837.000000
552948.000000
554021.000000
555102.000000
556176.000000
557225.000000
558275.000000
559316.000000
560374.000000
561455.000000
562544.000000
563609.000000
564679.000000
565739.000000
566750.000000
567738.000000
568705.000000
569661.000000
570570.000000
571510.000000
572587.000000
573708.000000
574776.000000
575841.000000
576910.000000
577960.000000
578992.000000
580012.000000
581000.000000
581972.000000
582936.000000
583917.000000
584919.000000
585940.000000
586968.000000
587989.000000
589031.000000
590084.000000
591100.000000
592108.000000
593133.000000
594158.000000
595176.000000
596192.000000
597227.000000
598279.000000
599301.000000
600295.000000
601243.000000
602188.000000
603177.000000
604315.000000
605456.000000
606562.000000
607678.000000
608771.000000
609840.000000
610909.000000
611965.000000
613035.000000
614129.000000
615268.000000
616373.000000
617486.000000
618605.000000
619701.000000
620757.000000
621794.000000
622803.000000
623801.000000
624803.000000
625812.000000
626862.000000
627926.000000
628978.000000
630026.000000
631065.000000
632068.000000
633036.000000
633948.000000
634851.000000
635750.000000
636684.000000
637698.000000
638739.000000
639803.000000
640860.000000
641892.000000
642880.000000
643862.000000
644845.000000
645837.000000
646881.000000
647964.000000
649076.000000
650197.000000
651266.000000
652301.000000
653323.000000
654358.000000
655378.000000
656355.000000
657366.000000
658428.000000
659490.000000
660550.000000
661606.000000
662667.000000
663692.000000
664683.000000
665690.000000
666699.000000
667697.000000
668709.000000
669728.000000
670747.000000
671783.000000
672821.000000
673828.000000
674841.000000
675851.000000
676851.000000
677872.000000
678872.000000
679769.000000
680686.000000
681640.000000
682614.000000
683709.000000
684879.000000
686003.000000
687133.000000
688223.000000
689285.000000
690355.000000
691402.000000
692464.000000
693556.000000
694655.000000
695718.000000
696786.000000
697863.000000
698919.000000
699943.000000
700987.000000
702053.000000
703103.000000
704157.000000
705232.000000
706324.000000
707373.000000
708413.000000
709448.000000
710465.000000
711476.000000
712479.000000
713467.000000
714463.000000
715494.000000
716537.000000
717556.000000
718584.000000
719590.000000
720586.000000
721544.000000
722464.000000
723381.000000
724322.000000
725278.000000
726246.000000
727240.000000
728232.000000
729202.000000
730183.000000
731163.000000
732137.000000
733126.000000
734124.000000
735105.000000
736080.000000
737058.000000
738053.000000
739084.000000
740132.000000
741169.000000
742248.000000
743374.000000
744458.000000
745495.000000
746515.000000
747543.000000
748574.000000
749609.000000
750658.000000
751729.000000
752787.000000
753866.000000
754936.000000
755959.000000
756989.000000
758047.000000
759095.000000
760116.000000
761172.000000
762259.000000
763333.000000
764405.000000
765469.000000
766491.000000
767452.000000
768363.000000
769272.000000
770134.000000
770945.000000
771882.000000
773019.000000
774144.000000
775299.000000
776448.000000
777575.000000
778675.000000
779769.000000
780858.000000
781915.000000
782984.000000
784076.000000
785173.000000
786267.000000
787381.000000
788517.000000
789616.000000
790713.000000
791818.000000
792927.000000
793976.000000
795040.000000
796087.000000
797114.000000
798136.000000
799185.000000
800270.000000
801333.000000
802390.000000
803464.000000
804528.000000
805557.000000
806580.000000
807601.000000
808613.000000
809632.000000
810675.000000
811716.000000
812757.000000
813789.000000
814853.000000
815935.000000
816991.000000
818043.000000
819120.000000
820229.000000
821343.000000
822431.000000
823528.000000
824618.000000
825680.000000
826725.000000
827774.000000
828818.000000
829880.000000
830939.000000
832002.000000
833042.000000
834094.000000
835153.000000
836185.000000
837221.000000
838276.000000
839323.000000
840369.000000
841455.000000
842543.000000
843617.000000
844681.000000
845761.000000
846850.000000
847915.000000
848983.000000
850078.000000
851194.000000
852291.000000
853381.000000
854478.000000
855578.000000
856673.000000
857738.000000
858818.000000
859896.000000
860942.000000
861983.000000
863041.000000
864120.000000
865193.000000
866248.000000
867321.000000
868397.000000
869468.000000
870541.000000
871666.000000
872746.000000
873780.000000
874827.000000
875882.000000
876932.000000
878008.000000
879102.000000
880183.000000
881261.000000
882352.000000
883425.000000
884486.000000
885552.000000
886592.000000
887622.000000
888659.000000
889686.000000
890692.000000
891706.000000
892735.000000
893767.000000
894832.000000
895891.000000
