ECG (ms)
24.000000
1014.000000
2044.000000
3228.000000
4256.000000
5266.000000
6267.000000
7171.000000
8095.000000
9085.000000
10011.000000
10948.000000
12002.000000
12959.000000
13982.000000
15044.000000
16009.000000
17021.000000
18053.000000
18992.000000
19961.000000
21008.000000
21953.000000
22986.000000
24137.000000
25141.000000
26129.000000
27110.000000
28041.000000
28997.000000
30037.000000
31003.000000
32023.000000
33058.000000
34035.000000
35020.000000
36013.000000
36967.000000
37939.000000
38888.000000
39827.000000
40835.000000
41800.000000
42770.000000
43725.000000
44626.000000
45578.000000
46533.000000
47459.000000
48440.000000
49455.000000
50396.000000
51321.000000
52173.000000
53005.000000
53919.000000
54937.000000
55887.000000
56866.000000
57798.000000
58723.000000
59644.000000
60534.000000
61458.000000
62416.000000
63329.000000
64299.000000
65336.000000
66319.000000
67398.000000
68357.000000
69237.000000
70115.000000
70994.000000
72019.000000
73070.000000
74070.000000
75096.000000
76093.000000
77060.000000
78025.000000
78939.000000
79909.000000
80937.000000
81887.000000
82840.000000
83824.000000
84741.000000
85687.000000
86634.000000
87578.000000
88550.000000
89499.000000
90471.000000
91461.000000
92377.000000
93326.000000
94305.000000
95233.000000
96203.000000
97231.000000
98193.000000
99177.000000
100154.000000
101100.000000
102067.000000
103015.000000
103966.000000
104911.000000
105828.000000
106765.000000
107604.000000
108445.000000
109317.000000
110253.000000
111254.000000
112168.000000
113094.000000
114029.000000
114911.000000
115822.000000
116745.000000
117621.000000
118531.000000
119447.000000
120338.000000
121256.000000
122193.000000
123077.000000
123999.000000
124967.000000
125887.000000
126842.000000
127830.000000
128758.000000
129704.000000
130699.000000
131637.000000
132587.000000
133488.000000
134373.000000
135339.000000
136568.000000
137594.000000
138604.000000
139631.000000
140588.000000
141620.000000
142707.000000
143666.000000
144661.000000
145685.000000
146629.000000
147593.000000
148605.000000
149559.000000
150643.000000
151707.000000
152635.000000
153574.000000
154540.000000
155438.000000
156380.000000
157369.000000
158301.000000
159288.000000
160276.000000
161188.000000
162135.000000
163152.000000
164098.000000
165063.000000
166018.000000
166936.000000
167877.000000
168784.000000
169663.000000
170485.000000
171381.000000
172288.000000
173264.000000
174230.000000
175135.000000
176068.000000
177030.000000
177928.000000
178875.000000
179815.000000
180704.000000
181629.000000
182577.000000
183484.000000
184453.000000
185469.000000
186401.000000
187384.000000
188345.000000
189257.000000
190196.000000
191149.000000
192053.000000
192987.000000
193992.000000
194928.000000
195898.000000
196882.000000
197810.000000
198780.000000
199745.000000
200627.000000
201486.000000
202303.000000
203187.000000
204127.000000
205135.000000
206219.000000
207151.000000
208083.000000
209023.000000
209906.000000
210809.000000
211717.000000
212587.000000
213494.000000
214405.000000
215260.000000
216096.000000
217022.000000
218016.000000
218942.000000
219897.000000
220904.000000
221802.000000
222721.000000
223654.000000
224552.000000
225504.000000
226518.000000
227446.000000
228383.000000
229377.000000
230276.000000
231219.000000
232163.000000
233083.000000
234086.000000
235075.000000
236002.000000
236957.000000
237895.000000
238826.000000
239720.000000
240570.000000
241518.000000
242434.000000
243442.000000
244472.000000
245426.000000
246419.000000
247373.000000
248282.000000
249235.000000
250199.000000
251117.000000
252062.000000
253008.000000
253918.000000
254867.000000
255834.000000
256763.000000
257725.000000
258650.000000
259574.000000
260525.000000
261468.000000
262404.000000
263361.000000
264281.000000
265196.000000
266135.000000
267039.000000
267987.000000
268930.000000
269803.000000
270651.000000
271576.000000
272454.000000
273380.000000
274415.000000
275347.000000
276315.000000
277310.000000
278259.000000
279236.000000
280216.000000
281133.000000
282089.000000
282961.000000
283824.000000
284720.000000
285659.000000
286643.000000
287563.000000
288530.000000
289513.000000
290421.000000
291384.000000
292354.000000
293225.000000
294127.000000
295004.000000
295938.000000
296908.000000
297915.000000
298860.000000
299871.000000
300968.000000
301964.000000
303000.000000
304041.000000
304971.000000
305909.000000
306877.000000
307859.000000
308786.000000
309801.000000
310833.000000
311765.000000
312729.000000
313685.000000
314573.000000
315439.000000
316268.000000
317222.000000
318221.000000
319210.000000
320229.000000
321172.000000
322155.000000
323165.000000
324113.000000
325096.000000
326059.000000
326980.000000
327996.000000
329098.000000
330088.000000
331091.000000
332070.000000
333050.000000
334109.000000
335094.000000
336106.000000
337149.000000
338099.000000
339116.000000
340131.000000
341050.000000
341989.000000
342937.000000
343845.000000
344822.000000
345902.000000
346896.000000
347896.000000
348856.000000
349805.000000
350800.000000
351783.000000
352759.000000
353774.000000
354744.000000
355710.000000
356691.000000
357620.000000
358594.000000
359618.000000
360563.000000
361520.000000
362475.000000
363377.000000
364305.000000
365277.000000
366197.000000
367154.000000
368129.000000
369037.000000
369938.000000
370774.000000
371631.000000
372526.000000
373477.000000
374465.000000
375397.000000
376365.000000
377351.000000
378262.000000
379188.000000
380169.000000
381064.000000
381880.000000
382727.000000
383779.000000
384921.000000
385926.000000
386980.000000
388009.000000
388972.000000
389965.000000
391051.000000
392045.000000
393080.000000
394126.000000
395062.000000
395996.000000
396966.000000
397901.000000
398885.000000
399932.000000
400907.000000
401931.000000
403017.000000
403994.000000
405013.000000
406015.000000
406944.000000
407876.000000
408837.000000
409759.000000
410721.000000
411794.000000
412786.000000
413777.000000
414770.000000
415695.000000
416632.000000
417590.000000
418492.000000
419417.000000
420376.000000
421296.000000
422257.000000
423285.000000
424215.000000
425167.000000
426128.000000
427033.000000
427979.000000
428911.000000
429830.000000
430792.000000
431782.000000
432721.000000
433683.000000
434650.000000
435596.000000
436604.000000
437551.000000
438504.000000
439468.000000
440368.000000
441315.000000
442296.000000
443243.000000
444209.000000
445172.000000
446103.000000
447060.000000
448002.000000
448925.000000
449861.000000
450764.000000
451704.000000
452685.000000
453598.000000
454570.000000
455593.000000
456538.000000
457500.000000
458457.000000
459373.000000
460312.000000
461238.000000
462133.000000
463089.000000
464060.000000
465001.000000
465989.000000
466972.000000
467918.000000
468882.000000
469835.000000
470756.000000
471716.000000
472649.000000
473538.000000
474439.000000
475310.000000
476140.000000
477033.000000
477931.000000
478875.000000
479856.000000
480795.000000
481764.000000
482769.000000
483711.000000
484711.000000
485712.000000
486639.000000
487610.000000
488601.000000
489543.000000
490572.000000
491684.000000
492625.000000
493587.000000
494675.000000
495650.000000
496658.000000
497640.000000
498597.000000
499716.000000
500843.000000
501886.000000
502967.000000
503936.000000
504923.000000
505919.000000
506863.000000
507870.000000
508887.000000
509852.000000
510859.000000
511831.000000
512846.000000
513866.000000
514819.000000
515805.000000
516790.000000
517740.000000
518739.000000
519732.000000
520669.000000
521636.000000
522596.000000
523567.000000
524593.000000
525562.000000
526551.000000
527542.000000
528467.000000
529419.000000
530386.000000
531298.000000
532241.000000
533130.000000
533967.000000
534911.000000
535942.000000
536880.000000
537831.000000
538821.000000
539747.000000
540757.000000
541752.000000
542661.000000
543596.000000
544560.000000
545468.000000
546393.000000
547336.000000
548239.000000
549201.000000
550170.000000
551083.000000
552041.000000
553002.000000
553961.000000
554943.000000
555906.000000
556867.000000
557841.000000
558761.000000
559747.000000
560745.000000
561677.000000
562626.000000
563549.000000
564444.000000
565376.000000
566365.000000
567343.000000
568405.000000
569409.000000
570345.000000
571288.000000
572215.000000
573150.000000
574119.000000
575064.000000
576077.000000
577056.000000
577961.000000
578900.000000
579876.000000
580815.000000
581812.000000
582808.000000
583742.000000
584648.000000
585489.000000
586381.000000
587297.000000
588277.000000
589294.000000
590225.000000
591187.000000
592213.000000
593121.000000
594065.000000
595050.000000
595963.000000
596897.000000
597878.000000
598783.000000
599740.000000
600770.000000
601712.000000
602715.000000
603734.000000
604689.000000
605708.000000
606741.000000
607709.000000
608678.000000
609662.000000
610586.000000
611563.000000
612652.000000
613659.000000
614693.000000
615670.000000
616581.000000
617552.000000
618681.000000
619724.000000
620775.000000
621856.000000
622869.000000
623894.000000
624831.000000
625844.000000
626964.000000
627961.000000
629006.000000
630065.000000
631062.000000
632214.000000
633314.000000
634389.000000
635447.000000
636443.000000
637520.000000
638655.000000
639654.000000
640644.000000
641648.000000
642627.000000
643650.000000
644745.000000
645765.000000
646837.000000
647844.000000
648789.000000
649843.000000
650869.000000
651849.000000
652906.000000
653888.000000
654870.000000
655894.000000
656852.000000
657872.000000
658938.000000
659900.000000
660884.000000
661771.000000
662619.000000
663482.000000
664592.000000
665626.000000
666658.000000
667644.000000
668610.000000
669631.000000
670599.000000
671535.000000
672483.000000
673426.000000
674362.000000
675408.000000
676404.000000
677377.000000
678390.000000
679359.000000
680363.000000
681458.000000
682441.000000
683440.000000
684420.000000
685361.000000
686362.000000
687367.000000
688345.000000
689381.000000
690401.000000
691379.000000
692383.000000
693356.000000
694305.000000
695270.000000
696224.000000
697163.000000
698152.000000
699203.000000
700195.000000
701162.000000
702125.000000
703094.000000
704148.000000
705129.000000
706105.000000
707111.000000
707991.000000
708896.000000
709800.000000
710782.000000
711828.000000
712779.000000
713775.000000
714775.000000
715741.000000
716602.000000
717449.000000
718395.000000
719360.000000
720358.000000
721353.000000
722353.000000
723366.000000
724298.000000
725285.000000
726279.000000
727219.000000
728195.000000
729232.000000
730215.000000
731242.000000
732249.000000
733194.000000
734202.000000
735226.000000
736167.000000
737165.000000
738234.000000
739192.000000
740178.000000
741146.000000
742096.000000
743090.000000
744076.000000
745021.000000
746027.000000
747059.000000
747960.000000
748863.000000
749765.000000
750766.000000
751896.000000
752918.000000
754035.000000
755088.000000
756062.000000
757017.000000
757933.000000
758872.000000
759878.000000
760832.000000
761913.000000
763001.000000
763982.000000
764990.000000
765983.000000
766947.000000
767942.000000
768915.000000
769919.000000
770952.000000
771901.000000
772856.000000
773707.000000
774559.000000
775541.000000
776474.000000
777481.000000
778455.000000
779395.000000
780348.000000
781298.000000
782225.000000
783186.000000
784193.000000
785151.000000
786157.000000
787116.000000
788066.000000
789063.000000
790040.000000
791001.000000
791971.000000
792902.000000
793895.000000
794902.000000
795811.000000
796772.000000
797816.000000
798777.000000
799774.000000
800781.000000
801758.000000
802795.000000
803784.000000
804785.000000
805791.000000
806750.000000
807779.000000
808850.000000
809798.000000
810779.000000
811800.000000
812749.000000
813767.000000
814805.000000
815755.000000
816705.000000
817678.000000
818588.000000
819532.000000
820448.000000
821357.000000
822197.000000
823100.000000
824007.000000
824972.000000
825989.000000
826930.000000
827911.000000
828905.000000
829831.000000
830796.000000
831810.000000
832759.000000
833740.000000
834783.000000
835729.000000
836737.000000
837771.000000
838743.000000
839771.000000
840789.000000
841709.000000
842620.000000
843519.000000
844501.000000
845681.000000
846733.000000
847854.000000
848864.000000
849861.000000
850871.000000
851810.000000
852818.000000
853887.000000
854873.000000
855904.000000
856914.000000
857932.000000
859175.000000
860280.000000
861329.000000
862429.000000
863463.000000
864458.000000
865550.000000
866582.000000
867584.000000
868611.000000
869607.000000
870681.000000
871718.000000
872855.000000
873907.000000
874962.000000
875939.000000
876982.000000
877983.000000
878955.000000
879986.000000
880940.000000
881925.000000
882977.000000
883961.000000
884996.000000
886059.000000
887073.000000
888147.000000
889150.000000
890116.000000
891095.000000
892076.000000
893050.000000
894044.000000
894996.000000
895982.000000
897046.000000
898007.000000
899010.000000
900063.000000
901041.000000
902051.000000
903060.000000
904029.000000
905051.000000
906018.000000
907012.000000
908033.000000
908989.000000
909998.000000
911051.000000
912007.000000
913001.000000
913993.000000
914911.000000
915927.000000
917023.000000
918015.000000
919026.000000
920040.000000
920986.000000
921950.000000
922971.000000
923920.000000
924912.000000
925879.000000
926826.000000
927833.000000
928795.000000
929789.000000
930808.000000
931776.000000
932797.000000
933821.000000
934758.000000
935749.000000
936777.000000
937786.000000
938860.000000
939896.000000
940858.000000
941860.000000
942851.000000
943795.000000
944758.000000
945763.000000
946727.000000
947698.000000
948657.000000
949566.000000
950507.000000
951535.000000
952485.000000
953516.000000
954494.000000
955431.000000
956411.000000
957392.000000
958412.000000
959459.000000
960436.000000
961461.000000
962477.000000
963428.000000
964432.000000
965459.000000
966448.000000
967496.000000
968483.000000
969492.000000
970515.000000
971550.000000
972520.000000
973490.000000
974486.000000
975473.000000
976527.000000
977544.000000
978516.000000
979508.000000
980478.000000
981392.000000
982340.000000
983267.000000
984183.000000
985033.000000
985869.000000
986768.000000
987702.000000
988737.000000
989736.000000
990760.000000
991962.000000
992999.000000
994058.000000
995119.000000
996079.000000
997044.000000
998059.000000
999024.000000
1000022.000000
1001170.000000
1002246.000000
1003493.000000
1004580.000000
1005562.000000
1006571.000000
1007613.000000
1008616.000000
1009868.000000
1011032.000000
1012156.000000
1013330.000000
1014358.000000
1015433.000000
1016468.000000
1017543.000000
1018607.000000
1019622.000000
1020647.000000
1021598.000000
1022594.000000
1023588.000000
1024557.000000
1025629.000000
1026665.000000
1027641.000000
1028651.000000
1029603.000000
1030606.000000
1031640.000000
1032611.000000
1033648.000000
1034641.000000
1035595.000000
1036587.000000
1037579.000000
1038525.000000
1039499.000000
1040448.000000
1041389.000000
1042343.000000
1043272.000000
1044287.000000
1045422.000000
1046424.000000
1047473.000000
1048468.000000
1049446.000000
1050440.000000
1051418.000000
1052393.000000
1053399.000000
1054363.000000
1055385.000000
1056405.000000
1057348.000000
1058311.000000
1059274.000000
1060170.000000
1061096.000000
1062046.000000
1062988.000000
1063996.000000
1065004.000000
1065976.000000
1066981.000000
1067958.000000
1068890.000000
1069833.000000
1070733.000000
1071643.000000
1072573.000000
1073518.000000
1074493.000000
1075531.000000
1076500.000000
1077500.000000
1078497.000000
1079432.000000
1080375.000000
1081309.000000
1082240.000000
1083227.000000
1084158.000000
1085075.000000
1085975.000000
1086825.000000
1087784.000000
1088768.000000
1089771.000000
1090752.000000
1091726.000000
1092699.000000
1093625.000000
1094573.000000
1095534.000000
1096453.000000
1097423.000000
1098467.000000
1099425.000000
1100412.000000
1101438.000000
1102374.000000
1103354.000000
1104361.000000
1105296.000000
1106249.000000
1107234.000000
1108162.000000
1109138.000000
1110185.000000
1111163.000000
1112178.000000
1113180.000000
1114132.000000
1115110.000000
1116088.000000
1117008.000000
1117944.000000
1118981.000000
1119929.000000
1120956.000000
1122058.000000
1123015.000000
1123995.000000
1125000.000000
1125920.000000
1126903.000000
1127983.000000
1128949.000000
1129949.000000
1131038.000000
1132038.000000
1133154.000000
1134441.000000
1135552.000000
1136632.000000
1137607.000000
1138582.000000
1139579.000000
1140527.000000
1141501.000000
1142512.000000
1143373.000000
1144202.000000
1145083.000000
1146482.000000
1147646.000000
1148655.000000
1149644.000000
1150602.000000
1151560.000000
1152531.000000
1153594.000000
1154579.000000
1155597.000000
1156601.000000
1157538.000000
1158515.000000
1159452.000000
1160292.000000
1161152.000000
1162039.000000
1163025.000000
1164051.000000
1164988.000000
1165948.000000
1166922.000000
1167822.000000
1168765.000000
1169728.000000
1170641.000000
1171583.000000
1172561.000000
1173475.000000
1174428.000000
1175341.000000
1176197.000000
1177068.000000
1177939.000000
1178877.000000
1179879.000000
1180808.000000
1181821.000000
1182772.000000
1183632.000000
1184488.000000
1185415.000000
1186468.000000
1187574.000000
1188570.000000
1189585.000000
1190542.000000
1191450.000000
1192392.000000
1193372.000000
1194351.000000
1195350.000000
1196304.000000
1197274.000000
1198244.000000
1199183.000000
1200154.000000
1201123.000000
1202031.000000
1202960.000000
1203952.000000
1204886.000000
1205861.000000
1206873.000000
1207812.000000
1208784.000000
1209751.000000
1210700.000000
1211681.000000
1212701.000000
1213658.000000
1214635.000000
1215502.000000
1216402.000000
1217268.000000
1218198.000000
1219221.000000
1220183.000000
1221184.000000
1222389.000000
1223447.000000
1224482.000000
1225418.000000
1226265.000000
1227173.000000
1228153.000000
1229095.000000
1230069.000000
1231070.000000
1232074.000000
1233145.000000
1234221.000000
1235210.000000
1236186.000000
1237153.000000
1238076.000000
1239046.000000
1240119.000000
1241113.000000
1242107.000000
1243175.000000
1244110.000000
1245062.000000
1246004.000000
1246913.000000
1247853.000000
1248802.000000
1249734.000000
1250671.000000
1251597.000000
1252495.000000
1253344.000000
1254233.000000
1255320.000000
1256354.000000
1257395.000000
1258373.000000
1259298.000000
1260223.000000
1261169.000000
1262066.000000
1263022.000000
1264059.000000
1264978.000000
1265938.000000
1266931.000000
1267846.000000
1268800.000000
1269792.000000
1270742.000000
1271730.000000
1272711.000000
1273664.000000
1274654.000000
1275618.000000
1276552.000000
1277527.000000
1278473.000000
1279389.000000
1280348.000000
1281305.000000
1282243.000000
1283284.000000
1284434.000000
1285488.000000
1286539.000000
1287511.000000
1288485.000000
1289494.000000
1290494.000000
1291450.000000
1292458.000000
1293511.000000
1294543.000000
1295672.000000
1296686.000000
1297663.000000
1298658.000000
1299644.000000
1300592.000000
1301583.000000
1302605.000000
1303551.000000
1304405.000000
1305304.000000
1306258.000000
1307228.000000
1308245.000000
1309189.000000
1310167.000000
1311149.000000
1312080.000000
1313048.000000
1314031.000000
1314999.000000
1316020.000000
1316991.000000
1318020.000000
1319058.000000
1319995.000000
1320996.000000
1322034.000000
1322976.000000
1323978.000000
1325030.000000
1326007.000000
1327013.000000
1328033.000000
1328999.000000
1330001.000000
1331048.000000
1332003.000000
1332980.000000
1333979.000000
1334913.000000
1335892.000000
1336904.000000
1337866.000000
1338899.000000
1339877.000000
1340850.000000
1341864.000000
1342836.000000
1343835.000000
1344793.000000
1345713.000000
1346702.000000
1347692.000000
1348660.000000
1349659.000000
1350674.000000
1351675.000000
1352712.000000
1353710.000000
1354639.000000
1355594.000000
1356641.000000
1357609.000000
1358588.000000
1359620.000000
1360556.000000
1361513.000000
1362526.000000
1363495.000000
1364469.000000
1365441.000000
1366380.000000
1367355.000000
1368332.000000
1369269.000000
1370249.000000
1371259.000000
1372199.000000
1373163.000000
1374112.000000
1375024.000000
1375959.000000
1376916.000000
1377854.000000
1378847.000000
1379876.000000
1380812.000000
1381784.000000
1382769.000000
1383698.000000
1384647.000000
1385620.000000
1386494.000000
1387335.000000
1388187.000000
1389191.000000
1390215.000000
1391214.000000
1392274.000000
1393302.000000
1394328.000000
1395386.000000
1396366.000000
1397391.000000
1398393.000000
1399346.000000
1400378.000000
1401474.000000
1402422.000000
1403319.000000
1404193.000000
1405050.000000
1406027.000000
1407017.000000
1408065.000000
1409139.000000
1410137.000000
1411199.000000
1412306.000000
1413318.000000
1414368.000000
1415358.000000
1416310.000000
1417325.000000
1418392.000000
1419406.000000
1420547.000000
1421601.000000
1422633.000000
1423700.000000
1424663.000000
1425708.000000
1426904.000000
1427940.000000
1428994.000000
1430101.000000
1431112.000000
1432188.000000
1433271.000000
1434394.000000
1435791.000000
1436934.000000
1438072.000000
1439196.000000
1440214.000000
1441264.000000
1442373.000000
1443438.000000
1444821.000000
1445968.000000
1447035.000000
1448081.000000
1449067.000000
1450167.000000
1451356.000000
1452352.000000
1453378.000000
1454474.000000
1455460.000000
1456465.000000
1457476.000000
1458425.000000
1459427.000000
1460532.000000
1461539.000000
1462558.000000
1463637.000000
1464618.000000
1465645.000000
1466715.000000
1467697.000000
1468734.000000
1469817.000000
1470776.000000
1471787.000000
1472855.000000
1473846.000000
1474869.000000
1475937.000000
1476893.000000
1477889.000000
1478884.000000
1479825.000000
1480827.000000
1481944.000000
1482961.000000
1484027.000000
1485087.000000
1486100.000000
1487151.000000
1488134.000000
1489083.000000
1490026.000000
1490926.000000
1491905.000000
1493248.000000
1494481.000000
1495610.000000
1496586.000000
1497532.000000
1498396.000000
1499268.000000
1500191.000000
1501351.000000
1502539.000000
1503577.000000
1504600.000000
1505575.000000
1506497.000000
1507438.000000
1508431.000000
1509403.000000
1510405.000000
1511394.000000
1512350.000000
1513355.000000
1514346.000000
1515328.000000
1516330.000000
1517317.000000
1518289.000000
1519259.000000
1520198.000000
1521122.000000
1522114.000000
1523154.000000
1524148.000000
1525183.000000
1526211.000000
1527164.000000
1528191.000000
1529307.000000
1530285.000000
1531280.000000
1532275.000000
1533216.000000
1534213.000000
1535265.000000
1536270.000000
1537353.000000
1538453.000000
1539459.000000
1540489.000000
1541484.000000
1542444.000000
1543488.000000
1544433.000000
1545310.000000
1546314.000000
1547301.000000
1548383.000000
1549455.000000
1550468.000000
1551488.000000
1552469.000000
1553423.000000
1554393.000000
1555353.000000
1556346.000000
1557371.000000
1558323.000000
1559339.000000
1560382.000000
1561330.000000
1562297.000000
1563339.000000
1564316.000000
1565327.000000
1566366.000000
1567324.000000
1568324.000000
1569341.000000
1570301.000000
1571274.000000
1572265.000000
1573129.000000
1573980.000000
1574886.000000
1576264.000000
1577505.000000
1578572.000000
1579606.000000
1580635.000000
1581609.000000
1582663.000000
1583788.000000
1584930.000000
1586003.000000
1587064.000000
1588108.000000
1589116.000000
1590154.000000
1591251.000000
1592281.000000
1593367.000000
1594460.000000
1595427.000000
1596433.000000
1597462.000000
1598415.000000
1599466.000000
1600573.000000
1601579.000000
1602687.000000
1603755.000000
1604874.000000
1606001.000000
1607007.000000
1608032.000000
1609085.000000
1610151.000000
1611269.000000
1612359.000000
1613375.000000
1614419.000000
1615478.000000
1616494.000000
1617623.000000
1618728.000000
1619778.000000
1620915.000000
1621988.000000
1623017.000000
1624110.000000
1625113.000000
1626164.000000
1627302.000000
1628301.000000
1629376.000000
1630486.000000
1631534.000000
1632614.000000
1633670.000000
1634679.000000
1635696.000000
1636722.000000
1637731.000000
1638830.000000
1639924.000000
1640943.000000
1641988.000000
1642967.000000
1643946.000000
1644982.000000
1646000.000000
1647052.000000
1648162.000000
1649159.000000
1650173.000000
1651243.000000
1652273.000000
1653375.000000
1654391.000000
1655387.000000
1656392.000000
1657420.000000
1658522.000000
1659686.000000
1660750.000000
1661833.000000
1662919.000000
1663934.000000
1664982.000000
1666037.000000
1667025.000000
1668119.000000
1669328.000000
1670351.000000
1671401.000000
1672469.000000
1673478.000000
1674508.000000
1675533.000000
1676559.000000
1677619.000000
1678656.000000
1679818.000000
1680929.000000
1681935.000000
1683005.000000
1684006.000000
1684992.000000
1686045.000000
1687065.000000
1688110.000000
1689153.000000
1690181.000000
1691254.000000
1692263.000000
1693256.000000
1694280.000000
1695245.000000
1696260.000000
1697299.000000
1698261.000000
1699252.000000
1700241.000000
1701169.000000
1702147.000000
1703200.000000
1704175.000000
1705227.000000
1706249.000000
1707244.000000
1708246.000000
1709201.000000
1710202.000000
1711237.000000
1712202.000000
1713204.000000
1714301.000000
1715277.000000
1716289.000000
1717343.000000
1718275.000000
1719227.000000
1720217.000000
1721210.000000
1722299.000000
1723377.000000
1724345.000000
1725365.000000
1726424.000000
1727388.000000
1728415.000000
1729500.000000
1730466.000000
1731449.000000
1732448.000000
1733380.000000
1734367.000000
1735400.000000
1736386.000000
1737435.000000
1738475.000000
1739441.000000
1740441.000000
1741417.000000
1742435.000000
1743466.000000
1744444.000000
1745451.000000
1746382.000000
1747249.000000
1748090.000000
1749103.000000
1750100.000000
1751176.000000
1752224.000000
1753207.000000
1754216.000000
1755212.000000
1756176.000000
1757225.000000
1758277.000000
1759230.000000
1760199.000000
1761183.000000
1762127.000000
1763131.000000
1764186.000000
1765138.000000
1766107.000000
1767092.000000
1768046.000000
1769062.000000
1770065.000000
1771012.000000
1772034.000000
1773098.000000
1774084.000000
1775102.000000
1776133.000000
1777135.000000
1778163.000000
1779202.000000
1780161.000000
1781188.000000
1782253.000000
1783221.000000
1784237.000000
1785303.000000
1786273.000000
1787324.000000
1788421.000000
1789464.000000
1790587.000000
1791665.000000
1792758.000000
1793868.000000
1794892.000000
1795975.000000
1797058.000000
