ECG (ms)
721.000000
1828.000000
2858.000000
3913.000000
4901.000000
5880.000000
6815.000000
7732.000000
8736.000000
9795.000000
10911.000000
12046.000000
13044.000000
14086.000000
15195.000000
16212.000000
17271.000000
18571.000000
19698.000000
20785.000000
21900.000000
22923.000000
23964.000000
25062.000000
26144.000000
27213.000000
28337.000000
29417.000000
30484.000000
31605.000000
32685.000000
33708.000000
34742.000000
35760.000000
36734.000000
37747.000000
38868.000000
39976.000000
41033.000000
42145.000000
43251.000000
44348.000000
45464.000000
46498.000000
47517.000000
48588.000000
49603.000000
50585.000000
51666.000000
52779.000000
53803.000000
54850.000000
55893.000000
56877.000000
57923.000000
59025.000000
60055.000000
61102.000000
62171.000000
63184.000000
64179.000000
65243.000000
66252.000000
67208.000000
68227.000000
69304.000000
70316.000000
71341.000000
72456.000000
73519.000000
74581.000000
75660.000000
76669.000000
77676.000000
78729.000000
79765.000000
80780.000000
81815.000000
82731.000000
83546.000000
84340.000000
85157.000000
86314.000000
87460.000000
88489.000000
89532.000000
90618.000000
91606.000000
92584.000000
93703.000000
94737.000000
95812.000000
96968.000000
98030.000000
99093.000000
100153.000000
101086.000000
102096.000000
103221.000000
104238.000000
105317.000000
106499.000000
107576.000000
108711.000000
109839.000000
110939.000000
112047.000000
113017.000000
114055.000000
115243.000000
116340.000000
117430.000000
118535.000000
119578.000000
120599.000000
121649.000000
122695.000000
123691.000000
124710.000000
125754.000000
126749.000000
127787.000000
128839.000000
129829.000000
130852.000000
131913.000000
132937.000000
133990.000000
135042.000000
136048.000000
137065.000000
138157.000000
139194.000000
140223.000000
141290.000000
142318.000000
143351.000000
144427.000000
145483.000000
146472.000000
147511.000000
148595.000000
149611.000000
150634.000000
151675.000000
152655.000000
153712.000000
154725.000000
155755.000000
156830.000000
157823.000000
158789.000000
159851.000000
160882.000000
161857.000000
162897.000000
163966.000000
164995.000000
166022.000000
167106.000000
168179.000000
169190.000000
170187.000000
171258.000000
172304.000000
173304.000000
174329.000000
175370.000000
176362.000000
177449.000000
178655.000000
179776.000000
180893.000000
182009.000000
183038.000000
184063.000000
185156.000000
186216.000000
187284.000000
188421.000000
189495.000000
190535.000000
191625.000000
192684.000000
193712.000000
194803.000000
195852.000000
196837.000000
197865.000000
198912.000000
199916.000000
200945.000000
202021.000000
203095.000000
204116.000000
205190.000000
206266.000000
207344.000000
208481.000000
209555.000000
210617.000000
211728.000000
212810.000000
213831.000000
214895.000000
215921.000000
216917.000000
217952.000000
218998.000000
219996.000000
221055.000000
222166.000000
223229.000000
224309.000000
225324.000000
226339.000000
227392.000000
228425.000000
229506.000000
230696.000000
231804.000000
232916.000000
234010.000000
235016.000000
236025.000000
237100.000000
238134.000000
239134.000000
240197.000000
241205.000000
242150.000000
243131.000000
244216.000000
245296.000000
246375.000000
247534.000000
248664.000000
249723.000000
250797.000000
251900.000000
252933.000000
253937.000000
254969.000000
256023.000000
257122.000000
258147.000000
259176.000000
260279.000000
261376.000000
262410.000000
263485.000000
264561.000000
265579.000000
266617.000000
267703.000000
268742.000000
269744.000000
270812.000000
271874.000000
272871.000000
273886.000000
274938.000000
275928.000000
276923.000000
278009.000000
279098.000000
280126.000000
281198.000000
282287.000000
283303.000000
284326.000000
285399.000000
286470.000000
287464.000000
288497.000000
289607.000000
290658.000000
291675.000000
292766.000000
293871.000000
294904.000000
295952.000000
297067.000000
298122.000000
299148.000000
300221.000000
301274.000000
302406.000000
303466.000000
304494.000000
305595.000000
306694.000000
307736.000000
308830.000000
309902.000000
310907.000000
311964.000000
313037.000000
314045.000000
315068.000000
316176.000000
317253.000000
318254.000000
319285.000000
320326.000000
321311.000000
322304.000000
323415.000000
324516.000000
325565.000000
326653.000000
327769.000000
328827.000000
329898.000000
331002.000000
332049.000000
333054.000000
334142.000000
335241.000000
336265.000000
337341.000000
338427.000000
339446.000000
340485.000000
341557.000000
342588.000000
343629.000000
344634.000000
345508.000000
346315.000000
347158.000000
348313.000000
349470.000000
350419.000000
351351.000000
352382.000000
353389.000000
354289.000000
355268.000000
356292.000000
357206.000000
358048.000000
358868.000000
359765.000000
360827.000000
361707.000000
362578.000000
363488.000000
364341.000000
365138.000000
365903.000000
366643.000000
367367.000000
368127.000000
368954.000000
369818.000000
370612.000000
371417.000000
372162.000000
372888.000000
373607.000000
374349.000000
375104.000000
375833.000000
376557.000000
377328.000000
378198.000000
379279.000000
380363.000000
381293.000000
382207.000000
383193.000000
384339.000000
385355.000000
386370.000000
387417.000000
388494.000000
389467.000000
390564.000000
391728.000000
392760.000000
393776.000000
394869.000000
396146.000000
397198.000000
398191.000000
399343.000000
400567.000000
401491.000000
402310.000000
403145.000000
404212.000000
405527.000000
406693.000000
407716.000000
408759.000000
409859.000000
410936.000000
411950.000000
413023.000000
414086.000000
415031.000000
415929.000000
417073.000000
418221.000000
419288.000000
420375.000000
421476.000000
422566.000000
423539.000000
424522.000000
425573.000000
426712.000000
427783.000000
428889.000000
429994.000000
431054.000000
432078.000000
433144.000000
434257.000000
435294.000000
436327.000000
437358.000000
438342.000000
439325.000000
440434.000000
441573.000000
442644.000000
443673.000000
444763.000000
445723.000000
446650.000000
447636.000000
448685.000000
449933.000000
451061.000000
452126.000000
453030.000000
453907.000000
454844.000000
456174.000000
457207.000000
458354.000000
459521.000000
460525.000000
461533.000000
462743.000000
463874.000000
464883.000000
465906.000000
466891.000000
467767.000000
468624.000000
469462.000000
470451.000000
471708.000000
472746.000000
473716.000000
474683.000000
475700.000000
476598.000000
477461.000000
478401.000000
479553.000000
480518.000000
481522.000000
482469.000000
483426.000000
484291.000000
485172.000000
485956.000000
486711.000000
487439.000000
488173.000000
488892.000000
489600.000000
490345.000000
491146.000000
492023.000000
492853.000000
493661.000000
494523.000000
495367.000000
496230.000000
497170.000000
498180.000000
499236.000000
500260.000000
501259.000000
502200.000000
503046.000000
503914.000000
504888.000000
506042.000000
506969.000000
507799.000000
508634.000000
509590.000000
510750.000000
511782.000000
512646.000000
513492.000000
514421.000000
515666.000000
516748.000000
517647.000000
518514.000000
519465.000000
520615.000000
521547.000000
522432.000000
523315.000000
524193.000000
525487.000000
526647.000000
527682.000000
528575.000000
529421.000000
530376.000000
531751.000000
532964.000000
534137.000000
535292.000000
536391.000000
537342.000000
538175.000000
538984.000000
539853.000000
541075.000000
542250.000000
543349.000000
544403.000000
545364.000000
546293.000000
547265.000000
548387.000000
549477.000000
550418.000000
551263.000000
552125.000000
553086.000000
554092.000000
554983.000000
555857.000000
556810.000000
558030.000000
559205.000000
560172.000000
561043.000000
561943.000000
563255.000000
564461.000000
565418.000000
566276.000000
567128.000000
567997.000000
569289.000000
570425.000000
571457.000000
572496.000000
573348.000000
574171.000000
574944.000000
575685.000000
576419.000000
577164.000000
577895.000000
578616.000000
579388.000000
580200.000000
581066.000000
581884.000000
582688.000000
583497.000000
584301.000000
585150.000000
586135.000000
587182.000000
588084.000000
588958.000000
589873.000000
590879.000000
591938.000000
592919.000000
593829.000000
594665.000000
595450.000000
596247.000000
597245.000000
598502.000000
599627.000000
600689.000000
601630.000000
602493.000000
603368.000000
604470.000000
605700.000000
606859.000000
607969.000000
609001.000000
609977.000000
610859.000000
611664.000000
612509.000000
613381.000000
614401.000000
615488.000000
616548.000000
617441.000000
618309.000000
619162.000000
620260.000000
621270.000000
622169.000000
622975.000000
623792.000000
624538.000000
625259.000000
625961.000000
626646.000000
627314.000000
627973.000000
628651.000000
629345.000000
630117.000000
630846.000000
631545.000000
632240.000000
632935.000000
633636.000000
634325.000000
635011.000000
635722.000000
636455.000000
637262.000000
638166.000000
639042.000000
639865.000000
640684.000000
641493.000000
642264.000000
643011.000000
643782.000000
644570.000000
645312.000000
646078.000000
646843.000000
647598.000000
648397.000000
649143.000000
649856.000000
650546.000000
651207.000000
651848.000000
652477.000000
653101.000000
653761.000000
654450.000000
655132.000000
655843.000000
656606.000000
657355.000000
658076.000000
658773.000000
659472.000000
660161.000000
660863.000000
661603.000000
662351.000000
663058.000000
663801.000000
664507.000000
665180.000000
665827.000000
666459.000000
667072.000000
667683.000000
668299.000000
668917.000000
669540.000000
670185.000000
670846.000000
671513.000000
672183.000000
672879.000000
673543.000000
674194.000000
674823.000000
675438.000000
676038.000000
676634.000000
677234.000000
677835.000000
678442.000000
679061.000000
679709.000000
680387.000000
681116.000000
681815.000000
682517.000000
683270.000000
684034.000000
684817.000000
685603.000000
686377.000000
687106.000000
687822.000000
688533.000000
689252.000000
689997.000000
690806.000000
691661.000000
692483.000000
693242.000000
693959.000000
694660.000000
695366.000000
696098.000000
696875.000000
697609.000000
698373.000000
699177.000000
699947.000000
700732.000000
701495.000000
702237.000000
702982.000000
703722.000000
704481.000000
705233.000000
706003.000000
706746.000000
707529.000000
708396.000000
709286.000000
710115.000000
710886.000000
711644.000000
712387.000000
713150.000000
713924.000000
714694.000000
715452.000000
716251.000000
717065.000000
717846.000000
718611.000000
719412.000000
720255.000000
721112.000000
721934.000000
722764.000000
723628.000000
724453.000000
725245.000000
726080.000000
726905.000000
727770.000000
728692.000000
729544.000000
730340.000000
731118.000000
731931.000000
732808.000000
733818.000000
734787.000000
735673.000000
736552.000000
737389.000000
738177.000000
739024.000000
740032.000000
741024.000000
741900.000000
742728.000000
743570.000000
744378.000000
745168.000000
746004.000000
747122.000000
748201.000000
749156.000000
750006.000000
750796.000000
751583.000000
752429.000000
753422.000000
754552.000000
755592.000000
756552.000000
757409.000000
758240.000000
759092.000000
760011.000000
760957.000000
761829.000000
762634.000000
763437.000000
764306.000000
765355.000000
766357.000000
767270.000000
768207.000000
769224.000000
770272.000000
771259.000000
772136.000000
772975.000000
773821.000000
774686.000000
775965.000000
777112.000000
778104.000000
778973.000000
779817.000000
780756.000000
781712.000000
782608.000000
783432.000000
784222.000000
784977.000000
785787.000000
786559.000000
787339.000000
788125.000000
788869.000000
789633.000000
790390.000000
791135.000000
791848.000000
792540.000000
793203.000000
793844.000000
794466.000000
795075.000000
795680.000000
796279.000000
796887.000000
797523.000000
798171.000000
798822.000000
799506.000000
800191.000000
800859.000000
801511.000000
802147.000000
802768.000000
803377.000000
803982.000000
804587.000000
805189.000000
805791.000000
806403.000000
807019.000000
807649.000000
808295.000000
808934.000000
809586.000000
810260.000000
810934.000000
811619.000000
812313.000000
813027.000000
813748.000000
814446.000000
815130.000000
815808.000000
816500.000000
817192.000000
817882.000000
818572.000000
819293.000000
820038.000000
820761.000000
821472.000000
822190.000000
822906.000000
823618.000000
824336.000000
825064.000000
825801.000000
826520.000000
827240.000000
827975.000000
828731.000000
829465.000000
830193.000000
830930.000000
831674.000000
832402.000000
833135.000000
833882.000000
834636.000000
835370.000000
836110.000000
836858.000000
837596.000000
838325.000000
839047.000000
839774.000000
840513.000000
841249.000000
841977.000000
842695.000000
843426.000000
844197.000000
845042.000000
845922.000000
846785.000000
847587.000000
848356.000000
849112.000000
849875.000000
850672.000000
851549.000000
852439.000000
853331.000000
854186.000000
854992.000000
855759.000000
856495.000000
857256.000000
858034.000000
858873.000000
859749.000000
860731.000000
861695.000000
862568.000000
863376.000000
864153.000000
864932.000000
865760.000000
866734.000000
867640.000000
868467.000000
869258.000000
870060.000000
870930.000000
871879.000000
872843.000000
873767.000000
874644.000000
875531.000000
876423.000000
877270.000000
878055.000000
878831.000000
879620.000000
880465.000000
881449.000000
882432.000000
883314.000000
884142.000000
884949.000000
885728.000000
886526.000000
887370.000000
888280.000000
889136.000000
889976.000000
890797.000000
891606.000000
892435.000000
893322.000000
894237.000000
895107.000000
895957.000000
896778.000000
897557.000000
898286.000000
