ECG (ms)
158.000000
1152.000000
2101.000000
3009.000000
3888.000000
4783.000000
5742.000000
6738.000000
7741.000000
8709.000000
9634.000000
10573.000000
11547.000000
12539.000000
13521.000000
14466.000000
15372.000000
16294.000000
17284.000000
18301.000000
19306.000000
20285.000000
21219.000000
22122.000000
23041.000000
24027.000000
25051.000000
26084.000000
27026.000000
27901.000000
28798.000000
29676.000000
30529.000000
31333.000000
32146.000000
33005.000000
33911.000000
34842.000000
35762.000000
36655.000000
37552.000000
38511.000000
39487.000000
40461.000000
41419.000000
42332.000000
43208.000000
44087.000000
45039.000000
46045.000000
47080.000000
48107.000000
49103.000000
50040.000000
50925.000000
51808.000000
52767.000000
53773.000000
54786.000000
55799.000000
56789.000000
57740.000000
58642.000000
59536.000000
60474.000000
61443.000000
62420.000000
63381.000000
64313.000000
65211.000000
66096.000000
67036.000000
68006.000000
68994.000000
69999.000000
71005.000000
71979.000000
72911.000000
73816.000000
74737.000000
75701.000000
76687.000000
77672.000000
78660.000000
79603.000000
80505.000000
81389.000000
82327.000000
83321.000000
84329.000000
85343.000000
86334.000000
87271.000000
88159.000000
89016.000000
89914.000000
90886.000000
91889.000000
92903.000000
93909.000000
94865.000000
95776.000000
96653.000000
97583.000000
98559.000000
99557.000000
100554.000000
101508.000000
102423.000000
103356.000000
104331.000000
105304.000000
106268.000000
107191.000000
108063.000000
108913.000000
109803.000000
110763.000000
111756.000000
112763.000000
113752.000000
114682.000000
115554.000000
116411.000000
117301.000000
118238.000000
119214.000000
120205.000000
121178.000000
122180.000000
123191.000000
124191.000000
125139.000000
126085.000000
127035.000000
127979.000000
128889.000000
129774.000000
130665.000000
131587.000000
132531.000000
133483.000000
134426.000000
135373.000000
136283.000000
137154.000000
138048.000000
138986.000000
139939.000000
140904.000000
141863.000000
142789.000000
143683.000000
144560.000000
145454.000000
146362.000000
147290.000000
148230.000000
149146.000000
150063.000000
150993.000000
151914.000000
152827.000000
153712.000000
154571.000000
155418.000000
156303.000000
157240.000000
158197.000000
159141.000000
160045.000000
160926.000000
161828.000000
162742.000000
163663.000000
164555.000000
165410.000000
166261.000000
167141.000000
168069.000000
169023.000000
169978.000000
170932.000000
171859.000000
172756.000000
173668.000000
174589.000000
175522.000000
176486.000000
177433.000000
178350.000000
179245.000000
180174.000000
181131.000000
182084.000000
183030.000000
183955.000000
184843.000000
185701.000000
186546.000000
187444.000000
188454.000000
189500.000000
190550.000000
191577.000000
192556.000000
193495.000000
194441.000000
195395.000000
196362.000000
197336.000000
198285.000000
199200.000000
200094.000000
201019.000000
201992.000000
202980.000000
203984.000000
204966.000000
205883.000000
206754.000000
207594.000000
208446.000000
209393.000000
210437.000000
211497.000000
212502.000000
213431.000000
214383.000000
215332.000000
216279.000000
217223.000000
218167.000000
219116.000000
220030.000000
220916.000000
221785.000000
222685.000000
223639.000000
224631.000000
225633.000000
226624.000000
227583.000000
228509.000000
229414.000000
230342.000000
231302.000000
232293.000000
233316.000000
234327.000000
235315.000000
236266.000000
237222.000000
238210.000000
239219.000000
240226.000000
241239.000000
242242.000000
243240.000000
244227.000000
245185.000000
246127.000000
247097.000000
248087.000000
249080.000000
250046.000000
250987.000000
251937.000000
252917.000000
253920.000000
254929.000000
255933.000000
256942.000000
257928.000000
258878.000000
259801.000000
260725.000000
261695.000000
262704.000000
263732.000000
264751.000000
265739.000000
266678.000000
267626.000000
268569.000000
269519.000000
270463.000000
271384.000000
272343.000000
273296.000000
274253.000000
275202.000000
276138.000000
277081.000000
278033.000000
278988.000000
279940.000000
280889.000000
281836.000000
282758.000000
283656.000000
284535.000000
285415.000000
286356.000000
287352.000000
288358.000000
289357.000000
290334.000000
291284.000000
292181.000000
293043.000000
293894.000000
294762.000000
295717.000000
296737.000000
297656.000000
298573.000000
299505.000000
300441.000000
301384.000000
302324.000000
303236.000000
304108.000000
304950.000000
305764.000000
306600.000000
307524.000000
308528.000000
309540.000000
310568.000000
311602.000000
312632.000000
313643.000000
314635.000000
315571.000000
316460.000000
317325.000000
318198.000000
319149.000000
320177.000000
321226.000000
322262.000000
323290.000000
324283.000000
325235.000000
326145.000000
327032.000000
327953.000000
328955.000000
329981.000000
331014.000000
332040.000000
333052.000000
334044.000000
335026.000000
335978.000000
336908.000000
337816.000000
338706.000000
339626.000000
340638.000000
341685.000000
342740.000000
343781.000000
344810.000000
345799.000000
346747.000000
347653.000000
348582.000000
349566.000000
350597.000000
351645.000000
352691.000000
353709.000000
354687.000000
355661.000000
356638.000000
357619.000000
358608.000000
359589.000000
360541.000000
361444.000000
362373.000000
363327.000000
364316.000000
365318.000000
366324.000000
367290.000000
368262.000000
369227.000000
370195.000000
371165.000000
372128.000000
373066.000000
374003.000000
374971.000000
375957.000000
376938.000000
377900.000000
378831.000000
379774.000000
380747.000000
381735.000000
382712.000000
383663.000000
384593.000000
385545.000000
386521.000000
387520.000000
388524.000000
389524.000000
390508.000000
391458.000000
392411.000000
393380.000000
394360.000000
395345.000000
396332.000000
397304.000000
398250.000000
399212.000000
400198.000000
401199.000000
402201.000000
403201.000000
404189.000000
405173.000000
406150.000000
407122.000000
408075.000000
409014.000000
409979.000000
410985.000000
412012.000000
413031.000000
414037.000000
415047.000000
416044.000000
417036.000000
418041.000000
419038.000000
420007.000000
421000.000000
422007.000000
422986.000000
423869.000000
424767.000000
425707.000000
426630.000000
427527.000000
428404.000000
429336.000000
430330.000000
431343.000000
432347.000000
433345.000000
434341.000000
435323.000000
436293.000000
437246.000000
438169.000000
439076.000000
440039.000000
441071.000000
442134.000000
443186.000000
444218.000000
445224.000000
446197.000000
447131.000000
448027.000000
448933.000000
449906.000000
450912.000000
451940.000000
452970.000000
453985.000000
454984.000000
455961.000000
456902.000000
457810.000000
458745.000000
459705.000000
460693.000000
461663.000000
462586.000000
463452.000000
464304.000000
465184.000000
466206.000000
467282.000000
468368.000000
469443.000000
470500.000000
471530.000000
472528.000000
473503.000000
474394.000000
475222.000000
476055.000000
476950.000000
477904.000000
478869.000000
479835.000000
480788.000000
481708.000000
482598.000000
483501.000000
484443.000000
485440.000000
486454.000000
487458.000000
488458.000000
489452.000000
490443.000000
491432.000000
492441.000000
493441.000000
494438.000000
495431.000000
496419.000000
497411.000000
498388.000000
499334.000000
500256.000000
501206.000000
502185.000000
503166.000000
504146.000000
505133.000000
506114.000000
507081.000000
508036.000000
508986.000000
509924.000000
510859.000000
511820.000000
512795.000000
513795.000000
514803.000000
515819.000000
516822.000000
517784.000000
518696.000000
519590.000000
520503.000000
521443.000000
522420.000000
523414.000000
524407.000000
525400.000000
526363.000000
527292.000000
528219.000000
529168.000000
530126.000000
531105.000000
532087.000000
533062.000000
534032.000000
534993.000000
535953.000000
536912.000000
537848.000000
538770.000000
539683.000000
540633.000000
541624.000000
542626.000000
543629.000000
544619.000000
545596.000000
546556.000000
547501.000000
548446.000000
549381.000000
550307.000000
551245.000000
552216.000000
553215.000000
554216.000000
555203.000000
556141.000000
557030.000000
557872.000000
558719.000000
559632.000000
560638.000000
561692.000000
562745.000000
563797.000000
564832.000000
565848.000000
566845.000000
567821.000000
568783.000000
569742.000000
570707.000000
571676.000000
572654.000000
573635.000000
574601.000000
575529.000000
576423.000000
577288.000000
578172.000000
579136.000000
580175.000000
581228.000000
582255.000000
583166.000000
584063.000000
584983.000000
585896.000000
586798.000000
587680.000000
588606.000000
589583.000000
590571.000000
591564.000000
592555.000000
593535.000000
594517.000000
595491.000000
596463.000000
597434.000000
598381.000000
599314.000000
600232.000000
601152.000000
602142.000000
603187.000000
604252.000000
605304.000000
606335.000000
607328.000000
608269.000000
609160.000000
610038.000000
610957.000000
611971.000000
613026.000000
614077.000000
615126.000000
616167.000000
617185.000000
618162.000000
619109.000000
620021.000000
620934.000000
621924.000000
622965.000000
624013.000000
625056.000000
626081.000000
627084.000000
628043.000000
628957.000000
629827.000000
630731.000000
631723.000000
632751.000000
633804.000000
634847.000000
635874.000000
636876.000000
637863.000000
638833.000000
639818.000000
640799.000000
641755.000000
642696.000000
643666.000000
644678.000000
645713.000000
646738.000000
647753.000000
648772.000000
649779.000000
650760.000000
651724.000000
652662.000000
653588.000000
654506.000000
655425.000000
656387.000000
657384.000000
658376.000000
659366.000000
660341.000000
661273.000000
662120.000000
662920.000000
663717.000000
664516.000000
665364.000000
666329.000000
667370.000000
668424.000000
669469.000000
670495.000000
671504.000000
672487.000000
673450.000000
674392.000000
675333.000000
676279.000000
677235.000000
678213.000000
679235.000000
680276.000000
681328.000000
682372.000000
683401.000000
684411.000000
685391.000000
686332.000000
687254.000000
688225.000000
689265.000000
690343.000000
691432.000000
692508.000000
693566.000000
694599.000000
695589.000000
696533.000000
697442.000000
698347.000000
699308.000000
700330.000000
701380.000000
702432.000000
703467.000000
704477.000000
705466.000000
706440.000000
707416.000000
708398.000000
709375.000000
710330.000000
711248.000000
712186.000000
713131.000000
714084.000000
715042.000000
716001.000000
716953.000000
717870.000000
718760.000000
719614.000000
720461.000000
721371.000000
722379.000000
723426.000000
724475.000000
725516.000000
726527.000000
727485.000000
728389.000000
729276.000000
730167.000000
731096.000000
732062.000000
733048.000000
734039.000000
735001.000000
735931.000000
736833.000000
737727.000000
738657.000000
739623.000000
740608.000000
741589.000000
742564.000000
743517.000000
744434.000000
745308.000000
746150.000000
747005.000000
747905.000000
748846.000000
749818.000000
750788.000000
751758.000000
752711.000000
753637.000000
754533.000000
755407.000000
756300.000000
757220.000000
758182.000000
759163.000000
760158.000000
761150.000000
762117.000000
763050.000000
763952.000000
764857.000000
765808.000000
766800.000000
767805.000000
768820.000000
769829.000000
770823.000000
771795.000000
772736.000000
773654.000000
774582.000000
775553.000000
776515.000000
777401.000000
778282.000000
779204.000000
780146.000000
781105.000000
782065.000000
782985.000000
783872.000000
784740.000000
785596.000000
786432.000000
787337.000000
788344.000000
789360.000000
790287.000000
791196.000000
792128.000000
793056.000000
793991.000000
794944.000000
795897.000000
796842.000000
797759.000000
798647.000000
799505.000000
800368.000000
801277.000000
802241.000000
803232.000000
804226.000000
805214.000000
806187.000000
807143.000000
808061.000000
808965.000000
809872.000000
810802.000000
811813.000000
812865.000000
813930.000000
814977.000000
815995.000000
816997.000000
817969.000000
818911.000000
819814.000000
820708.000000
821606.000000
822548.000000
823537.000000
824553.000000
825563.000000
826569.000000
827562.000000
828543.000000
829473.000000
830372.000000
831297.000000
832259.000000
833246.000000
834249.000000
835244.000000
836218.000000
837170.000000
838132.000000
839097.000000
840069.000000
841045.000000
842027.000000
843008.000000
843994.000000
844971.000000
845943.000000
846880.000000
847791.000000
848675.000000
849567.000000
850525.000000
851555.000000
852605.000000
853654.000000
854699.000000
855731.000000
856747.000000
857736.000000
858637.000000
859476.000000
860322.000000
861171.000000
862036.000000
862973.000000
863971.000000
865007.000000
866038.000000
867069.000000
868075.000000
869051.000000
869999.000000
871005.000000
872045.000000
873098.000000
874166.000000
875217.000000
876243.000000
877229.000000
878190.000000
879137.000000
880127.000000
881174.000000
882228.000000
883280.000000
884314.000000
885332.000000
886336.000000
887321.000000
888293.000000
889231.000000
890149.000000
891089.000000
892079.000000
893087.000000
894097.000000
895098.000000
896086.000000
897070.000000
898050.000000
899022.000000
899984.000000
900909.000000
901824.000000
902761.000000
903724.000000
