ECG (ms)
271.000000
1418.000000
2601.000000
3760.000000
4865.000000
6027.000000
7197.000000
8296.000000
9431.000000
10559.000000
11627.000000
12700.000000
13794.000000
14859.000000
15900.000000
17128.000000
18294.000000
19403.000000
20570.000000
21719.000000
22826.000000
23937.000000
25010.000000
26087.000000
27276.000000
28468.000000
29623.000000
30771.000000
31942.000000
33089.000000
34221.000000
35413.000000
36581.000000
37717.000000
38877.000000
40017.000000
41110.000000
42243.000000
43369.000000
44405.000000
45481.000000
46605.000000
47671.000000
48802.000000
49948.000000
51031.000000
52166.000000
53271.000000
54332.000000
55442.000000
56604.000000
57752.000000
58844.000000
59971.000000
61146.000000
62313.000000
63487.000000
64661.000000
65752.000000
66857.000000
68026.000000
69172.000000
70310.000000
71421.000000
72607.000000
73767.000000
74850.000000
75973.000000
77095.000000
78181.000000
79331.000000
80497.000000
81595.000000
82757.000000
83908.000000
85003.000000
86150.000000
87336.000000
88447.000000
89602.000000
90788.000000
91903.000000
93058.000000
94245.000000
95386.000000
96489.000000
97672.000000
98823.000000
99887.000000
100937.000000
102070.000000
103221.000000
104279.000000
105424.000000
106614.000000
107759.000000
108943.000000
110124.000000
111284.000000
112478.000000
113652.000000
114762.000000
115920.000000
117096.000000
118201.000000
119370.000000
120525.000000
121633.000000
122766.000000
123946.000000
125116.000000
126226.000000
127394.000000
128544.000000
129640.000000
130782.000000
131928.000000
133024.000000
134195.000000
135352.000000
136442.000000
137587.000000
138721.000000
139797.000000
140892.000000
142035.000000
143147.000000
144231.000000
145399.000000
146541.000000
147609.000000
148731.000000
149892.000000
150987.000000
152098.000000
153247.000000
154366.000000
155466.000000
156588.000000
157704.000000
158787.000000
159922.000000
161065.000000
162168.000000
163322.000000
164517.000000
165641.000000
166777.000000
167967.000000
169125.000000
170242.000000
171359.000000
172544.000000
173706.000000
174807.000000
175911.000000
177090.000000
178280.000000
179396.000000
180528.000000
181736.000000
182931.000000
184057.000000
185199.000000
186400.000000
187610.000000
188733.000000
189927.000000
191121.000000
192316.000000
193466.000000
194587.000000
195780.000000
196968.000000
198123.000000
199201.000000
200332.000000
201500.000000
202628.000000
203693.000000
204834.000000
205960.000000
207030.000000
208213.000000
209372.000000
210432.000000
211526.000000
212672.000000
213774.000000
214888.000000
216099.000000
217216.000000
218337.000000
219522.000000
220678.000000
221796.000000
222982.000000
224180.000000
225318.000000
226532.000000
227729.000000
228865.000000
230056.000000
231265.000000
232383.000000
233546.000000
234757.000000
235936.000000
237083.000000
238280.000000
239451.000000
240579.000000
241765.000000
242945.000000
244044.000000
245189.000000
246337.000000
247418.000000
248502.000000
249686.000000
250804.000000
251887.000000
253024.000000
254133.000000
255145.000000
256204.000000
257317.000000
258366.000000
259430.000000
260555.000000
261667.000000
262750.000000
263905.000000
265011.000000
266046.000000
267173.000000
268329.000000
269418.000000
270587.000000
271761.000000
272860.000000
274012.000000
275154.000000
276262.000000
277423.000000
278540.000000
279634.000000
280785.000000
281932.000000
283018.000000
284185.000000
285337.000000
286415.000000
287576.000000
288740.000000
289825.000000
290974.000000
292117.000000
293236.000000
294433.000000
295635.000000
296783.000000
297969.000000
299139.000000
300256.000000
301429.000000
302577.000000
303715.000000
304914.000000
306092.000000
307261.000000
308464.000000
309620.000000
310756.000000
311959.000000
313129.000000
314267.000000
315478.000000
316662.000000
317803.000000
318997.000000
320160.000000
321286.000000
322475.000000
323619.000000
324752.000000
325943.000000
327115.000000
328268.000000
329466.000000
330619.000000
331764.000000
332962.000000
334118.000000
335242.000000
336408.000000
337545.000000
338587.000000
339591.000000
340790.000000
341822.000000
342797.000000
343955.000000
345119.000000
346223.000000
347192.000000
348182.000000
349359.000000
350455.000000
351490.000000
352656.000000
353842.000000
354975.000000
355976.000000
357134.000000
358293.000000
359482.000000
360558.000000
361619.000000
362821.000000
363961.000000
365113.000000
366298.000000
367408.000000
368513.000000
369675.000000
370811.000000
371338.000000
372521.000000
373678.000000
374770.000000
375872.000000
377045.000000
378194.000000
379276.000000
380367.000000
381447.000000
382461.000000
383566.000000
384738.000000
385723.000000
386708.000000
387660.000000
388567.000000
389740.000000
390840.000000
391890.000000
392995.000000
394139.000000
395224.000000
396209.000000
397286.000000
398463.000000
399630.000000
400721.000000
401867.000000
403058.000000
404191.000000
405348.000000
406535.000000
407697.000000
408829.000000
410026.000000
411228.000000
412348.000000
413526.000000
414690.000000
415791.000000
416942.000000
418067.000000
419154.000000
420295.000000
421435.000000
422503.000000
423630.000000
424795.000000
425843.000000
426979.000000
428145.000000
429245.000000
430436.000000
431621.000000
432755.000000
433943.000000
435111.000000
436262.000000
437461.000000
438624.000000
439771.000000
440996.000000
442191.000000
443392.000000
444617.000000
445773.000000
446924.000000
448108.000000
449264.000000
450381.000000
451561.000000
452737.000000
453865.000000
455056.000000
456248.000000
457412.000000
458610.000000
459820.000000
460966.000000
462172.000000
463386.000000
464551.000000
465761.000000
466923.000000
468052.000000
469261.000000
470401.000000
471473.000000
472622.000000
473826.000000
474912.000000
476106.000000
477272.000000
478363.000000
479532.000000
480686.000000
481761.000000
482959.000000
484140.000000
485275.000000
486460.000000
487562.000000
488561.000000
489720.000000
490908.000000
492051.000000
493239.000000
494404.000000
495559.000000
496735.000000
497880.000000
498999.000000
500135.000000
501261.000000
502358.000000
503545.000000
504718.000000
505865.000000
507074.000000
508250.000000
509377.000000
510578.000000
511736.000000
512841.000000
514027.000000
515206.000000
516337.000000
517558.000000
518780.000000
519931.000000
521147.000000
522343.000000
523470.000000
524694.000000
525900.000000
527051.000000
528258.000000
529434.000000
530571.000000
531791.000000
533005.000000
534143.000000
535340.000000
536527.000000
537633.000000
538750.000000
539916.000000
541026.000000
542303.000000
543492.000000
544648.000000
545860.000000
547023.000000
548119.000000
549235.000000
550406.000000
551449.000000
552602.000000
553760.000000
554841.000000
556041.000000
557228.000000
558356.000000
559535.000000
560706.000000
561816.000000
562985.000000
564169.000000
565298.000000
566500.000000
567651.000000
568772.000000
569959.000000
571120.000000
572245.000000
573412.000000
574540.000000
575636.000000
576792.000000
577939.000000
579024.000000
580202.000000
581348.000000
582447.000000
583604.000000
584757.000000
585866.000000
587029.000000
588171.000000
589244.000000
590373.000000
591486.000000
592494.000000
593623.000000
594790.000000
595843.000000
596997.000000
598121.000000
599230.000000
600396.000000
601513.000000
602614.000000
603763.000000
604890.000000
606000.000000
607129.000000
608234.000000
609315.000000
610432.000000
611550.000000
612604.000000
613702.000000
614819.000000
615870.000000
616998.000000
618132.000000
619192.000000
620297.000000
621407.000000
622457.000000
623543.000000
624673.000000
625738.000000
626853.000000
628024.000000
629131.000000
630274.000000
631460.000000
632594.000000
633742.000000
634917.000000
636075.000000
637184.000000
638387.000000
639601.000000
640781.000000
641900.000000
643100.000000
644296.000000
645427.000000
646599.000000
647805.000000
648944.000000
650075.000000
651267.000000
652469.000000
653630.000000
654820.000000
655977.000000
657131.000000
658344.000000
659529.000000
660742.000000
661960.000000
663097.000000
664262.000000
665453.000000
666571.000000
667754.000000
668927.000000
670040.000000
671239.000000
672478.000000
673626.000000
674825.000000
676010.000000
677157.000000
678383.000000
679561.000000
680691.000000
681881.000000
683061.000000
684190.000000
685380.000000
686576.000000
687710.000000
688924.000000
690099.000000
691218.000000
692405.000000
693597.000000
694750.000000
695956.000000
697147.000000
698290.000000
699481.000000
700663.000000
701827.000000
703038.000000
704228.000000
705357.000000
706565.000000
707772.000000
708943.000000
710193.000000
711399.000000
712554.000000
713772.000000
714971.000000
716140.000000
717385.000000
718604.000000
719754.000000
720978.000000
722166.000000
723298.000000
724462.000000
725640.000000
726755.000000
727978.000000
729183.000000
730330.000000
731532.000000
732716.000000
733861.000000
735039.000000
736202.000000
737328.000000
738507.000000
739672.000000
740775.000000
741947.000000
743106.000000
744221.000000
745407.000000
746593.000000
747718.000000
748898.000000
750071.000000
751196.000000
752392.000000
753599.000000
754741.000000
755956.000000
757176.000000
758327.000000
759538.000000
760744.000000
761901.000000
763113.000000
764286.000000
765422.000000
766643.000000
767843.000000
768987.000000
770214.000000
771438.000000
772598.000000
773812.000000
774998.000000
776129.000000
777315.000000
778526.000000
779653.000000
780847.000000
782081.000000
783242.000000
784479.000000
785695.000000
786859.000000
788079.000000
789279.000000
790408.000000
791613.000000
792799.000000
793954.000000
795190.000000
796383.000000
797520.000000
798715.000000
799875.000000
800977.000000
802139.000000
803338.000000
804467.000000
805703.000000
806889.000000
808051.000000
809302.000000
810507.000000
811652.000000
812844.000000
813986.000000
815121.000000
816317.000000
817480.000000
818571.000000
819703.000000
820877.000000
821899.000000
823062.000000
824264.000000
825387.000000
826624.000000
827859.000000
829009.000000
830217.000000
831419.000000
832549.000000
833732.000000
834903.000000
836005.000000
837179.000000
838356.000000
839470.000000
840665.000000
841866.000000
842975.000000
844117.000000
845211.000000
846181.000000
847155.000000
848242.000000
849325.000000
850318.000000
851427.000000
852578.000000
853612.000000
854642.000000
855730.000000
856763.000000
857832.000000
858925.000000
860025.000000
861093.000000
862231.000000
863350.000000
864381.000000
865502.000000
866628.000000
867709.000000
868797.000000
869922.000000
871036.000000
872094.000000
873204.000000
874340.000000
875441.000000
876556.000000
877712.000000
878830.000000
879919.000000
881076.000000
882245.000000
883354.000000
884495.000000
885605.000000
886685.000000
887806.000000
