ECG (ms)
19.000000
765.000000
1516.000000
2264.000000
3004.000000
3747.000000
4497.000000
5254.000000
6012.000000
6765.000000
7517.000000
8273.000000
9031.000000
9782.000000
10527.000000
11277.000000
12039.000000
12812.000000
13586.000000
14365.000000
15153.000000
15950.000000
16761.000000
17538.000000
18314.000000
19100.000000
19897.000000
20701.000000
21474.000000
22253.000000
23035.000000
23820.000000
24583.000000
25345.000000
26117.000000
26895.000000
27659.000000
28423.000000
29186.000000
29954.000000
30721.000000
31482.000000
32243.000000
33011.000000
33776.000000
34533.000000
35294.000000
36052.000000
36792.000000
37540.000000
38297.000000
39062.000000
39812.000000
40538.000000
41268.000000
41993.000000
42721.000000
43465.000000
44237.000000
45024.000000
45815.000000
46621.000000
47421.000000
48208.000000
48973.000000
49730.000000
50485.000000
51235.000000
51968.000000
52704.000000
53439.000000
54173.000000
54901.000000
55644.000000
56387.000000
57131.000000
57878.000000
58638.000000
59410.000000
60170.000000
60918.000000
61674.000000
62442.000000
63201.000000
63950.000000
64707.000000
65475.000000
66248.000000
67007.000000
67745.000000
68481.000000
69211.000000
69930.000000
70662.000000
71407.000000
72158.000000
72899.000000
73653.000000
74403.000000
75154.000000
75894.000000
76647.000000
77416.000000
78190.000000
78948.000000
79707.000000
80476.000000
81239.000000
82007.000000
82789.000000
83571.000000
84330.000000
85082.000000
85850.000000
86626.000000
87401.000000
88165.000000
88932.000000
89702.000000
90469.000000
91216.000000
91968.000000
92725.000000
93479.000000
94220.000000
94971.000000
95736.000000
96496.000000
97256.000000
98030.000000
98808.000000
99580.000000
100334.000000
101090.000000
101847.000000
102605.000000
103368.000000
104134.000000
104895.000000
105646.000000
106396.000000
107153.000000
107923.000000
108690.000000
109452.000000
110227.000000
111008.000000
111782.000000
112539.000000
113303.000000
114068.000000
114820.000000
115564.000000
116324.000000
117095.000000
117864.000000
118615.000000
119372.000000
120135.000000
120890.000000
121635.000000
122386.000000
123143.000000
123902.000000
124652.000000
125401.000000
126156.000000
126906.000000
127659.000000
128432.000000
129209.000000
129963.000000
130715.000000
131481.000000
132258.000000
133029.000000
133776.000000
134507.000000
135238.000000
135976.000000
136713.000000
137433.000000
138123.000000
138807.000000
139507.000000
140223.000000
140952.000000
141691.000000
142431.000000
143197.000000
143958.000000
144720.000000
145475.000000
146231.000000
146994.000000
147754.000000
148508.000000
149256.000000
150012.000000
150775.000000
151548.000000
152318.000000
153099.000000
153869.000000
154621.000000
155345.000000
156082.000000
156844.000000
157619.000000
158390.000000
159159.000000
159934.000000
160692.000000
161445.000000
162196.000000
162965.000000
163742.000000
164513.000000
165289.000000
166061.000000
166837.000000
167622.000000
168389.000000
169147.000000
169911.000000
170693.000000
171475.000000
172233.000000
172991.000000
173758.000000
174525.000000
175289.000000
176054.000000
176825.000000
177604.000000
178382.000000
179153.000000
179934.000000
180718.000000
181482.000000
182235.000000
182996.000000
183780.000000
184551.000000
185299.000000
186038.000000
186786.000000
187542.000000
188298.000000
189055.000000
189829.000000
190619.000000
191399.000000
192173.000000
192952.000000
193747.000000
194528.000000
195307.000000
196099.000000
196879.000000
197646.000000
198409.000000
199187.000000
199970.000000
200737.000000
201488.000000
202263.000000
203050.000000
203810.000000
204557.000000
205318.000000
206089.000000
206858.000000
207600.000000
208350.000000
209110.000000
209889.000000
210674.000000
211435.000000
212188.000000
212946.000000
213708.000000
214486.000000
215284.000000
216082.000000
216864.000000
217629.000000
218400.000000
219172.000000
219944.000000
220707.000000
221473.000000
222247.000000
223017.000000
223770.000000
224541.000000
225318.000000
226079.000000
226816.000000
227565.000000
228313.000000
229063.000000
229802.000000
230561.000000
231335.000000
232112.000000
232890.000000
233677.000000
234475.000000
235259.000000
236027.000000
236798.000000
237590.000000
238385.000000
239172.000000
239970.000000
240771.000000
241561.000000
242340.000000
243134.000000
243948.000000
244751.000000
245531.000000
246315.000000
247113.000000
247900.000000
248660.000000
249406.000000
250141.000000
250883.000000
251619.000000
252341.000000
253046.000000
253766.000000
254504.000000
255243.000000
255984.000000
256736.000000
257495.000000
258244.000000
258995.000000
259753.000000
260516.000000
261280.000000
262044.000000
262818.000000
263585.000000
264353.000000
265128.000000
265901.000000
266672.000000
267462.000000
268251.000000
269031.000000
269808.000000
270589.000000
271389.000000
272154.000000
272903.000000
273660.000000
274431.000000
275204.000000
275963.000000
276739.000000
277545.000000
278338.000000
279113.000000
279895.000000
280681.000000
281458.000000
282214.000000
282972.000000
283737.000000
284506.000000
285260.000000
286027.000000
286804.000000
287577.000000
288353.000000
289135.000000
289916.000000
290671.000000
291423.000000
292187.000000
292963.000000
293740.000000
294506.000000
295277.000000
296047.000000
296824.000000
297593.000000
298361.000000
299141.000000
299906.000000
300664.000000
301448.000000
302268.000000
303079.000000
303854.000000
304607.000000
305358.000000
306103.000000
306837.000000
307586.000000
308340.000000
309092.000000
309846.000000
310622.000000
311398.000000
312153.000000
312865.000000
313561.000000
314265.000000
314984.000000
315714.000000
316453.000000
317192.000000
317934.000000
318685.000000
319451.000000
320220.000000
320989.000000
321760.000000
322518.000000
323257.000000
323981.000000
324688.000000
325378.000000
326051.000000
326721.000000
327395.000000
328091.000000
328796.000000
329510.000000
330243.000000
330993.000000
331753.000000
332521.000000
333278.000000
334021.000000
334772.000000
335532.000000
336307.000000
337079.000000
337857.000000
338654.000000
339450.000000
340229.000000
340982.000000
341744.000000
342510.000000
343282.000000
344037.000000
344808.000000
345594.000000
346381.000000
347151.000000
347916.000000
348695.000000
349493.000000
350245.000000
350961.000000
351666.000000
352386.000000
353124.000000
353869.000000
354614.000000
355380.000000
356156.000000
356933.000000
357713.000000
358503.000000
359296.000000
360078.000000
360852.000000
361629.000000
362406.000000
363181.000000
363957.000000
364745.000000
365534.000000
366318.000000
367097.000000
367873.000000
368636.000000
369383.000000
370125.000000
370870.000000
371620.000000
372344.000000
373054.000000
373769.000000
374484.000000
375199.000000
375908.000000
376639.000000
377378.000000
378122.000000
378859.000000
379610.000000
380369.000000
381129.000000
381882.000000
382637.000000
383393.000000
384152.000000
384907.000000
385661.000000
386426.000000
387192.000000
387950.000000
388710.000000
389482.000000
390256.000000
391031.000000
391810.000000
392596.000000
393387.000000
394172.000000
394963.000000
395759.000000
396554.000000
397342.000000
398131.000000
398930.000000
399724.000000
400507.000000
401292.000000
402085.000000
402859.000000
403623.000000
404399.000000
405186.000000
405973.000000
406753.000000
407550.000000
408331.000000
409096.000000
409871.000000
410666.000000
411454.000000
412245.000000
413042.000000
413847.000000
414635.000000
415422.000000
416218.000000
417012.000000
417798.000000
418584.000000
419375.000000
420158.000000
420918.000000
421680.000000
422450.000000
423231.000000
423994.000000
424760.000000
425543.000000
426320.000000
427076.000000
427827.000000
428582.000000
429341.000000
430091.000000
430847.000000
431611.000000
432365.000000
433116.000000
433883.000000
434670.000000
435456.000000
436214.000000
436969.000000
437728.000000
438486.000000
439254.000000
440038.000000
440827.000000
441595.000000
442360.000000
443143.000000
443953.000000
444747.000000
445529.000000
446325.000000
447128.000000
447921.000000
448708.000000
449511.000000
450305.000000
451058.000000
451795.000000
452535.000000
453271.000000
454003.000000
454737.000000
455479.000000
456228.000000
456978.000000
457718.000000
458464.000000
459225.000000
459996.000000
460763.000000
461525.000000
462298.000000
463067.000000
463830.000000
464590.000000
465357.000000
466126.000000
466882.000000
467631.000000
468389.000000
469164.000000
469934.000000
470701.000000
471490.000000
472291.000000
473080.000000
473857.000000
474635.000000
475425.000000
476215.000000
476985.000000
477755.000000
478542.000000
479318.000000
480085.000000
480867.000000
481657.000000
482443.000000
483198.000000
483951.000000
484709.000000
485473.000000
486233.000000
487009.000000
487805.000000
488610.000000
489393.000000
490172.000000
490955.000000
491732.000000
492506.000000
493289.000000
494074.000000
494838.000000
495604.000000
496379.000000
497163.000000
497933.000000
498704.000000
499487.000000
500273.000000
501054.000000
501832.000000
502617.000000
503404.000000
504180.000000
504966.000000
505750.000000
506521.000000
507288.000000
508061.000000
508839.000000
509601.000000
510367.000000
511147.000000
511922.000000
512679.000000
513429.000000
514186.000000
514953.000000
515701.000000
516453.000000
517222.000000
518014.000000
518786.000000
519538.000000
520297.000000
521076.000000
521868.000000
522638.000000
523419.000000
524222.000000
525020.000000
525789.000000
526557.000000
527337.000000
528121.000000
528895.000000
529666.000000
530439.000000
531203.000000
531963.000000
532740.000000
533534.000000
534317.000000
535082.000000
535847.000000
536615.000000
537373.000000
538140.000000
538917.000000
539695.000000
540464.000000
541249.000000
542039.000000
542815.000000
543577.000000
544347.000000
545132.000000
545923.000000
546709.000000
547490.000000
548283.000000
549073.000000
549843.000000
550614.000000
551394.000000
552164.000000
552939.000000
553723.000000
554533.000000
555334.000000
556097.000000
556842.000000
557573.000000
558315.000000
559049.000000
559764.000000
560455.000000
561152.000000
561867.000000
562605.000000
563353.000000
564105.000000
564866.000000
565642.000000
566435.000000
567251.000000
568070.000000
568885.000000
569702.000000
570524.000000
571335.000000
572115.000000
572881.000000
573659.000000
574461.000000
575267.000000
576060.000000
576831.000000
577609.000000
578399.000000
579186.000000
579980.000000
580787.000000
581573.000000
582349.000000
583140.000000
583949.000000
584761.000000
585550.000000
586327.000000
587102.000000
587878.000000
588650.000000
589433.000000
590239.000000
591013.000000
591759.000000
592510.000000
593280.000000
594057.000000
594816.000000
595588.000000
596376.000000
597169.000000
597968.000000
598805.000000
599693.000000
600519.000000
601342.000000
602146.000000
602928.000000
603706.000000
604480.000000
605258.000000
606033.000000
606807.000000
607604.000000
608405.000000
609183.000000
609942.000000
610707.000000
611474.000000
612239.000000
613002.000000
613787.000000
614578.000000
615353.000000
616124.000000
616895.000000
617675.000000
618468.000000
619262.000000
620078.000000
620904.000000
621710.000000
622490.000000
623251.000000
624006.000000
624765.000000
625511.000000
626255.000000
627021.000000
627796.000000
628576.000000
629346.000000
630135.000000
630922.000000
631708.000000
632493.000000
633293.000000
634084.000000
634863.000000
635648.000000
636440.000000
637233.000000
638007.000000
638768.000000
639527.000000
640293.000000
641083.000000
641890.000000
642683.000000
643476.000000
644281.000000
645106.000000
645906.000000
646687.000000
647476.000000
648285.000000
649114.000000
649896.000000
650650.000000
651412.000000
652194.000000
653001.000000
653796.000000
654595.000000
655427.000000
656246.000000
657058.000000
657866.000000
658664.000000
659464.000000
660256.000000
661058.000000
661868.000000
662669.000000
663446.000000
664191.000000
664950.000000
665719.000000
666474.000000
667205.000000
667954.000000
668727.000000
669513.000000
670274.000000
671047.000000
671838.000000
672628.000000
673440.000000
674276.000000
675128.000000
675960.000000
676776.000000
677593.000000
678421.000000
679260.000000
680081.000000
680871.000000
681657.000000
682444.000000
683236.000000
684020.000000
684791.000000
685570.000000
686349.000000
687107.000000
687835.000000
688567.000000
689311.000000
690069.000000
690826.000000
691601.000000
692392.000000
693188.000000
693995.000000
694791.000000
695579.000000
696364.000000
697161.000000
697970.000000
698777.000000
699583.000000
700405.000000
701236.000000
702061.000000
702852.000000
703629.000000
704410.000000
705193.000000
705973.000000
706728.000000
707497.000000
708276.000000
709070.000000
709860.000000
710659.000000
711473.000000
712285.000000
713084.000000
713871.000000
714668.000000
715484.000000
716279.000000
717063.000000
717847.000000
718640.000000
719429.000000
720204.000000
720969.000000
721751.000000
722556.000000
723330.000000
724065.000000
724793.000000
725526.000000
726276.000000
727022.000000
727795.000000
728610.000000
729457.000000
730272.000000
731065.000000
731859.000000
732662.000000
733465.000000
734263.000000
735069.000000
735888.000000
736693.000000
737474.000000
738246.000000
739029.000000
739815.000000
740605.000000
741376.000000
742131.000000
742883.000000
743648.000000
744405.000000
745135.000000
745889.000000
746654.000000
747421.000000
748169.000000
748953.000000
749743.000000
750542.000000
751334.000000
752122.000000
752924.000000
753730.000000
754525.000000
755319.000000
756125.000000
756935.000000
757729.000000
758531.000000
759318.000000
760107.000000
760885.000000
761663.000000
762481.000000
763320.000000
764151.000000
764983.000000
765832.000000
766659.000000
767462.000000
768270.000000
769078.000000
769895.000000
770706.000000
771521.000000
772347.000000
773159.000000
773950.000000
774719.000000
775495.000000
776288.000000
777071.000000
777822.000000
778548.000000
779289.000000
780045.000000
780789.000000
781505.000000
782236.000000
782988.000000
783758.000000
784532.000000
785316.000000
786114.000000
786938.000000
787754.000000
788562.000000
789383.000000
790215.000000
791050.000000
791883.000000
792726.000000
793579.000000
794397.000000
795207.000000
796029.000000
796875.000000
797715.000000
798541.000000
799363.000000
800190.000000
801035.000000
801856.000000
802649.000000
803449.000000
804267.000000
805070.000000
805851.000000
806618.000000
807402.000000
808212.000000
809028.000000
809833.000000
810671.000000
811521.000000
812353.000000
813163.000000
813974.000000
814791.000000
815598.000000
816401.000000
817211.000000
818024.000000
818819.000000
819589.000000
820356.000000
821131.000000
821911.000000
822692.000000
823492.000000
824319.000000
825152.000000
825980.000000
826815.000000
827649.000000
828460.000000
829253.000000
830044.000000
830841.000000
831644.000000
832425.000000
833175.000000
833929.000000
834689.000000
835451.000000
836197.000000
836933.000000
837691.000000
838467.000000
839254.000000
840022.000000
840808.000000
841595.000000
842385.000000
843165.000000
843957.000000
844759.000000
845558.000000
846349.000000
847142.000000
847946.000000
848747.000000
849526.000000
850310.000000
851100.000000
851891.000000
852674.000000
853476.000000
854282.000000
855092.000000
855879.000000
856658.000000
857442.000000
858236.000000
859036.000000
859829.000000
860630.000000
861434.000000
862234.000000
863024.000000
863821.000000
864633.000000
865451.000000
866257.000000
867035.000000
867807.000000
868584.000000
869370.000000
870158.000000
870926.000000
871695.000000
872469.000000
873249.000000
874030.000000
874802.000000
875597.000000
876396.000000
877194.000000
877993.000000
878808.000000
879627.000000
880461.000000
881284.000000
882075.000000
882859.000000
883640.000000
884424.000000
885209.000000
885968.000000
886735.000000
887503.000000
888277.000000
889033.000000
889759.000000
890466.000000
891184.000000
891925.000000
892693.000000
893471.000000
894264.000000
895075.000000
895908.000000
896730.000000
897558.000000
898391.000000
899225.000000
900046.000000
900859.000000
901673.000000
902492.000000
903291.000000
904076.000000
904850.000000
905642.000000
906430.000000
907198.000000
907942.000000
908693.000000
909447.000000
910185.000000
910906.000000
911642.000000
912406.000000
913184.000000
913963.000000
914755.000000
915568.000000
916392.000000
917200.000000
918004.000000
918806.000000
919613.000000
920405.000000
921185.000000
921968.000000
922744.000000
923521.000000
924299.000000
925092.000000
925891.000000
926684.000000
927477.000000
928277.000000
929089.000000
929887.000000
930671.000000
931444.000000
932208.000000
932954.000000
933718.000000
934495.000000
935286.000000
936064.000000
936837.000000
937627.000000
938434.000000
939239.000000
940022.000000
940792.000000
941563.000000
942339.000000
943109.000000
943872.000000
944659.000000
945464.000000
946277.000000
947089.000000
947899.000000
948706.000000
949504.000000
950286.000000
951076.000000
951886.000000
952707.000000
953506.000000
954271.000000
955028.000000
955783.000000
956565.000000
957357.000000
958143.000000
958912.000000
959705.000000
960534.000000
961357.000000
962175.000000
962995.000000
963839.000000
964679.000000
965499.000000
966323.000000
967129.000000
967919.000000
968680.000000
969437.000000
970206.000000
970990.000000
971782.000000
972563.000000
973373.000000
974191.000000
975011.000000
975825.000000
976646.000000
977451.000000
978252.000000
979039.000000
979831.000000
980633.000000
981434.000000
982224.000000
983016.000000
983825.000000
984637.000000
985436.000000
986213.000000
986993.000000
987778.000000
988546.000000
989292.000000
990041.000000
990796.000000
991564.000000
992330.000000
993089.000000
993862.000000
994650.000000
995440.000000
996217.000000
997007.000000
997805.000000
998591.000000
999366.000000
1000141.000000
1000918.000000
1001688.000000
1002455.000000
1003232.000000
1004026.000000
1004820.000000
1005599.000000
1006383.000000
1007176.000000
1007948.000000
1008695.000000
1009455.000000
1010230.000000
1011010.000000
1011781.000000
1012531.000000
1013303.000000
1014080.000000
1014851.000000
1015604.000000
1016355.000000
1017116.000000
1017888.000000
1018653.000000
1019424.000000
1020203.000000
1020990.000000
1021763.000000
1022547.000000
1023340.000000
1024125.000000
1024905.000000
1025689.000000
1026468.000000
1027235.000000
1028011.000000
1028804.000000
1029590.000000
1030391.000000
1031211.000000
1032035.000000
1032842.000000
1033625.000000
1034394.000000
1035167.000000
1035939.000000
1036710.000000
1037481.000000
1038262.000000
1039038.000000
1039806.000000
1040589.000000
1041377.000000
1042158.000000
1042929.000000
1043685.000000
1044453.000000
1045227.000000
1046005.000000
1046767.000000
1047528.000000
1048293.000000
1049069.000000
1049841.000000
1050587.000000
1051332.000000
1052086.000000
1052857.000000
1053639.000000
1054423.000000
1055220.000000
1056043.000000
1056864.000000
1057668.000000
1058470.000000
1059263.000000
1060048.000000
1060804.000000
1061556.000000
1062316.000000
1063088.000000
1063863.000000
1064618.000000
1065378.000000
1066144.000000
1066912.000000
1067681.000000
1068457.000000
1069230.000000
1069993.000000
1070761.000000
1071538.000000
1072328.000000
1073120.000000
1073915.000000
1074742.000000
1075583.000000
1076397.000000
1077201.000000
1078014.000000
1078841.000000
1079667.000000
1080476.000000
1081283.000000
1082092.000000
1082880.000000
1083633.000000
1084389.000000
1085157.000000
1085950.000000
1086740.000000
1087514.000000
1088283.000000
1089063.000000
1089843.000000
1090623.000000
1091393.000000
1092174.000000
1092958.000000
1093747.000000
1094530.000000
1095325.000000
1096126.000000
1096918.000000
1097694.000000
1098473.000000
1099265.000000
1100049.000000
1100819.000000
1101574.000000
1102341.000000
1103114.000000
1103887.000000
1104645.000000
1105413.000000
1106190.000000
1106963.000000
1107725.000000
1108513.000000
1109324.000000
1110132.000000
1110933.000000
1111738.000000
1112548.000000
1113345.000000
1114126.000000
1114906.000000
1115685.000000
1116461.000000
1117222.000000
1118003.000000
1118809.000000
1119625.000000
1120427.000000
1121222.000000
1122014.000000
1122795.000000
1123564.000000
1124311.000000
1125062.000000
1125822.000000
1126585.000000
1127348.000000
1128130.000000
1128922.000000
1129709.000000
1130473.000000
1131252.000000
1132042.000000
1132822.000000
1133597.000000
1134375.000000
1135148.000000
1135917.000000
1136682.000000
1137450.000000
1138227.000000
1139004.000000
1139765.000000
1140529.000000
1141301.000000
1142063.000000
1142805.000000
1143547.000000
1144298.000000
1145062.000000
1145834.000000
1146593.000000
1147346.000000
1148107.000000
1148876.000000
1149641.000000
1150386.000000
1151135.000000
1151893.000000
1152682.000000
1153462.000000
1154219.000000
1154981.000000
1155750.000000
1156517.000000
1157257.000000
1157958.000000
1158649.000000
1159347.000000
1160071.000000
1160794.000000
1161512.000000
1162208.000000
1162893.000000
1163579.000000
1164275.000000
1164978.000000
1165697.000000
1166432.000000
1167174.000000
1167917.000000
1168656.000000
1169404.000000
1170162.000000
1170920.000000
1171671.000000
1172423.000000
1173178.000000
1173938.000000
1174696.000000
1175452.000000
1176206.000000
1176966.000000
1177736.000000
1178509.000000
1179279.000000
1180034.000000
1180785.000000
1181540.000000
1182299.000000
1183065.000000
1183829.000000
1184594.000000
1185358.000000
1186122.000000
1186880.000000
1187631.000000
1188385.000000
1189144.000000
1189899.000000
1190639.000000
1191372.000000
1192110.000000
1192855.000000
1193606.000000
1194359.000000
1195118.000000
1195874.000000
1196628.000000
1197369.000000
1198109.000000
1198852.000000
1199603.000000
1200338.000000
1201076.000000
1201823.000000
1202571.000000
1203313.000000
1204051.000000
1204791.000000
1205533.000000
1206267.000000
1207003.000000
1207740.000000
1208488.000000
1209231.000000
1209971.000000
1210725.000000
1211484.000000
1212237.000000
1212985.000000
1213734.000000
1214483.000000
1215233.000000
1215993.000000
1216766.000000
1217552.000000
1218340.000000
1219112.000000
1219895.000000
1220675.000000
1221444.000000
1222206.000000
1222978.000000
1223758.000000
1224536.000000
1225298.000000
1226069.000000
1226827.000000
1227578.000000
1228316.000000
1229062.000000
1229820.000000
1230573.000000
1231321.000000
1232078.000000
1232849.000000
1233617.000000
1234368.000000
1235124.000000
1235875.000000
1236613.000000
1237345.000000
1238083.000000
1238817.000000
1239547.000000
1240274.000000
1241006.000000
1241743.000000
1242480.000000
1243216.000000
1243957.000000
1244704.000000
1245439.000000
1246173.000000
1246915.000000
1247671.000000
1248429.000000
1249178.000000
1249927.000000
1250680.000000
1251443.000000
1252194.000000
1252942.000000
1253697.000000
1254449.000000
1255196.000000
1255937.000000
1256691.000000
1257452.000000
1258216.000000
1258969.000000
1259723.000000
1260478.000000
1261224.000000
1261960.000000
1262702.000000
1263451.000000
1264209.000000
1264958.000000
1265714.000000
1266463.000000
1267191.000000
1267908.000000
1268628.000000
1269344.000000
1270053.000000
1270757.000000
1271468.000000
1272179.000000
