ECG (ms)
627.000000
1377.000000
2113.000000
2809.000000
3482.000000
4142.000000
4792.000000
5491.000000
6188.000000
6890.000000
7664.000000
8462.000000
9247.000000
10029.000000
10823.000000
11629.000000
12398.000000
13184.000000
13959.000000
14702.000000
15459.000000
16230.000000
17010.000000
17756.000000
18534.000000
19302.000000
20090.000000
20857.000000
21647.000000
22439.000000
23224.000000
23970.000000
24747.000000
25538.000000
26284.000000
27018.000000
27783.000000
28561.000000
29303.000000
30079.000000
30853.000000
31638.000000
32401.000000
33180.000000
33970.000000
34736.000000
35515.000000
36289.000000
37031.000000
37783.000000
38543.000000
39296.000000
40029.000000
40802.000000
41574.000000
42331.000000
43073.000000
43838.000000
44611.000000
45376.000000
46165.000000
46949.000000
47711.000000
48449.000000
49175.000000
49873.000000
50546.000000
51249.000000
51996.000000
52780.000000
53584.000000
54361.000000
55144.000000
55938.000000
56726.000000
57491.000000
58280.000000
59077.000000
59844.000000
60637.000000
61423.000000
62204.000000
62961.000000
63745.000000
64535.000000
65282.000000
66065.000000
66851.000000
67648.000000
68434.000000
69239.000000
70056.000000
70861.000000
71673.000000
72477.000000
73267.000000
74054.000000
74833.000000
75599.000000
76391.000000
77176.000000
77926.000000
78709.000000
79505.000000
80290.000000
81083.000000
81883.000000
82684.000000
83463.000000
84261.000000
85050.000000
85808.000000
86577.000000
87366.000000
88117.000000
88907.000000
89710.000000
90480.000000
91267.000000
92076.000000
92890.000000
93671.000000
94457.000000
95247.000000
96008.000000
96793.000000
97580.000000
98357.000000
99110.000000
99897.000000
100670.000000
101444.000000
102183.000000
102965.000000
103748.000000
104508.000000
105271.000000
106021.000000
106750.000000
107524.000000
108294.000000
109024.000000
109791.000000
110560.000000
111333.000000
112077.000000
112866.000000
113661.000000
114425.000000
115223.000000
116007.000000
116751.000000
117476.000000
118197.000000
118886.000000
119554.000000
120254.000000
120962.000000
121720.000000
122503.000000
123303.000000
124057.000000
124841.000000
125631.000000
126382.000000
127148.000000
127920.000000
128697.000000
129463.000000
130268.000000
131087.000000
131878.000000
132679.000000
133474.000000
134230.000000
135004.000000
135794.000000
136536.000000
137296.000000
138022.000000
138756.000000
139505.000000
140269.000000
141023.000000
141757.000000
142484.000000
143171.000000
143834.000000
144477.000000
145123.000000
145941.000000
146857.000000
147732.000000
148587.000000
149437.000000
150263.000000
151025.000000
151756.000000
152476.000000
153207.000000
153959.000000
154693.000000
155445.000000
156207.000000
156978.000000
157758.000000
158504.000000
159270.000000
159984.000000
160685.000000
161347.000000
162013.000000
162709.000000
163444.000000
164149.000000
164897.000000
165644.000000
166396.000000
167157.000000
167899.000000
168664.000000
169441.000000
170226.000000
170988.000000
171758.000000
172536.000000
173293.000000
174060.000000
174818.000000
175564.000000
176328.000000
177100.000000
177859.000000
178603.000000
179367.000000
180153.000000
180919.000000
181681.000000
182449.000000
183221.000000
183948.000000
184695.000000
185449.000000
186210.000000
186949.000000
187714.000000
188490.000000
189227.000000
189992.000000
190759.000000
191521.000000
192272.000000
193033.000000
193802.000000
194543.000000
195296.000000
196039.000000
196760.000000
197452.000000
198114.000000
198787.000000
199477.000000
200180.000000
200928.000000
201694.000000
202444.000000
203207.000000
203972.000000
204732.000000
205466.000000
206222.000000
206986.000000
207721.000000
208436.000000
209186.000000
209932.000000
210653.000000
211396.000000
212164.000000
212936.000000
213657.000000
214338.000000
215000.000000
215689.000000
216439.000000
217238.000000
217993.000000
218755.000000
219544.000000
220354.000000
221147.000000
221927.000000
222726.000000
223557.000000
224377.000000
225159.000000
225946.000000
226736.000000
227514.000000
228264.000000
229042.000000
229826.000000
230599.000000
231396.000000
232194.000000
232969.000000
233750.000000
234537.000000
235295.000000
236072.000000
236858.000000
237619.000000
238407.000000
239196.000000
239958.000000
240745.000000
241537.000000
242298.000000
243089.000000
243874.000000
244659.000000
245425.000000
246199.000000
246971.000000
247725.000000
248502.000000
249280.000000
250030.000000
250803.000000
251580.000000
252347.000000
253122.000000
253898.000000
254682.000000
255448.000000
256231.000000
257013.000000
257765.000000
258552.000000
259345.000000
260135.000000
260890.000000
261682.000000
262475.000000
263244.000000
264014.000000
264793.000000
265573.000000
266329.000000
267106.000000
267896.000000
268675.000000
269470.000000
270273.000000
271063.000000
271845.000000
272591.000000
273309.000000
273989.000000
274664.000000
275344.000000
276048.000000
276794.000000
277579.000000
278322.000000
279098.000000
279881.000000
280660.000000
281420.000000
282206.000000
283002.000000
283762.000000
284491.000000
285243.000000
286013.000000
286764.000000
287551.000000
288361.000000
289180.000000
289981.000000
290811.000000
291641.000000
292433.000000
293241.000000
294046.000000
294822.000000
295615.000000
296411.000000
297184.000000
297969.000000
298762.000000
299549.000000
300299.000000
301085.000000
301881.000000
302634.000000
303399.000000
304163.000000
304918.000000
305679.000000
306457.000000
307246.000000
308013.000000
308805.000000
309594.000000
310353.000000
311147.000000
311943.000000
312715.000000
313491.000000
314260.000000
315022.000000
315762.000000
316530.000000
317312.000000
318080.000000
318828.000000
319596.000000
320367.000000
321118.000000
321904.000000
322690.000000
323458.000000
324214.000000
324995.000000
325781.000000
326531.000000
327311.000000
328096.000000
328870.000000
329600.000000
330312.000000
331023.000000
331736.000000
332502.000000
333272.000000
334001.000000
334723.000000
335492.000000
336247.000000
336962.000000
337650.000000
338386.000000
339119.000000
339889.000000
340681.000000
341497.000000
342289.000000
343068.000000
343860.000000
344656.000000
345432.000000
346216.000000
347017.000000
347832.000000
348611.000000
349378.000000
350162.000000
350950.000000
351755.000000
352540.000000
353358.000000
354192.000000
355023.000000
355822.000000
356635.000000
357445.000000
358206.000000
358996.000000
359792.000000
360596.000000
361353.000000
362153.000000
362929.000000
363664.000000
364363.000000
365050.000000
365751.000000
366476.000000
367271.000000
368106.000000
368912.000000
369728.000000
370552.000000
371372.000000
372159.000000
372972.000000
373799.000000
374614.000000
375428.000000
376251.000000
377052.000000
377825.000000
378621.000000
379438.000000
380244.000000
381035.000000
381841.000000
382659.000000
383460.000000
384276.000000
385083.000000
385871.000000
386643.000000
387425.000000
388212.000000
388972.000000
389763.000000
390553.000000
391319.000000
392085.000000
392884.000000
393701.000000
394488.000000
395290.000000
396110.000000
396894.000000
397680.000000
398476.000000
399283.000000
400063.000000
400866.000000
401677.000000
402454.000000
403251.000000
404046.000000
404822.000000
405599.000000
406411.000000
407221.000000
408000.000000
408801.000000
409604.000000
410370.000000
411152.000000
411935.000000
412698.000000
413457.000000
414241.000000
415057.000000
415833.000000
416630.000000
417437.000000
418236.000000
418992.000000
419793.000000
420602.000000
421379.000000
422185.000000
422985.000000
423748.000000
424530.000000
425320.000000
426113.000000
426866.000000
427654.000000
428418.000000
429157.000000
429938.000000
430726.000000
431491.000000
432267.000000
433057.000000
433831.000000
434585.000000
435363.000000
436140.000000
436891.000000
437684.000000
438472.000000
439232.000000
440023.000000
440810.000000
441553.000000
442327.000000
443101.000000
443853.000000
444614.000000
445373.000000
446085.000000
446768.000000
447443.000000
448140.000000
448887.000000
449643.000000
450411.000000
451173.000000
451956.000000
452747.000000
453475.000000
454219.000000
454982.000000
455762.000000
456518.000000
457308.000000
458108.000000
458897.000000
459636.000000
460413.000000
461201.000000
461978.000000
462775.000000
463590.000000
464401.000000
465191.000000
465991.000000
466822.000000
467664.000000
468486.000000
469256.000000
470051.000000
470857.000000
471671.000000
472443.000000
473222.000000
474041.000000
474876.000000
475700.000000
476483.000000
477284.000000
478092.000000
478900.000000
479670.000000
480491.000000
481319.000000
482133.000000
482939.000000
483764.000000
484594.000000
485385.000000
486198.000000
487017.000000
487810.000000
488618.000000
489423.000000
490217.000000
490973.000000
491781.000000
492589.000000
493385.000000
494172.000000
494977.000000
495793.000000
496574.000000
497386.000000
498189.000000
498956.000000
499770.000000
500587.000000
501362.000000
502157.000000
502947.000000
503697.000000
504471.000000
505261.000000
506034.000000
506828.000000
507630.000000
508428.000000
509210.000000
510022.000000
510837.000000
511619.000000
512423.000000
513235.000000
514012.000000
514803.000000
515601.000000
516392.000000
517170.000000
517949.000000
518735.000000
519516.000000
520321.000000
521128.000000
521915.000000
522726.000000
523548.000000
524359.000000
525163.000000
525951.000000
526679.000000
527404.000000
528156.000000
528933.000000
529696.000000
530485.000000
531295.000000
532125.000000
532904.000000
533706.000000
534514.000000
535336.000000
536097.000000
536881.000000
537661.000000
538434.000000
539213.000000
540027.000000
540853.000000
541645.000000
542462.000000
543278.000000
544099.000000
544895.000000
545709.000000
546527.000000
547316.000000
548111.000000
548916.000000
549736.000000
550514.000000
551311.000000
552121.000000
552932.000000
553716.000000
554504.000000
555301.000000
556066.000000
556819.000000
557599.000000
558378.000000
559129.000000
559908.000000
560702.000000
561498.000000
562261.000000
563056.000000
563872.000000
564643.000000
565436.000000
566241.000000
567015.000000
567811.000000
568603.000000
569360.000000
570087.000000
570797.000000
571485.000000
572152.000000
572851.000000
573566.000000
574322.000000
575111.000000
575928.000000
576705.000000
577507.000000
578316.000000
579095.000000
579875.000000
580658.000000
581443.000000
582208.000000
582995.000000
583801.000000
584578.000000
585381.000000
586196.000000
586976.000000
587780.000000
588592.000000
589381.000000
590193.000000
591009.000000
591808.000000
592611.000000
593415.000000
594209.000000
594988.000000
595786.000000
596592.000000
597364.000000
598156.000000
598957.000000
599736.000000
600538.000000
601343.000000
602136.000000
602933.000000
603740.000000
604540.000000
605318.000000
606120.000000
606920.000000
607690.000000
608467.000000
609257.000000
610069.000000
610848.000000
611645.000000
612454.000000
613243.000000
614027.000000
614826.000000
615638.000000
616416.000000
617214.000000
618019.000000
618795.000000
619581.000000
620369.000000
621177.000000
621944.000000
622742.000000
623559.000000
624358.000000
625163.000000
625975.000000
626752.000000
627540.000000
628336.000000
629128.000000
629907.000000
630711.000000
631514.000000
632274.000000
633067.000000
633867.000000
634652.000000
635450.000000
636249.000000
637063.000000
637854.000000
638665.000000
639477.000000
640262.000000
641076.000000
641899.000000
642694.000000
643500.000000
644309.000000
645137.000000
645917.000000
646719.000000
647508.000000
648272.000000
649010.000000
649751.000000
650489.000000
651178.000000
651847.000000
652544.000000
653238.000000
653931.000000
654638.000000
655314.000000
656004.000000
656771.000000
657541.000000
658273.000000
659056.000000
659864.000000
660704.000000
661511.000000
662285.000000
663090.000000
663889.000000
664689.000000
665447.000000
666227.000000
667006.000000
667788.000000
668527.000000
669298.000000
670079.000000
670867.000000
671613.000000
672376.000000
673145.000000
673946.000000
674729.000000
675531.000000
676330.000000
677123.000000
677873.000000
678651.000000
679426.000000
680185.000000
680919.000000
681686.000000
682446.000000
683171.000000
683892.000000
684599.000000
685270.000000
685937.000000
686640.000000
687355.000000
688141.000000
688947.000000
689748.000000
690507.000000
691306.000000
692115.000000
692883.000000
693630.000000
694407.000000
695189.000000
695949.000000
696725.000000
697515.000000
698334.000000
699115.000000
699912.000000
700732.000000
701559.000000
702354.000000
703166.000000
703987.000000
704793.000000
705542.000000
706313.000000
707086.000000
707869.000000
708645.000000
709467.000000
710321.000000
711135.000000
711970.000000
712818.000000
713644.000000
714457.000000
715278.000000
716100.000000
716890.000000
717701.000000
718538.000000
719347.000000
720170.000000
721005.000000
721803.000000
722627.000000
723448.000000
724259.000000
725061.000000
725875.000000
726702.000000
727486.000000
728288.000000
729110.000000
729951.000000
730752.000000
731571.000000
732402.000000
733217.000000
734014.000000
734827.000000
735657.000000
736462.000000
737282.000000
738112.000000
738897.000000
739695.000000
740497.000000
741294.000000
742067.000000
742862.000000
743670.000000
744443.000000
745233.000000
746023.000000
746795.000000
747551.000000
748334.000000
749141.000000
749915.000000
750703.000000
751492.000000
752268.000000
753047.000000
753835.000000
754622.000000
755378.000000
756150.000000
756922.000000
757668.000000
758445.000000
759227.000000
760009.000000
760786.000000
761578.000000
762384.000000
763160.000000
763944.000000
764728.000000
765514.000000
766272.000000
767063.000000
767866.000000
768639.000000
769417.000000
770215.000000
771036.000000
771826.000000
772637.000000
773452.000000
774240.000000
775032.000000
775838.000000
776622.000000
777377.000000
778164.000000
778934.000000
779659.000000
780377.000000
781063.000000
781735.000000
782448.000000
783160.000000
783941.000000
784748.000000
785547.000000
786338.000000
787150.000000
787962.000000
788750.000000
789543.000000
790345.000000
791152.000000
791918.000000
792703.000000
793489.000000
794251.000000
795040.000000
795839.000000
796641.000000
797400.000000
798186.000000
798974.000000
799762.000000
800532.000000
801333.000000
802168.000000
803006.000000
803821.000000
804663.000000
805520.000000
806342.000000
807159.000000
807973.000000
808778.000000
809568.000000
810397.000000
811256.000000
812102.000000
812935.000000
813776.000000
814614.000000
815394.000000
816188.000000
816990.000000
817780.000000
818494.000000
819175.000000
819848.000000
820686.000000
821586.000000
822427.000000
823233.000000
823936.000000
824628.000000
825334.000000
826114.000000
826943.000000
827710.000000
828407.000000
829101.000000
829776.000000
830432.000000
831103.000000
831877.000000
832707.000000
833551.000000
834402.000000
835240.000000
836059.000000
836831.000000
837586.000000
838332.000000
839061.000000
839753.000000
840499.000000
841282.000000
842031.000000
842774.000000
843532.000000
844299.000000
845031.000000
845721.000000
846417.000000
847160.000000
847912.000000
848649.000000
849428.000000
850212.000000
851014.000000
851836.000000
852635.000000
853427.000000
854232.000000
855035.000000
855829.000000
856599.000000
857382.000000
858167.000000
858963.000000
859744.000000
860520.000000
861297.000000
862092.000000
862869.000000
863646.000000
864438.000000
865246.000000
866044.000000
866838.000000
867581.000000
868305.000000
869037.000000
869805.000000
870591.000000
871354.000000
872113.000000
872866.000000
873654.000000
874412.000000
875209.000000
876012.000000
876786.000000
877573.000000
878354.000000
879152.000000
879919.000000
880717.000000
881512.000000
882263.000000
883058.000000
883841.000000
884635.000000
885400.000000
886195.000000
886988.000000
887761.000000
888565.000000
889374.000000
890160.000000
890950.000000
891739.000000
892544.000000
893298.000000
894086.000000
894871.000000
895661.000000
896433.000000
897240.000000
898051.000000
898808.000000
899545.000000
900265.000000
900945.000000
901608.000000
