ECG (ms)
480.000000
1543.000000
2574.000000
3577.000000
4689.000000
5843.000000
6931.000000
7957.000000
8994.000000
10190.000000
11361.000000
12475.000000
13556.000000
14695.000000
15815.000000
16911.000000
17979.000000
19069.000000
20198.000000
21304.000000
22376.000000
23493.000000
24650.000000
25792.000000
26889.000000
28058.000000
29212.000000
30312.000000
31404.000000
32542.000000
33640.000000
34726.000000
35862.000000
37005.000000
38096.000000
39174.000000
40313.000000
41457.000000
42613.000000
43756.000000
44878.000000
45948.000000
47015.000000
48130.000000
49311.000000
50463.000000
51586.000000
52728.000000
53837.000000
54932.000000
56065.000000
57182.000000
58236.000000
59273.000000
60307.000000
61335.000000
62343.000000
63384.000000
64393.000000
65380.000000
66382.000000
67492.000000
68634.000000
69700.000000
70759.000000
71808.000000
72815.000000
73826.000000
74859.000000
75912.000000
77014.000000
78185.000000
79397.000000
80560.000000
81670.000000
82787.000000
83884.000000
84930.000000
85992.000000
87158.000000
88327.000000
89453.000000
90589.000000
91700.000000
92765.000000
93829.000000
94944.000000
96068.000000
97150.000000
98243.000000
99348.000000
100407.000000
101444.000000
102541.000000
103600.000000
104612.000000
105605.000000
106635.000000
107748.000000
108837.000000
109932.000000
110991.000000
112053.000000
113105.000000
114144.000000
115215.000000
116329.000000
117424.000000
118478.000000
119499.000000
120548.000000
121630.000000
122675.000000
123755.000000
124813.000000
125844.000000
126857.000000
127879.000000
128958.000000
130036.000000
131068.000000
132117.000000
133198.000000
134375.000000
135466.000000
136571.000000
137694.000000
138746.000000
139820.000000
140974.000000
142074.000000
143181.000000
144276.000000
145393.000000
146555.000000
147687.000000
148766.000000
149801.000000
150951.000000
152148.000000
153323.000000
154458.000000
155563.000000
156641.000000
157700.000000
158728.000000
159795.000000
160849.000000
161887.000000
162905.000000
163885.000000
164846.000000
165884.000000
166923.000000
167937.000000
168993.000000
170081.000000
171174.000000
172251.000000
173301.000000
174423.000000
175574.000000
176699.000000
177830.000000
178966.000000
180127.000000
181280.000000
182461.000000
183606.000000
184687.000000
185773.000000
186859.000000
187993.000000
189228.000000
190349.000000
191469.000000
192598.000000
193671.000000
194695.000000
195704.000000
196715.000000
197718.000000
198695.000000
199679.000000
200706.000000
201723.000000
202736.000000
203779.000000
204872.000000
205941.000000
206989.000000
208080.000000
209216.000000
210303.000000
211330.000000
212357.000000
213445.000000
214585.000000
215658.000000
216716.000000
217838.000000
218954.000000
220042.000000
221135.000000
222229.000000
223279.000000
224360.000000
225494.000000
226598.000000
227664.000000
228766.000000
229824.000000
230842.000000
231804.000000
232665.000000
233502.000000
234458.000000
235580.000000
236690.000000
237732.000000
238797.000000
239829.000000
240854.000000
241882.000000
242908.000000
243901.000000
244926.000000
245953.000000
246969.000000
247999.000000
249123.000000
250256.000000
251356.000000
252438.000000
253530.000000
254613.000000
255675.000000
256795.000000
257870.000000
258937.000000
260004.000000
261069.000000
262204.000000
263370.000000
264494.000000
265591.000000
266679.000000
267737.000000
268768.000000
269783.000000
270742.000000
271718.000000
272737.000000
273753.000000
274737.000000
275738.000000
276776.000000
277730.000000
278618.000000
279473.000000
280313.000000
281142.000000
281916.000000
282749.000000
283692.000000
284664.000000
285635.000000
286686.000000
287705.000000
288673.000000
289595.000000
290522.000000
291472.000000
292424.000000
293360.000000
294294.000000
295259.000000
296257.000000
297276.000000
298270.000000
299230.000000
300204.000000
301191.000000
302168.000000
303131.000000
304148.000000
305186.000000
306262.000000
307288.000000
308298.000000
309294.000000
310358.000000
311445.000000
312520.000000
313650.000000
314799.000000
315916.000000
317003.000000
318125.000000
319244.000000
320333.000000
321433.000000
322510.000000
323588.000000
324704.000000
325760.000000
326816.000000
328102.000000
329305.000000
330417.000000
331495.000000
332612.000000
333740.000000
334801.000000
335813.000000
336862.000000
337948.000000
339026.000000
340042.000000
341091.000000
342157.000000
343197.000000
344199.000000
345234.000000
346284.000000
347309.000000
348300.000000
349319.000000
350352.000000
351341.000000
352343.000000
353337.000000
354315.000000
355267.000000
356247.000000
357378.000000
358488.000000
359586.000000
360630.000000
361643.000000
362683.000000
363730.000000
364810.000000
365950.000000
367029.000000
368090.000000
369182.000000
370274.000000
371350.000000
372452.000000
373545.000000
374597.000000
375611.000000
376658.000000
377761.000000
378843.000000
379891.000000
380897.000000
381925.000000
383005.000000
384116.000000
385217.000000
386263.000000
387313.000000
388329.000000
389306.000000
390220.000000
391133.000000
392095.000000
393082.000000
394072.000000
395120.000000
396204.000000
397268.000000
398301.000000
399336.000000
400344.000000
401364.000000
402396.000000
403422.000000
404472.000000
405561.000000
406647.000000
407715.000000
408755.000000
409774.000000
410799.000000
411880.000000
413040.000000
414198.000000
415326.000000
416497.000000
417602.000000
418702.000000
419818.000000
420953.000000
422114.000000
423299.000000
424462.000000
425579.000000
426664.000000
427738.000000
428871.000000
429987.000000
431050.000000
432146.000000
433212.000000
434225.000000
435295.000000
436350.000000
437371.000000
438433.000000
439501.000000
440521.000000
441522.000000
442541.000000
443569.000000
444606.000000
445690.000000
446773.000000
447796.000000
448801.000000
449786.000000
450747.000000
451721.000000
452798.000000
453941.000000
455043.000000
456121.000000
457200.000000
458300.000000
459365.000000
460423.000000
461470.000000
462504.000000
463514.000000
464512.000000
465478.000000
466479.000000
467492.000000
468483.000000
469479.000000
470514.000000
471470.000000
472390.000000
473293.000000
474229.000000
475107.000000
475939.000000
476860.000000
477830.000000
478778.000000
479803.000000
480833.000000
481834.000000
482765.000000
483681.000000
484658.000000
485674.000000
486713.000000
487742.000000
488789.000000
489801.000000
490810.000000
491866.000000
492954.000000
494021.000000
495149.000000
496285.000000
497430.000000
498581.000000
499714.000000
500820.000000
501918.000000
503010.000000
504080.000000
505147.000000
506231.000000
507351.000000
508458.000000
509551.000000
510670.000000
511748.000000
512844.000000
513892.000000
514912.000000
516046.000000
517239.000000
518384.000000
519454.000000
520546.000000
521640.000000
522671.000000
523635.000000
524591.000000
525572.000000
526568.000000
527573.000000
528644.000000
529766.000000
530854.000000
531914.000000
532987.000000
534041.000000
535056.000000
536102.000000
537190.000000
538290.000000
539383.000000
540433.000000
541456.000000
542553.000000
543653.000000
544739.000000
545843.000000
546966.000000
548084.000000
549208.000000
550331.000000
551421.000000
552486.000000
553587.000000
554709.000000
555772.000000
556830.000000
557850.000000
558853.000000
559932.000000
561064.000000
562206.000000
563372.000000
564513.000000
565568.000000
566622.000000
567629.000000
568675.000000
569774.000000
570947.000000
572088.000000
573248.000000
574396.000000
575474.000000
576527.000000
577547.000000
578570.000000
579610.000000
580640.000000
581697.000000
582755.000000
583807.000000
584835.000000
585908.000000
586988.000000
588091.000000
589281.000000
590392.000000
591471.000000
592540.000000
593609.000000
594599.000000
595576.000000
596536.000000
597514.000000
598513.000000
599532.000000
600535.000000
601492.000000
602361.000000
603203.000000
604065.000000
605033.000000
605984.000000
606950.000000
607991.000000
609062.000000
610107.000000
611092.000000
612115.000000
613150.000000
614181.000000
615170.000000
616173.000000
617273.000000
618356.000000
619416.000000
620491.000000
621565.000000
622695.000000
623909.000000
625116.000000
626277.000000
627415.000000
628547.000000
629660.000000
630738.000000
631792.000000
632963.000000
634122.000000
635206.000000
636326.000000
637448.000000
638522.000000
639556.000000
640601.000000
641660.000000
642693.000000
643728.000000
644821.000000
645890.000000
646914.000000
647929.000000
648949.000000
649973.000000
651025.000000
652116.000000
653252.000000
654346.000000
655397.000000
656453.000000
657508.000000
658565.000000
659567.000000
660519.000000
661515.000000
662528.000000
663537.000000
664570.000000
665703.000000
666908.000000
668085.000000
669171.000000
670235.000000
671271.000000
672249.000000
673225.000000
674213.000000
675350.000000
676451.000000
677603.000000
678709.000000
679785.000000
680848.000000
681883.000000
682890.000000
683926.000000
684982.000000
686021.000000
687041.000000
688002.000000
688949.000000
689926.000000
690967.000000
692091.000000
693170.000000
694235.000000
695320.000000
696393.000000
697473.000000
698553.000000
699623.000000
700683.000000
701735.000000
702784.000000
703860.000000
704924.000000
705998.000000
707052.000000
708105.000000
709149.000000
710198.000000
711256.000000
712332.000000
713409.000000
714391.000000
715334.000000
716284.000000
717201.000000
718128.000000
719129.000000
720184.000000
721076.000000
721933.000000
722805.000000
723641.000000
724424.000000
725216.000000
726048.000000
726883.000000
727726.000000
728643.000000
729635.000000
730645.000000
731579.000000
732452.000000
733321.000000
734213.000000
735123.000000
735993.000000
736877.000000
737808.000000
738833.000000
739844.000000
740813.000000
741800.000000
742872.000000
743884.000000
744857.000000
745881.000000
746915.000000
747962.000000
748969.000000
749982.000000
751019.000000
752094.000000
753163.000000
754190.000000
755219.000000
756283.000000
757404.000000
758574.000000
759747.000000
760892.000000
761955.000000
763024.000000
764097.000000
765125.000000
766171.000000
767284.000000
768386.000000
769505.000000
770661.000000
771813.000000
772952.000000
774092.000000
775163.000000
776162.000000
777192.000000
778252.000000
779282.000000
780301.000000
781348.000000
782441.000000
783495.000000
784525.000000
785629.000000
786727.000000
787790.000000
788905.000000
790021.000000
791138.000000
792266.000000
793372.000000
794480.000000
795584.000000
796687.000000
797792.000000
798925.000000
800054.000000
801183.000000
802280.000000
803355.000000
804468.000000
805522.000000
806521.000000
807473.000000
808417.000000
809505.000000
810636.000000
811669.000000
812652.000000
813671.000000
814745.000000
815745.000000
816712.000000
817663.000000
818713.000000
819694.000000
820622.000000
821575.000000
822659.000000
823718.000000
824739.000000
825749.000000
826795.000000
827818.000000
828793.000000
829788.000000
830850.000000
831897.000000
832910.000000
833968.000000
835014.000000
836040.000000
837087.000000
838168.000000
839214.000000
840287.000000
841355.000000
842439.000000
843553.000000
844689.000000
845817.000000
846960.000000
848072.000000
849212.000000
850355.000000
851428.000000
852470.000000
853557.000000
854699.000000
855802.000000
856896.000000
857993.000000
859091.000000
860143.000000
861243.000000
862382.000000
863491.000000
864655.000000
865817.000000
866962.000000
868117.000000
869276.000000
870373.000000
871476.000000
872562.000000
873602.000000
874675.000000
875746.000000
876806.000000
877924.000000
879054.000000
880120.000000
881173.000000
882218.000000
883253.000000
884302.000000
885397.000000
886482.000000
887530.000000
888594.000000
889638.000000
890659.000000
891647.000000
892628.000000
893668.000000
894745.000000
895744.000000
896764.000000
897846.000000
