ECG (ms)
580.000000
1424.000000
2266.000000
3078.000000
3909.000000
4757.000000
5611.000000
6469.000000
7316.000000
8131.000000
8924.000000
9743.000000
10585.000000
11446.000000
12318.000000
13199.000000
14080.000000
14931.000000
15739.000000
16562.000000
17388.000000
18225.000000
19077.000000
19940.000000
20800.000000
21638.000000
22430.000000
23207.000000
24019.000000
24864.000000
25735.000000
26624.000000
27536.000000
28454.000000
29367.000000
30262.000000
31131.000000
31994.000000
32858.000000
33714.000000
34548.000000
35376.000000
36229.000000
37103.000000
37976.000000
38857.000000
39744.000000
40601.000000
41441.000000
42286.000000
43133.000000
43981.000000
44825.000000
45650.000000
46462.000000
47262.000000
48085.000000
48946.000000
49816.000000
50692.000000
51574.000000
52438.000000
53261.000000
54071.000000
54903.000000
55753.000000
56611.000000
57457.000000
58271.000000
59061.000000
59880.000000
60714.000000
61563.000000
62413.000000
63230.000000
64001.000000
64794.000000
65596.000000
66373.000000
67144.000000
67946.000000
68764.000000
69570.000000
70353.000000
71108.000000
71846.000000
72612.000000
73376.000000
74122.000000
74882.000000
75666.000000
76447.000000
77212.000000
77997.000000
78801.000000
79607.000000
80392.000000
81195.000000
82000.000000
82796.000000
83590.000000
84410.000000
85240.000000
86067.000000
86881.000000
87726.000000
88580.000000
89409.000000
90219.000000
91047.000000
91869.000000
92667.000000
93477.000000
94315.000000
95157.000000
95977.000000
96811.000000
97665.000000
98524.000000
99373.000000
100201.000000
101035.000000
101879.000000
102721.000000
103539.000000
104371.000000
105224.000000
106085.000000
106935.000000
107773.000000
108623.000000
109482.000000
110322.000000
111144.000000
111963.000000
112804.000000
113645.000000
114474.000000
115289.000000
116104.000000
116926.000000
117750.000000
118568.000000
119378.000000
120171.000000
120977.000000
121813.000000
122644.000000
123470.000000
124295.000000
125120.000000
125941.000000
126756.000000
127566.000000
128367.000000
129163.000000
129966.000000
130781.000000
131596.000000
132424.000000
133259.000000
134098.000000
134925.000000
135764.000000
136592.000000
137400.000000
138196.000000
138994.000000
139808.000000
140626.000000
141453.000000
142284.000000
143121.000000
143961.000000
144795.000000
145627.000000
146447.000000
147253.000000
148063.000000
148893.000000
149745.000000
150600.000000
151462.000000
152311.000000
153125.000000
153930.000000
154755.000000
155601.000000
156450.000000
157289.000000
158107.000000
158954.000000
159811.000000
160666.000000
161498.000000
162323.000000
163165.000000
164019.000000
164882.000000
165717.000000
166534.000000
167364.000000
168210.000000
169037.000000
169844.000000
170659.000000
171490.000000
172330.000000
173154.000000
173968.000000
174799.000000
175647.000000
176496.000000
177333.000000
178150.000000
178948.000000
179763.000000
180587.000000
181413.000000
182227.000000
183063.000000
183916.000000
184770.000000
185611.000000
186463.000000
187324.000000
188177.000000
189018.000000
189847.000000
190648.000000
191438.000000
192197.000000
192972.000000
193765.000000
194559.000000
195356.000000
196177.000000
196997.000000
197810.000000
198619.000000
199433.000000
200210.000000
200969.000000
201741.000000
202519.000000
203283.000000
204058.000000
204865.000000
205700.000000
206535.000000
207348.000000
208171.000000
208991.000000
209805.000000
210617.000000
211423.000000
212220.000000
212993.000000
213781.000000
214597.000000
215425.000000
216267.000000
217106.000000
217939.000000
218762.000000
219572.000000
220418.000000
221290.000000
222171.000000
223067.000000
223953.000000
224813.000000
225632.000000
226428.000000
227244.000000
228071.000000
228908.000000
229729.000000
230546.000000
231380.000000
232222.000000
233051.000000
233886.000000
234703.000000
235495.000000
236260.000000
237023.000000
237805.000000
238586.000000
239360.000000
240149.000000
240957.000000
241767.000000
242569.000000
243376.000000
244197.000000
245028.000000
245847.000000
246667.000000
247510.000000
248362.000000
249228.000000
250107.000000
250985.000000
251843.000000
252674.000000
253495.000000
254337.000000
255200.000000
256071.000000
256950.000000
257814.000000
258651.000000
259475.000000
260324.000000
261195.000000
262088.000000
262990.000000
263887.000000
264753.000000
265595.000000
266433.000000
267283.000000
268152.000000
269038.000000
269920.000000
270778.000000
271641.000000
272517.000000
273391.000000
274256.000000
275096.000000
275934.000000
276788.000000
277652.000000
278502.000000
279340.000000
280197.000000
281066.000000
281923.000000
282758.000000
283589.000000
284439.000000
285301.000000
286146.000000
286972.000000
287807.000000
288654.000000
289503.000000
290332.000000
291144.000000
291969.000000
292813.000000
293677.000000
294532.000000
295369.000000
296204.000000
297050.000000
297907.000000
298757.000000
299588.000000
300401.000000
301223.000000
302054.000000
302876.000000
303671.000000
304461.000000
305212.000000
305977.000000
306752.000000
307524.000000
308289.000000
309070.000000
309892.000000
310716.000000
311547.000000
312368.000000
313167.000000
313955.000000
314764.000000
315585.000000
316416.000000
317231.000000
318028.000000
318836.000000
319656.000000
320485.000000
321303.000000
322117.000000
322954.000000
323779.000000
324586.000000
325382.000000
326188.000000
327001.000000
327816.000000
328628.000000
329423.000000
330228.000000
331048.000000
331872.000000
332680.000000
333489.000000
334312.000000
335149.000000
335987.000000
336825.000000
337639.000000
338445.000000
339268.000000
340105.000000
340943.000000
341766.000000
342577.000000
343397.000000
344228.000000
345057.000000
345877.000000
346686.000000
347509.000000
348345.000000
349195.000000
350046.000000
350890.000000
351718.000000
352527.000000
353322.000000
354134.000000
354958.000000
355797.000000
356639.000000
357482.000000
358306.000000
359113.000000
359921.000000
360737.000000
361549.000000
362347.000000
363117.000000
363879.000000
364659.000000
365436.000000
366199.000000
366984.000000
367785.000000
368597.000000
369417.000000
370244.000000
371078.000000
371897.000000
372683.000000
373471.000000
374269.000000
375076.000000
375886.000000
376705.000000
377518.000000
378306.000000
379094.000000
379901.000000
380719.000000
381549.000000
382388.000000
383225.000000
384066.000000
384898.000000
385725.000000
386532.000000
387322.000000
388136.000000
388951.000000
389772.000000
390596.000000
391408.000000
392225.000000
393048.000000
393876.000000
394696.000000
395509.000000
396279.000000
397060.000000
397853.000000
398638.000000
399409.000000
400211.000000
401024.000000
401830.000000
402609.000000
403396.000000
404201.000000
405021.000000
405842.000000
406654.000000
407442.000000
408218.000000
409020.000000
409827.000000
410638.000000
411453.000000
412262.000000
413049.000000
413832.000000
414626.000000
415436.000000
416249.000000
417052.000000
417854.000000
418672.000000
419489.000000
420304.000000
421121.000000
421943.000000
422755.000000
423545.000000
424325.000000
425132.000000
425957.000000
426786.000000
427605.000000
428414.000000
429241.000000
430082.000000
430915.000000
431726.000000
432533.000000
433359.000000
434191.000000
435031.000000
435857.000000
436666.000000
437482.000000
438311.000000
439126.000000
439928.000000
440718.000000
441522.000000
442339.000000
443167.000000
443967.000000
444779.000000
445590.000000
446390.000000
447203.000000
448017.000000
448815.000000
449626.000000
450436.000000
451248.000000
452055.000000
452864.000000
453660.000000
454447.000000
455219.000000
455997.000000
456778.000000
457552.000000
458300.000000
459077.000000
459872.000000
460683.000000
461517.000000
462366.000000
463216.000000
464053.000000
464867.000000
465684.000000
466511.000000
467345.000000
468182.000000
469017.000000
469830.000000
470660.000000
471509.000000
472363.000000
473219.000000
474048.000000
474880.000000
475727.000000
476571.000000
477376.000000
478185.000000
479003.000000
479816.000000
480608.000000
481425.000000
482267.000000
483115.000000
483941.000000
484784.000000
485648.000000
486504.000000
487339.000000
488162.000000
488994.000000
489838.000000
490677.000000
491482.000000
492293.000000
493118.000000
493938.000000
494736.000000
495530.000000
496343.000000
497153.000000
497955.000000
498748.000000
499544.000000
500328.000000
501102.000000
501847.000000
502601.000000
503366.000000
504139.000000
504906.000000
505698.000000
506500.000000
507289.000000
508066.000000
508859.000000
509639.000000
510402.000000
511175.000000
511963.000000
512744.000000
513516.000000
514298.000000
515099.000000
515909.000000
516732.000000
517553.000000
518354.000000
519134.000000
519920.000000
520713.000000
521506.000000
522305.000000
523107.000000
523897.000000
524661.000000
525430.000000
526219.000000
527027.000000
527854.000000
528701.000000
529562.000000
530405.000000
531218.000000
532033.000000
532846.000000
533664.000000
534485.000000
535296.000000
536082.000000
536866.000000
537667.000000
538482.000000
539312.000000
540134.000000
540949.000000
541783.000000
542626.000000
543472.000000
544299.000000
545107.000000
545907.000000
546723.000000
547547.000000
548374.000000
549179.000000
549967.000000
550773.000000
551598.000000
552425.000000
553248.000000
554046.000000
554826.000000
555598.000000
556392.000000
557200.000000
558006.000000
558798.000000
559602.000000
560415.000000
561226.000000
562019.000000
562801.000000
563597.000000
564398.000000
565187.000000
565964.000000
566750.000000
567549.000000
568359.000000
569172.000000
569978.000000
570764.000000
571542.000000
572336.000000
573142.000000
573946.000000
574751.000000
575542.000000
576334.000000
577140.000000
577947.000000
578761.000000
579566.000000
580353.000000
581135.000000
581930.000000
582725.000000
583516.000000
584288.000000
585051.000000
585781.000000
586522.000000
587266.000000
588017.000000
588761.000000
589491.000000
590229.000000
590987.000000
591766.000000
592555.000000
593351.000000
594158.000000
594963.000000
595754.000000
596522.000000
597292.000000
598078.000000
598872.000000
599667.000000
600468.000000
601257.000000
602040.000000
602850.000000
603666.000000
604489.000000
605320.000000
606123.000000
606920.000000
607734.000000
608555.000000
609368.000000
610158.000000
610939.000000
611703.000000
612457.000000
613201.000000
613962.000000
614744.000000
615533.000000
616308.000000
617063.000000
617825.000000
618610.000000
619409.000000
620212.000000
621012.000000
621831.000000
622640.000000
623426.000000
624219.000000
625011.000000
625801.000000
626592.000000
627371.000000
628140.000000
628897.000000
629677.000000
630467.000000
631262.000000
632041.000000
632818.000000
633609.000000
634405.000000
635195.000000
635990.000000
636781.000000
637562.000000
638332.000000
639122.000000
639918.000000
640718.000000
641519.000000
642316.000000
643089.000000
643851.000000
644634.000000
645416.000000
646204.000000
646987.000000
647751.000000
648510.000000
649278.000000
650062.000000
650848.000000
651637.000000
652418.000000
653187.000000
653942.000000
654692.000000
655445.000000
656191.000000
656934.000000
657656.000000
658396.000000
659146.000000
659894.000000
660628.000000
661373.000000
662145.000000
662922.000000
663707.000000
664495.000000
665287.000000
666071.000000
666831.000000
667589.000000
668366.000000
669145.000000
669931.000000
670719.000000
671507.000000
672281.000000
673047.000000
673832.000000
674632.000000
675438.000000
676244.000000
677038.000000
677811.000000
678586.000000
679371.000000
680169.000000
680969.000000
681773.000000
682572.000000
683372.000000
684152.000000
684921.000000
685683.000000
686438.000000
687177.000000
687907.000000
688656.000000
689418.000000
690195.000000
690982.000000
691781.000000
692554.000000
693323.000000
694110.000000
694914.000000
695736.000000
696546.000000
697335.000000
698135.000000
698945.000000
699771.000000
700590.000000
701391.000000
702181.000000
702983.000000
703806.000000
704641.000000
705480.000000
706307.000000
707124.000000
707959.000000
708784.000000
709602.000000
710396.000000
711180.000000
711988.000000
712808.000000
713640.000000
714479.000000
715316.000000
716131.000000
716959.000000
717797.000000
718640.000000
719477.000000
720290.000000
721097.000000
721914.000000
722747.000000
723583.000000
724404.000000
725237.000000
726084.000000
726935.000000
727775.000000
728596.000000
729432.000000
730268.000000
731102.000000
731937.000000
732766.000000
733577.000000
734359.000000
735147.000000
735966.000000
736801.000000
737618.000000
738427.000000
739264.000000
740104.000000
740917.000000
741726.000000
742549.000000
743372.000000
744192.000000
745023.000000
745844.000000
746655.000000
747459.000000
748278.000000
749113.000000
749949.000000
750785.000000
751620.000000
752461.000000
753286.000000
754093.000000
754891.000000
755677.000000
756430.000000
757203.000000
757993.000000
758794.000000
759604.000000
760406.000000
761225.000000
762050.000000
762865.000000
763685.000000
764485.000000
765283.000000
766060.000000
766846.000000
767651.000000
768473.000000
769299.000000
770127.000000
770951.000000
771748.000000
772543.000000
773340.000000
774144.000000
774961.000000
775756.000000
776544.000000
777352.000000
778175.000000
779001.000000
779802.000000
780622.000000
781452.000000
782270.000000
783073.000000
783896.000000
784721.000000
785553.000000
786382.000000
787202.000000
787996.000000
788788.000000
789602.000000
790431.000000
791279.000000
792145.000000
792998.000000
793845.000000
794696.000000
795546.000000
796391.000000
797212.000000
798005.000000
798799.000000
799605.000000
800427.000000
801246.000000
802052.000000
802859.000000
803673.000000
804493.000000
805307.000000
806109.000000
806880.000000
807670.000000
808467.000000
809257.000000
810026.000000
810820.000000
811629.000000
812449.000000
813278.000000
814097.000000
814876.000000
815641.000000
816422.000000
817226.000000
818045.000000
818865.000000
819674.000000
820504.000000
821354.000000
822208.000000
823051.000000
823870.000000
824687.000000
825517.000000
826332.000000
827132.000000
827931.000000
828755.000000
829588.000000
830416.000000
831215.000000
832000.000000
832797.000000
833615.000000
834442.000000
835271.000000
836107.000000
836920.000000
837706.000000
838493.000000
839292.000000
840089.000000
840888.000000
841691.000000
842488.000000
843268.000000
844035.000000
844822.000000
845620.000000
846418.000000
847207.000000
847994.000000
848797.000000
849609.000000
850422.000000
851226.000000
852008.000000
852799.000000
853590.000000
854375.000000
855164.000000
855942.000000
856707.000000
857475.000000
858265.000000
859059.000000
859869.000000
860685.000000
861492.000000
862273.000000
863053.000000
863830.000000
864599.000000
865359.000000
866103.000000
866857.000000
867628.000000
868405.000000
869168.000000
869944.000000
870737.000000
871527.000000
872310.000000
873070.000000
873842.000000
874633.000000
875427.000000
876208.000000
876984.000000
877777.000000
878577.000000
879372.000000
880150.000000
880938.000000
881740.000000
882551.000000
883349.000000
884119.000000
884898.000000
885692.000000
886489.000000
887277.000000
888058.000000
888863.000000
889668.000000
890465.000000
891262.000000
892080.000000
892890.000000
893681.000000
894469.000000
895264.000000
896059.000000
896846.000000
897616.000000
898387.000000
899175.000000
899950.000000
900724.000000
901462.000000
902205.000000
902962.000000
903712.000000
904455.000000
905213.000000
905997.000000
906792.000000
907584.000000
908360.000000
909146.000000
909949.000000
910755.000000
911569.000000
912375.000000
913158.000000
913930.000000
914711.000000
915500.000000
916292.000000
917067.000000
917813.000000
918570.000000
919345.000000
920121.000000
920885.000000
921657.000000
922457.000000
923272.000000
924080.000000
924896.000000
925725.000000
926544.000000
927349.000000
928157.000000
928967.000000
929775.000000
930583.000000
931381.000000
932162.000000
932944.000000
933745.000000
934567.000000
935402.000000
936239.000000
937064.000000
937871.000000
938682.000000
939506.000000
940336.000000
941157.000000
941961.000000
942752.000000
943527.000000
944291.000000
945041.000000
945816.000000
946603.000000
947392.000000
948171.000000
948946.000000
949747.000000
950569.000000
951387.000000
952189.000000
953000.000000
953822.000000
954645.000000
955456.000000
956253.000000
957057.000000
957871.000000
958686.000000
959480.000000
960273.000000
961084.000000
961911.000000
962742.000000
963578.000000
964407.000000
965205.000000
966002.000000
966799.000000
967598.000000
968398.000000
969204.000000
970019.000000
970794.000000
971575.000000
972366.000000
973153.000000
973922.000000
974690.000000
975484.000000
976284.000000
977082.000000
977858.000000
978637.000000
979435.000000
980234.000000
981040.000000
981836.000000
982615.000000
983396.000000
984206.000000
985033.000000
985870.000000
986716.000000
987548.000000
988350.000000
989139.000000
989943.000000
990755.000000
991568.000000
992398.000000
993234.000000
994060.000000
994862.000000
995656.000000
996456.000000
997270.000000
998098.000000
998945.000000
999785.000000
1000596.000000
1001410.000000
1002241.000000
1003070.000000
1003899.000000
1004710.000000
1005533.000000
1006386.000000
1007244.000000
1008085.000000
1008913.000000
1009754.000000
1010607.000000
1011463.000000
1012296.000000
1013129.000000
1013977.000000
1014823.000000
1015658.000000
1016495.000000
1017349.000000
1018211.000000
1019062.000000
1019895.000000
1020732.000000
1021583.000000
1022428.000000
1023249.000000
1024057.000000
1024868.000000
1025684.000000
1026504.000000
1027305.000000
1028106.000000
1028904.000000
1029660.000000
1030426.000000
1031203.000000
1031962.000000
1032702.000000
1033460.000000
1034252.000000
1035063.000000
1035875.000000
1036672.000000
1037477.000000
1038301.000000
1039118.000000
1039920.000000
1040716.000000
1041523.000000
1042332.000000
1043134.000000
1043925.000000
1044733.000000
1045559.000000
1046398.000000
1047220.000000
1048027.000000
1048839.000000
1049654.000000
1050485.000000
1051311.000000
1052116.000000
1052934.000000
1053778.000000
1054623.000000
1055471.000000
1056315.000000
1057145.000000
1057955.000000
1058748.000000
1059536.000000
1060323.000000
1061112.000000
1061905.000000
1062688.000000
1063462.000000
1064215.000000
1064995.000000
1065791.000000
1066595.000000
1067405.000000
1068188.000000
1068978.000000
1069786.000000
1070599.000000
1071417.000000
1072225.000000
1073005.000000
1073759.000000
1074536.000000
1075336.000000
1076145.000000
1076967.000000
1077805.000000
1078640.000000
1079446.000000
1080250.000000
1081073.000000
1081901.000000
1082731.000000
1083549.000000
1084338.000000
1085116.000000
1085915.000000
1086729.000000
1087550.000000
1088351.000000
1089156.000000
1089971.000000
1090814.000000
1091656.000000
1092498.000000
1093331.000000
1094138.000000
1094937.000000
1095739.000000
1096559.000000
1097389.000000
1098208.000000
1099011.000000
1099829.000000
1100642.000000
1101458.000000
1102269.000000
1103059.000000
1103843.000000
1104631.000000
1105417.000000
1106213.000000
1106996.000000
1107765.000000
1108521.000000
1109301.000000
1110087.000000
1110887.000000
1111690.000000
1112485.000000
1113266.000000
1114054.000000
1114858.000000
1115665.000000
1116473.000000
1117257.000000
1118043.000000
1118857.000000
1119696.000000
1120556.000000
1121421.000000
1122255.000000
1123082.000000
1123920.000000
1124771.000000
1125613.000000
1126424.000000
1127210.000000
1128014.000000
1128841.000000
1129679.000000
1130529.000000
1131357.000000
1132169.000000
1132995.000000
1133838.000000
1134682.000000
1135514.000000
1136323.000000
1137143.000000
1137988.000000
1138834.000000
1139665.000000
1140480.000000
1141301.000000
1142147.000000
1142992.000000
1143822.000000
1144656.000000
1145520.000000
1146379.000000
1147227.000000
1148079.000000
1148952.000000
1149822.000000
1150673.000000
1151514.000000
1152370.000000
1153243.000000
1154114.000000
1154957.000000
1155771.000000
1156601.000000
1157447.000000
1158286.000000
1159135.000000
1159994.000000
1160855.000000
1161719.000000
1162567.000000
1163379.000000
1164190.000000
1165014.000000
1165840.000000
1166648.000000
1167441.000000
1168233.000000
1169029.000000
1169825.000000
1170619.000000
1171399.000000
1172160.000000
1172946.000000
1173740.000000
1174527.000000
1175332.000000
1176148.000000
1176958.000000
1177745.000000
1178538.000000
1179343.000000
1180154.000000
1180975.000000
1181807.000000
1182636.000000
1183460.000000
1184250.000000
1185022.000000
1185823.000000
1186627.000000
1187441.000000
1188261.000000
1189072.000000
1189857.000000
1190642.000000
1191452.000000
1192272.000000
1193095.000000
1193913.000000
1194710.000000
1195491.000000
1196287.000000
1197103.000000
1197924.000000
1198755.000000
1199576.000000
1200367.000000
1201139.000000
1201926.000000
1202720.000000
1203522.000000
1204315.000000
1205089.000000
1205868.000000
1206661.000000
1207458.000000
1208245.000000
1209027.000000
1209827.000000
1210634.000000
1211440.000000
1212242.000000
1213026.000000
1213785.000000
1214542.000000
1215308.000000
1216087.000000
1216870.000000
1217656.000000
1218424.000000
1219204.000000
1219992.000000
1220786.000000
1221569.000000
1222332.000000
1223100.000000
1223886.000000
1224674.000000
1225467.000000
1226252.000000
1227032.000000
1227809.000000
1228567.000000
1229317.000000
1230043.000000
1230784.000000
1231539.000000
1232294.000000
1233040.000000
1233795.000000
1234567.000000
1235362.000000
1236163.000000
1236946.000000
1237731.000000
1238524.000000
1239319.000000
1240110.000000
1240884.000000
1241659.000000
1242456.000000
1243256.000000
1244040.000000
1244826.000000
1245637.000000
1246450.000000
1247254.000000
1248037.000000
1248820.000000
1249619.000000
1250426.000000
1251234.000000
1252035.000000
1252814.000000
1253599.000000
1254397.000000
1255203.000000
1256025.000000
1256834.000000
1257618.000000
1258401.000000
1259204.000000
1260022.000000
1260841.000000
1261646.000000
1262431.000000
1263224.000000
1264040.000000
1264866.000000
1265690.000000
1266491.000000
1267292.000000
1268108.000000
1268931.000000
1269753.000000
1270570.000000
1271385.000000
1272209.000000
1273050.000000
1273897.000000
1274746.000000
1275577.000000
1276387.000000
1277189.000000
1278003.000000
1278841.000000
1279697.000000
1280540.000000
1281363.000000
1282187.000000
1283028.000000
1283873.000000
1284721.000000
1285552.000000
1286379.000000
1287215.000000
1288075.000000
1288951.000000
1289818.000000
1290664.000000
1291495.000000
1292331.000000
1293180.000000
1294016.000000
1294834.000000
1295649.000000
1296482.000000
1297332.000000
1298179.000000
1299008.000000
1299814.000000
1300625.000000
1301450.000000
1302288.000000
1303131.000000
1303963.000000
1304779.000000
1305618.000000
1306459.000000
1307294.000000
1308113.000000
1308935.000000
1309777.000000
1310631.000000
1311486.000000
1312315.000000
1313131.000000
1313950.000000
1314780.000000
1315612.000000
1316430.000000
1317231.000000
1318028.000000
1318843.000000
1319673.000000
1320502.000000
1321325.000000
1322128.000000
1322912.000000
1323678.000000
1324420.000000
1325176.000000
1325946.000000
1326721.000000
1327491.000000
1328250.000000
1329023.000000
1329817.000000
1330617.000000
1331411.000000
1332185.000000
1332955.000000
1333748.000000
1334550.000000
1335351.000000
1336130.000000
1336906.000000
1337667.000000
1338409.000000
1339146.000000
1339910.000000
1340694.000000
1341476.000000
1342250.000000
1343026.000000
1343832.000000
1344658.000000
1345489.000000
1346321.000000
1347143.000000
1347942.000000
1348728.000000
1349528.000000
1350342.000000
1351170.000000
1352004.000000
1352844.000000
1353660.000000
1354457.000000
1355269.000000
1356105.000000
1356955.000000
1357822.000000
1358680.000000
1359514.000000
1360326.000000
1361142.000000
1361975.000000
1362818.000000
1363650.000000
1364459.000000
1365264.000000
1366083.000000
1366902.000000
1367709.000000
1368506.000000
1369290.000000
1370077.000000
1370866.000000
1371642.000000
1372392.000000
1373144.000000
1373921.000000
1374710.000000
1375485.000000
1376252.000000
1377038.000000
1377844.000000
1378656.000000
1379454.000000
1380259.000000
1381072.000000
1381883.000000
1382687.000000
1383460.000000
1384220.000000
1385000.000000
1385801.000000
1386612.000000
1387439.000000
1388268.000000
1389090.000000
1389883.000000
1390665.000000
1391451.000000
1392262.000000
1393078.000000
1393899.000000
1394722.000000
1395541.000000
1396344.000000
1397119.000000
1397885.000000
1398667.000000
1399464.000000
1400265.000000
1401081.000000
1401901.000000
1402713.000000
1403502.000000
1404290.000000
1405097.000000
1405912.000000
1406722.000000
1407517.000000
1408303.000000
1409103.000000
1409919.000000
1410725.000000
1411519.000000
1412324.000000
1413133.000000
1413945.000000
1414756.000000
1415557.000000
1416333.000000
1417111.000000
1417908.000000
1418711.000000
1419518.000000
1420323.000000
1421105.000000
1421892.000000
1422698.000000
1423510.000000
1424321.000000
1425112.000000
1425893.000000
1426692.000000
1427494.000000
1428293.000000
1429070.000000
1429852.000000
1430652.000000
1431456.000000
1432264.000000
1433068.000000
1433861.000000
1434649.000000
1435450.000000
1436258.000000
1437074.000000
1437910.000000
1438750.000000
1439575.000000
1440388.000000
1441209.000000
1442038.000000
1442867.000000
1443678.000000
1444475.000000
1445291.000000
1446113.000000
1446936.000000
1447747.000000
1448547.000000
1449336.000000
1450106.000000
1450855.000000
1451609.000000
1452383.000000
1453158.000000
1453924.000000
1454700.000000
1455508.000000
1456331.000000
1457150.000000
1457947.000000
1458748.000000
1459558.000000
1460367.000000
1461178.000000
1461978.000000
1462758.000000
1463536.000000
1464329.000000
1465137.000000
1465952.000000
1466775.000000
1467602.000000
1468421.000000
1469209.000000
1469987.000000
1470776.000000
1471574.000000
1472380.000000
1473190.000000
1473997.000000
1474778.000000
1475557.000000
1476356.000000
1477156.000000
1477964.000000
1478771.000000
1479570.000000
1480345.000000
1481132.000000
1481939.000000
1482751.000000
1483566.000000
1484380.000000
1485180.000000
1485953.000000
1486721.000000
1487506.000000
1488298.000000
1489100.000000
1489908.000000
1490715.000000
1491504.000000
1492293.000000
1493119.000000
1493959.000000
1494797.000000
1495624.000000
1496427.000000
1497231.000000
1498040.000000
1498849.000000
1499654.000000
1500450.000000
1501231.000000
1502017.000000
1502805.000000
1503588.000000
1504364.000000
1505114.000000
1505878.000000
1506657.000000
1507450.000000
1508252.000000
1509048.000000
1509821.000000
1510592.000000
1511392.000000
1512197.000000
1513010.000000
1513827.000000
1514631.000000
1515412.000000
1516188.000000
1516997.000000
1517824.000000
1518665.000000
1519508.000000
1520337.000000
1521172.000000
1521982.000000
1522796.000000
1523614.000000
1524416.000000
1525199.000000
1525959.000000
1526703.000000
1527461.000000
1528234.000000
1528998.000000
1529759.000000
1530549.000000
1531357.000000
1532176.000000
1532977.000000
1533764.000000
1534557.000000
1535369.000000
1536202.000000
1537040.000000
1537864.000000
1538693.000000
1539542.000000
1540410.000000
1541278.000000
1542122.000000
1542951.000000
1543797.000000
1544665.000000
1545535.000000
1546374.000000
1547204.000000
1548061.000000
1548927.000000
1549794.000000
1550633.000000
1551446.000000
1552266.000000
1553103.000000
1553935.000000
1554751.000000
1555552.000000
1556349.000000
1557167.000000
1557989.000000
1558804.000000
1559596.000000
1560398.000000
1561221.000000
1562060.000000
1562895.000000
1563710.000000
1564502.000000
1565301.000000
1566114.000000
1566921.000000
1567713.000000
1568501.000000
1569309.000000
1570120.000000
1570919.000000
1571715.000000
1572529.000000
1573354.000000
1574183.000000
1575006.000000
1575829.000000
1576629.000000
1577400.000000
1578170.000000
1578958.000000
1579763.000000
1580582.000000
1581403.000000
1582213.000000
1583017.000000
1583824.000000
1584645.000000
1585468.000000
1586283.000000
1587072.000000
1587862.000000
1588668.000000
1589485.000000
1590310.000000
1591136.000000
1591955.000000
1592742.000000
1593528.000000
1594323.000000
1595130.000000
1595934.000000
1596726.000000
1597520.000000
1598330.000000
1599151.000000
1599966.000000
1600784.000000
1601586.000000
1602360.000000
1603129.000000
1603901.000000
1604675.000000
1605440.000000
1606201.000000
1606935.000000
1607685.000000
1608447.000000
1609202.000000
1609950.000000
1610726.000000
1611509.000000
1612291.000000
1613057.000000
1613824.000000
1614606.000000
1615392.000000
1616188.000000
1616981.000000
1617753.000000
1618507.000000
1619279.000000
1620072.000000
1620878.000000
1621699.000000
1622525.000000
1623341.000000
1624132.000000
1624907.000000
1625701.000000
1626505.000000
1627314.000000
1628118.000000
1628900.000000
1629684.000000
1630481.000000
1631290.000000
1632097.000000
1632898.000000
1633680.000000
1634461.000000
1635256.000000
1636064.000000
1636872.000000
1637676.000000
1638459.000000
1639234.000000
1640022.000000
1640822.000000
1641631.000000
1642440.000000
1643234.000000
1644026.000000
1644836.000000
1645653.000000
1646462.000000
1647255.000000
1648041.000000
1648833.000000
1649639.000000
1650461.000000
1651293.000000
1652138.000000
1652967.000000
1653774.000000
1654574.000000
1655386.000000
1656220.000000
1657059.000000
1657901.000000
1658723.000000
1659519.000000
1660310.000000
1661117.000000
1661942.000000
1662784.000000
1663636.000000
1664490.000000
1665324.000000
1666156.000000
1667001.000000
1667857.000000
1668700.000000
1669519.000000
1670324.000000
1671146.000000
1671986.000000
1672830.000000
1673651.000000
1674474.000000
1675323.000000
1676189.000000
1677054.000000
1677901.000000
1678714.000000
1679528.000000
1680356.000000
1681190.000000
1682022.000000
1682836.000000
1683642.000000
1684468.000000
1685316.000000
1686171.000000
1687026.000000
1687855.000000
1688661.000000
1689481.000000
1690301.000000
1691107.000000
1691896.000000
1692683.000000
1693480.000000
1694272.000000
1695059.000000
1695817.000000
1696605.000000
1697411.000000
1698228.000000
1699061.000000
1699898.000000
1700724.000000
1701526.000000
1702352.000000
1703177.000000
1704016.000000
1704862.000000
1705709.000000
1706546.000000
1707353.000000
1708148.000000
1708981.000000
1709842.000000
1710718.000000
1711609.000000
1712501.000000
1713376.000000
1714210.000000
1715040.000000
1715892.000000
1716748.000000
1717614.000000
1718469.000000
1719295.000000
1720117.000000
1720957.000000
1721799.000000
1722652.000000
1723492.000000
1724303.000000
1725129.000000
1725978.000000
1726852.000000
1727732.000000
1728592.000000
1729410.000000
1730218.000000
1731039.000000
1731862.000000
1732670.000000
1733449.000000
1734226.000000
1735028.000000
1735839.000000
1736631.000000
1737427.000000
1738253.000000
1739085.000000
1739891.000000
1740696.000000
1741523.000000
1742352.000000
1743182.000000
1743997.000000
1744790.000000
1745597.000000
1746419.000000
1747256.000000
1748082.000000
1748882.000000
1749667.000000
1750483.000000
1751321.000000
1752164.000000
1753010.000000
1753845.000000
1754652.000000
1755464.000000
1756290.000000
1757125.000000
1757974.000000
1758829.000000
1759685.000000
1760509.000000
1761294.000000
1762084.000000
1762892.000000
1763711.000000
1764523.000000
1765330.000000
1766169.000000
