ECG (ms)
1037.000000
1418.000000
2433.000000
2820.000000
3812.000000
4183.000000
5126.000000
5512.000000
6614.000000
7080.000000
7329.000000
8114.000000
8498.000000
9588.000000
9968.000000
10849.000000
11266.000000
11516.000000
12078.000000
12633.000000
12975.000000
14185.000000
14604.000000
15552.000000
15925.000000
16952.000000
17458.000000
18096.000000
18384.000000
18853.000000
20026.000000
20414.000000
21498.000000
21923.000000
22334.000000
22848.000000
23314.000000
24146.000000
24472.000000
24948.000000
26104.000000
26150.000000
26407.000000
27403.000000
27796.000000
28884.000000
29274.000000
29655.000000
29906.000000
30248.000000
30646.000000
31060.000000
31532.000000
32006.000000
32667.000000
33052.000000
34137.000000
34477.000000
35499.000000
35889.000000
36602.000000
36950.000000
37334.000000
38188.000000
38592.000000
38930.000000
39604.000000
39990.000000
41061.000000
41436.000000
42348.000000
42726.000000
43525.000000
43724.000000
44196.000000
44945.000000
45201.000000
45609.000000
46645.000000
47038.000000
47755.000000
48109.000000
48664.000000
49614.000000
49992.000000
50990.000000
51463.000000
52500.000000
53043.000000
53988.000000
55527.000000
55920.000000
56397.000000
56992.000000
57365.000000
58459.000000
58855.000000
59931.000000
60427.000000
61505.000000
61874.000000
63027.000000
63318.000000
64318.000000
64821.000000
65966.000000
66236.000000
67346.000000
67736.000000
68762.000000
69109.000000
70101.000000
70580.000000
71669.000000
72059.000000
72935.000000
73400.000000
74433.000000
74903.000000
75857.000000
76235.000000
77061.000000
77533.000000
78555.000000
78979.000000
79996.000000
80403.000000
81381.000000
81855.000000
82862.000000
83331.000000
84336.000000
84806.000000
85984.000000
86369.000000
87393.000000
87851.000000
88975.000000
89369.000000
90523.000000
90908.000000
92062.000000
93450.000000
93841.000000
94905.000000
95292.000000
96360.000000
96833.000000
97931.000000
98316.000000
99326.000000
99769.000000
100707.000000
101109.000000
102244.000000
102634.000000
103491.000000
105013.000000
105407.000000
106434.000000
106988.000000
107823.000000
108297.000000
109336.000000
109725.000000
110698.000000
111068.000000
111701.000000
112128.000000
112521.000000
113505.000000
113880.000000
114466.000000
114801.000000
115182.000000
116186.000000
116531.000000
117648.000000
118029.000000
118500.000000
119117.000000
119451.000000
120499.000000
120882.000000
121901.000000
122358.000000
123137.000000
123605.000000
124702.000000
125695.000000
126058.000000
126517.000000
127206.000000
127364.000000
128143.000000
128837.000000
129300.000000
129614.000000
130052.000000
130256.000000
130597.000000
131559.000000
131707.000000
132603.000000
132855.000000
133447.000000
133819.000000
134225.000000
135103.000000
135346.000000
136291.000000
137750.000000
138019.000000
139026.000000
140321.000000
140579.000000
141465.000000
141893.000000
142044.000000
143148.000000
143387.000000
144092.000000
144555.000000
145676.000000
146064.000000
146728.000000
147054.000000
147512.000000
148397.000000
148978.000000
149425.000000
150192.000000
150579.000000
151564.000000
152180.000000
152832.000000
153304.000000
154235.000000
154612.000000
155400.000000
155782.000000
156771.000000
158291.000000
158659.000000
159548.000000
159898.000000
160870.000000
161988.000000
162390.000000
162991.000000
163374.000000
163660.000000
163967.000000
164307.000000
164861.000000
165232.000000
166247.000000
167405.000000
168630.000000
169535.000000
170003.000000
170397.000000
171109.000000
172326.000000
173465.000000
173856.000000
174597.000000
174846.000000
175568.000000
176808.000000
177898.000000
179073.000000
180348.000000
181514.000000
181877.000000
182718.000000
183938.000000
185010.000000
186214.000000
187424.000000
188591.000000
189826.000000
191148.000000
192375.000000
193686.000000
194988.000000
195381.000000
196114.000000
197392.000000
198652.000000
199888.000000
201208.000000
203874.000000
205147.000000
207688.000000
209034.000000
211498.000000
212855.000000
215309.000000
216624.000000
219070.000000
220351.000000
222804.000000
224088.000000
226341.000000
227453.000000
228598.000000
229641.000000
230993.000000
232282.000000
233363.000000
234653.000000
235827.000000
236928.000000
238126.000000
238505.000000
239351.000000
240400.000000
240791.000000
241460.000000
242659.000000
243674.000000
244636.000000
245087.000000
245567.000000
246467.000000
247708.000000
248705.000000
249841.000000
251091.000000
252570.000000
253338.000000
254676.000000
256853.000000
258089.000000
260375.000000
261675.000000
262915.000000
263305.000000
264041.000000
265388.000000
266631.000000
267685.000000
268090.000000
269060.000000
269436.000000
270332.000000
270725.000000
271588.000000
271967.000000
272948.000000
273324.000000
274243.000000
274633.000000
275564.000000
275942.000000
276923.000000
277296.000000
278279.000000
278670.000000
279509.000000
279888.000000
280911.000000
281287.000000
282323.000000
282720.000000
283847.000000
284190.000000
285269.000000
286364.000000
286784.000000
287162.000000
288258.000000
289552.000000
290005.000000
291069.000000
291454.000000
292567.000000
293936.000000
294344.000000
295480.000000
296906.000000
298416.000000
299859.000000
302435.000000
303887.000000
305308.000000
306564.000000
306950.000000
307959.000000
309287.000000
310561.000000
311745.000000
312128.000000
312731.000000
313110.000000
314057.000000
315307.000000
316661.000000
318009.000000
319214.000000
320509.000000
321900.000000
323107.000000
324351.000000
325751.000000
326988.000000
327346.000000
328246.000000
329648.000000
330938.000000
332213.000000
333602.000000
334767.000000
336076.000000
337465.000000
338317.000000
338841.000000
340006.000000
341332.000000
343958.000000
345353.000000
347780.000000
349191.000000
351346.000000
352221.000000
353645.000000
355015.000000
355445.000000
356080.000000
357072.000000
357977.000000
359298.000000
360665.000000
361994.000000
363312.000000
363700.000000
364575.000000
364980.000000
365924.000000
366299.000000
367280.000000
368502.000000
368904.000000
369901.000000
371265.000000
372567.000000
372951.000000
373988.000000
375149.000000
375995.000000
376636.000000
378057.000000
379542.000000
380903.000000
382351.000000
384173.000000
385177.000000
386641.000000
388361.000000
389354.000000
390866.000000
392186.000000
392555.000000
393484.000000
394918.000000
396086.000000
396472.000000
398518.000000
398855.000000
399434.000000
400231.000000
401758.000000
403152.000000
404545.000000
405939.000000
406344.000000
407327.000000
408540.000000
408911.000000
409878.000000
410259.000000
411314.000000
412649.000000
413042.000000
414003.000000
415465.000000
416675.000000
417047.000000
418052.000000
419479.000000
419893.000000
420711.000000
421086.000000
422080.000000
423531.000000
424476.000000
424934.000000
425336.000000
426250.000000
427685.000000
429006.000000
430264.000000
431694.000000
433404.000000
434342.000000
435823.000000
436212.000000
437292.000000
437883.000000
438528.000000
440007.000000
441163.000000
442280.000000
442515.000000
443912.000000
445372.000000
445633.000000
446157.000000
446501.000000
447902.000000
449359.000000
449900.000000
450479.000000
451916.000000
452820.000000
453207.000000
453574.000000
454422.000000
455899.000000
457265.000000
458557.000000
460034.000000
461412.000000
462773.000000
464210.000000
465986.000000
466937.000000
468412.000000
469976.000000
470586.000000
471131.000000
471524.000000
472586.000000
474025.000000
474629.000000
475266.000000
476660.000000
478021.000000
479240.000000
480577.000000
481977.000000
484112.000000
484527.000000
485958.000000
486827.000000
488166.000000
488780.000000
488908.000000
490457.000000
491875.000000
493184.000000
494546.000000
495876.000000
498445.000000
499780.000000
500644.000000
500994.000000
502189.000000
503656.000000
504928.000000
506156.000000
506576.000000
507521.000000
508732.000000
509694.000000
510582.000000
513448.000000
514371.000000
516063.000000
517471.000000
518324.000000
520025.000000
521492.000000
523974.000000
525402.000000
526482.000000
526854.000000
527253.000000
528274.000000
529777.000000
531221.000000
531617.000000
532115.000000
532625.000000
534132.000000
534540.000000
535466.000000
535871.000000
536571.000000
537196.000000
537575.000000
537784.000000
538084.000000
538800.000000
539211.000000
539794.000000
540675.000000
541314.000000
542789.000000
543185.000000
544133.000000
545513.000000
546038.000000
547238.000000
548858.000000
548962.000000
549552.000000
550014.000000
551517.000000
551911.000000
552527.000000
552802.000000
553093.000000
553287.000000
553593.000000
554146.000000
555019.000000
557312.000000
557887.000000
558197.000000
558639.000000
559257.000000
559828.000000
560324.000000
560946.000000
561714.000000
562728.000000
563001.000000
564048.000000
564667.000000
565866.000000
567182.000000
567930.000000
569192.000000
570288.000000
570892.000000
571932.000000
572749.000000
573071.000000
573299.000000
574484.000000
575396.000000
576092.000000
576456.000000
576905.000000
577081.000000
577742.000000
578819.000000
580063.000000
581400.000000
582699.000000
583117.000000
584015.000000
584444.000000
585358.000000
585787.000000
586713.000000
587146.000000
587806.000000
588286.000000
588928.000000
590064.000000
591080.000000
591443.000000
592398.000000
592788.000000
593272.000000
593900.000000
594346.000000
595012.000000
595468.000000
596524.000000
597068.000000
597946.000000
598389.000000
599045.000000
599436.000000
600525.000000
600885.000000
601869.000000
602311.000000
603166.000000
603946.000000
604684.000000
606015.000000
606459.000000
607403.000000
607788.000000
608874.000000
609330.000000
610268.000000
610713.000000
611608.000000
613035.000000
614202.000000
614680.000000
615092.000000
616008.000000
616982.000000
618246.000000
619719.000000
621396.000000
621857.000000
623373.000000
624302.000000
624716.000000
625097.000000
625550.000000
626338.000000
626771.000000
627642.000000
627939.000000
629526.000000
629854.000000
630848.000000
631279.000000
632675.000000
633605.000000
633981.000000
634339.000000
634891.000000
635330.000000
636129.000000
636651.000000
637605.000000
637974.000000
639081.000000
639414.000000
640407.000000
640802.000000
641875.000000
642401.000000
643228.000000
643761.000000
644658.000000
645127.000000
646292.000000
646750.000000
647602.000000
648013.000000
648294.000000
649001.000000
649473.000000
650417.000000
650885.000000
651906.000000
652460.000000
653432.000000
653879.000000
654812.000000
655949.000000
656422.000000
656776.000000
657697.000000
657772.000000
658166.000000
659328.000000
659678.000000
660771.000000
661245.000000
662160.000000
662627.000000
663649.000000
664059.000000
665127.000000
665591.000000
666576.000000
666932.000000
668100.000000
668499.000000
669284.000000
669935.000000
670801.000000
671297.000000
672587.000000
672806.000000
673513.000000
674109.000000
675107.000000
676158.000000
676521.000000
677784.000000
678321.000000
679228.000000
680678.000000
681093.000000
681915.000000
682394.000000
683362.000000
683714.000000
684660.000000
685027.000000
685883.000000
686353.000000
687193.000000
688700.000000
689092.000000
690089.000000
690353.000000
690571.000000
691231.000000
691696.000000
692702.000000
693240.000000
694093.000000
694623.000000
695395.000000
695863.000000
696949.000000
697253.000000
698040.000000
698374.000000
699067.000000
699485.000000
700016.000000
700264.000000
701122.000000
701612.000000
702011.000000
702469.000000
702997.000000
703457.000000
704540.000000
705882.000000
706397.000000
707310.000000
707832.000000
708729.000000
709178.000000
710006.000000
710456.000000
711642.000000
711893.000000
712845.000000
713183.000000
714002.000000
714473.000000
715433.000000
715607.000000
716838.000000
717297.000000
718104.000000
718631.000000
719533.000000
720006.000000
721016.000000
721432.000000
722124.000000
722651.000000
723433.000000
723904.000000
724901.000000
726214.000000
726747.000000
727743.000000
728906.000000
729372.000000
730228.000000
730763.000000
731563.000000
733006.000000
733433.000000
734553.000000
734802.000000
735892.000000
736417.000000
737552.000000
737971.000000
738989.000000
739331.000000
740563.000000
740822.000000
741913.000000
742383.000000
743272.000000
743764.000000
744733.000000
745155.000000
746141.000000
746608.000000
747552.000000
748027.000000
749127.000000
749607.000000
750531.000000
750887.000000
751983.000000
752385.000000
753386.000000
753797.000000
754618.000000
756199.000000
756617.000000
757472.000000
757957.000000
758927.000000
760290.000000
761606.000000
762068.000000
762962.000000
763488.000000
764466.000000
765789.000000
766251.000000
767281.000000
767751.000000
768686.000000
769045.000000
770027.000000
770434.000000
771492.000000
771886.000000
772806.000000
773284.000000
774391.000000
774796.000000
775787.000000
776249.000000
777117.000000
777575.000000
778448.000000
778867.000000
780126.000000
780394.000000
780587.000000
781095.000000
781576.000000
782492.000000
782761.000000
783670.000000
784364.000000
785162.000000
785698.000000
786506.000000
787781.000000
789192.000000
789724.000000
790558.000000
791922.000000
792453.000000
792884.000000
793628.000000
794524.000000
794993.000000
796167.000000
796441.000000
797291.000000
797754.000000
798780.000000
799826.000000
800131.000000
800849.000000
801107.000000
801491.000000
802537.000000
803044.000000
803951.000000
804397.000000
805257.000000
805640.000000
806925.000000
807099.000000
807979.000000
808372.000000
808554.000000
809325.000000
809848.000000
810876.000000
811286.000000
812214.000000
812742.000000
813463.000000
813758.000000
813939.000000
814845.000000
815260.000000
815902.000000
816185.000000
816649.000000
816941.000000
817293.000000
817828.000000
818286.000000
819412.000000
819648.000000
820063.000000
820992.000000
821519.000000
822067.000000
822370.000000
823390.000000
823668.000000
824463.000000
824800.000000
825435.000000
825602.000000
825940.000000
826132.000000
826573.000000
827594.000000
828049.000000
828970.000000
829413.000000
830512.000000
830736.000000
831388.000000
831654.000000
832139.000000
832784.000000
833779.000000
834163.000000
835449.000000
836077.000000
837691.000000
838114.000000
839921.000000
841383.000000
841879.000000
842862.000000
843370.000000
844270.000000
844701.000000
845651.000000
846099.000000
847048.000000
847493.000000
848276.000000
848931.000000
849960.000000
850068.000000
851100.000000
851484.000000
852520.000000
852979.000000
853339.000000
854034.000000
854608.000000
854795.000000
855437.000000
856727.000000
858035.000000
858181.000000
858653.000000
859598.000000
859821.000000
861020.000000
861409.000000
862623.000000
863671.000000
864117.000000
865066.000000
865480.000000
866533.000000
867076.000000
867859.000000
868311.000000
868754.000000
869109.000000
869654.000000
869861.000000
870812.000000
871165.000000
871996.000000
872455.000000
873478.000000
874518.000000
875117.000000
876277.000000
876726.000000
877559.000000
878035.000000
879181.000000
879186.000000
880215.000000
880751.000000
881162.000000
881674.000000
882153.000000
883159.000000
883553.000000
884438.000000
884824.000000
885567.000000
886158.000000
886941.000000
887328.000000
888243.000000
889740.000000
889892.000000
891341.000000
891978.000000
892446.000000
893468.000000
893727.000000
894732.000000
895176.000000
896161.000000
896616.000000
896781.000000
897204.000000
897707.000000
898153.000000
898587.000000
899132.000000
899510.000000
900629.000000
900912.000000
901357.000000
902247.000000
902688.000000
903604.000000
903718.000000
904054.000000
905049.000000
905500.000000
906148.000000
906710.000000
907480.000000
908075.000000
908276.000000
908554.000000
909011.000000
909905.000000
910345.000000
910489.000000
911098.000000
912294.000000
913264.000000
913720.000000
914176.000000
914738.000000
915001.000000
915530.000000
916297.000000
916616.000000
917442.000000
917980.000000
918654.000000
918992.000000
919623.000000
920062.000000
920503.000000
921327.000000
921708.000000
922657.000000
923550.000000
923776.000000
924226.000000
925334.000000
925518.000000
926513.000000
926960.000000
927878.000000
928405.000000
928946.000000
929021.000000
929385.000000
930136.000000
930810.000000
931021.000000
931421.000000
931944.000000
932437.000000
932957.000000
933332.000000
935024.000000
935723.000000
936483.000000
936805.000000
937912.000000
939617.000000
939783.000000
940734.000000
941164.000000
941988.000000
942616.000000
943568.000000
944014.000000
944873.000000
945552.000000
945997.000000
946396.000000
947904.000000
948347.000000
949063.000000
949373.000000
950254.000000
950673.000000
951125.000000
952174.000000
952559.000000
953741.000000
954018.000000
955037.000000
955410.000000
956461.000000
956860.000000
957970.000000
958207.000000
959304.000000
959817.000000
960514.000000
960699.000000
961247.000000
961734.000000
962236.000000
962702.000000
963104.000000
963376.000000
963835.000000
964936.000000
965287.000000
966343.000000
966747.000000
967872.000000
968355.000000
968741.000000
969918.000000
970141.000000
970430.000000
971171.000000
971629.000000
972302.000000
972495.000000
973035.000000
973848.000000
974555.000000
975154.000000
975361.000000
975755.000000
976606.000000
977087.000000
977990.000000
978459.000000
979523.000000
979987.000000
980756.000000
981032.000000
981287.000000
982137.000000
982559.000000
983886.000000
984830.000000
985290.000000
986141.000000
987548.000000
988824.000000
989357.000000
990147.000000
991648.000000
992121.000000
992891.000000
993355.000000
994373.000000
995827.000000
996299.000000
997024.000000
997562.000000
998451.000000
999860.000000
1001285.000000
1001671.000000
1002630.000000
1004064.000000
1004523.000000
1005347.000000
1005810.000000
1006756.000000
1008017.000000
1008492.000000
1009260.000000
1010555.000000
1011918.000000
1012393.000000
1013115.000000
1014122.000000
1014584.000000
1015001.000000
1015987.000000
1017487.000000
1017945.000000
1018875.000000
1019398.000000
1020223.000000
1021745.000000
1022152.000000
1023160.000000
1023546.000000
1024434.000000
1024957.000000
1025745.000000
1026230.000000
1027285.000000
1027747.000000
1028681.000000
1029137.000000
1029847.000000
1030317.000000
1031293.000000
1031690.000000
1032703.000000
1033167.000000
1033667.000000
1034269.000000
1035243.000000
1035645.000000
1036583.000000
1036972.000000
1037822.000000
1038906.000000
1039393.000000
1040608.000000
1041067.000000
1041854.000000
1043102.000000
1043379.000000
1043720.000000
1044564.000000
1045098.000000
1045999.000000
1046475.000000
1047415.000000
1048175.000000
1048907.000000
1049090.000000
1050178.000000
1050637.000000
1051545.000000
1052006.000000
1052904.000000
1053300.000000
1054382.000000
1054733.000000
1055654.000000
1056111.000000
1057045.000000
1057442.000000
1058427.000000
1058886.000000
1059395.000000
1059710.000000
1060587.000000
1061251.000000
1061762.000000
1062755.000000
1063801.000000
1064014.000000
1064517.000000
1065508.000000
1065899.000000
1067095.000000
1067344.000000
1068138.000000
1068510.000000
1069411.000000
1069882.000000
1070781.000000
1071139.000000
1072060.000000
1072512.000000
1073327.000000
1074207.000000
1074733.000000
1075196.000000
1076012.000000
1076544.000000
1077233.000000
1077653.000000
1078616.000000
1079084.000000
1079921.000000
1080305.000000
1081209.000000
1082189.000000
1082630.000000
1083024.000000
1083889.000000
1084422.000000
1085228.000000
1085572.000000
1086063.000000
1086618.000000
1086957.000000
1087870.000000
1088405.000000
1089313.000000
1089582.000000
1090569.000000
1091561.000000
1091988.000000
1092527.000000
1093385.000000
1094862.000000
1095113.000000
1096156.000000
1096686.000000
1097580.000000
1097979.000000
1099066.000000
1099535.000000
1100298.000000
1100836.000000
1101776.000000
1103108.000000
1103647.000000
1104491.000000
1105034.000000
1106002.000000
1106548.000000
1107653.000000
1107920.000000
1109031.000000
1109452.000000
1110336.000000
1111082.000000
1111497.000000
1112057.000000
1112617.000000
1113506.000000
1113917.000000
1115002.000000
1115274.000000
1116474.000000
1117015.000000
1117914.000000
1118381.000000
1119423.000000
1119971.000000
1120900.000000
1121366.000000
1122563.000000
1122733.000000
1123751.000000
1124223.000000
1125200.000000
1125743.000000
1126684.000000
1127234.000000
1128194.000000
1129567.000000
1130106.000000
1131021.000000
1131570.000000
1132488.000000
1134324.000000
1135074.000000
1136757.000000
1138362.000000
1139309.000000
1139785.000000
1140743.000000
1142253.000000
1142651.000000
1143677.000000
1144314.000000
1145257.000000
1145621.000000
1146440.000000
1146860.000000
1147760.000000
1148525.000000
1149262.000000
1149803.000000
1150581.000000
1151155.000000
1152417.000000
1152698.000000
1153630.000000
1154149.000000
1154883.000000
1155479.000000
1156470.000000
1157934.000000
1158474.000000
1159413.000000
1159962.000000
1160839.000000
1161305.000000
1162136.000000
1162833.000000
1163857.000000
1164250.000000
1165250.000000
1165633.000000
1166723.000000
1167121.000000
1168138.000000
1168678.000000
1169551.000000
1170015.000000
1170748.000000
1171452.000000
1172297.000000
1172679.000000
1173621.000000
1173733.000000
1174848.000000
1175338.000000
1176286.000000
1176825.000000
1177412.000000
1178053.000000
1178685.000000
1178989.000000
1179220.000000
1180263.000000
1180723.000000
1181577.000000
1181973.000000
1183054.000000
1183451.000000
1184403.000000
1184810.000000
1185620.000000
1186164.000000
1187149.000000
1187514.000000
1187821.000000
1188241.000000
1188703.000000
1189305.000000
1190575.000000
1190634.000000
1191301.000000
1192093.000000
1194074.000000
1194340.000000
1194797.000000
1195712.000000
1196161.000000
1197055.000000
1197526.000000
1198414.000000
1198952.000000
1199681.000000
1200150.000000
1200907.000000
1202307.000000
1202766.000000
1203528.000000
1203976.000000
1204928.000000
1206299.000000
1206619.000000
1207427.000000
1207733.000000
1208474.000000
1209807.000000
1209949.000000
1209971.000000
1211059.000000
1211516.000000
1212515.000000
1212699.000000
1213678.000000
1214067.000000
1214842.000000
1216025.000000
1216615.000000
1217569.000000
1218011.000000
1219089.000000
1219165.000000
1220168.000000
1220565.000000
1221388.000000
1221781.000000
1222802.000000
1223265.000000
1223570.000000
1224031.000000
1224562.000000
1225222.000000
1225683.000000
1226738.000000
1226947.000000
1228102.000000
1228551.000000
1229524.000000
1229599.000000
1230068.000000
1230738.000000
1231112.000000
1231572.000000
1232075.000000
1232423.000000
1232885.000000
1233215.000000
1233958.000000
1234326.000000
1235329.000000
1235780.000000
1236558.000000
1237032.000000
1237913.000000
1238287.000000
1238738.000000
1239549.000000
1240009.000000
1240933.000000
1241364.000000
1242241.000000
1242981.000000
1243645.000000
1244180.000000
1244842.000000
1245118.000000
1245779.000000
1248278.000000
1248892.000000
1249551.000000
1250205.000000
1250856.000000
1251664.000000
1252435.000000
1252962.000000
1253412.000000
1254239.000000
1255122.000000
1255516.000000
1256758.000000
1257674.000000
1258245.000000
1258810.000000
1260373.000000
1260732.000000
1261880.000000
1262996.000000
1263459.000000
1264117.000000
1264507.000000
1265337.000000
1266594.000000
1266807.000000
1267185.000000
1268133.000000
1268657.000000
1269290.000000
1269551.000000
1269877.000000
1270499.000000
1270757.000000
1271729.000000
1272339.000000
1273214.000000
1274759.000000
1275146.000000
1275896.000000
1276376.000000
1277278.000000
1277795.000000
1278709.000000
1279250.000000
1279334.000000
1279915.000000
1280290.000000
1280734.000000
1281646.000000
1282169.000000
1283165.000000
1283810.000000
1284286.000000
1284702.000000
1285105.000000
1286056.000000
1286599.000000
1287602.000000
1288207.000000
1289010.000000
1289470.000000
1290430.000000
1290898.000000
1292049.000000
1292514.000000
1293512.000000
1293922.000000
1294911.000000
1295127.000000
1296219.000000
1296477.000000
1296867.000000
1297665.000000
1299711.000000
1300826.000000
1300944.000000
1301826.000000
1302511.000000
1303837.000000
1304168.000000
1305519.000000
1307489.000000
1309218.000000
1309758.000000
1311153.000000
1312388.000000
1312958.000000
1313224.000000
1313619.000000
1314172.000000
1314555.000000
1315017.000000
1315535.000000
1315815.000000
1316315.000000
1316426.000000
1317239.000000
1318609.000000
1319366.000000
1320430.000000
1321769.000000
1323013.000000
1324654.000000
1325059.000000
1325967.000000
1327162.000000
1329282.000000
1330425.000000
1331165.000000
1332254.000000
1333418.000000
1333620.000000
1334666.000000
1336053.000000
1337123.000000
1338550.000000
1339995.000000
1341540.000000
1343896.000000
1346623.000000
1348972.000000
1349794.000000
1350114.000000
1351043.000000
1351376.000000
1352272.000000
1352844.000000
1353704.000000
1354239.000000
1355007.000000
1355424.000000
1356469.000000
1357128.000000
1357943.000000
1358405.000000
1359031.000000
1359345.000000
1360247.000000
1360745.000000
1361024.000000
1361907.000000
1362085.000000
1363078.000000
1363513.000000
1363906.000000
1364991.000000
1365368.000000
1366315.000000
1366653.000000
1367507.000000
1368886.000000
1369067.000000
1370501.000000
1370882.000000
1371707.000000
1373043.000000
1374376.000000
1374906.000000
1375615.000000
1377062.000000
1378346.000000
1378721.000000
1379614.000000
1380963.000000
1382377.000000
1382976.000000
1383682.000000
1385573.000000
1385956.000000
1386662.000000
1387336.000000
1388202.000000
1389002.000000
1389708.000000
1390979.000000
1391450.000000
1392407.000000
1393896.000000
1395388.000000
1395843.000000
1396661.000000
1396790.000000
1398069.000000
1398524.000000
1399421.000000
1399820.000000
1400786.000000
1402038.000000
1402315.000000
1402532.000000
1403447.000000
1404088.000000
1405082.000000
1406584.000000
1406977.000000
1407379.000000
1408085.000000
1408490.000000
1409535.000000
1409930.000000
1410983.000000
1411367.000000
1412212.000000
1413505.000000
1413944.000000
1414467.000000
1415477.000000
1415940.000000
1416857.000000
1417405.000000
1418399.000000
1418937.000000
1419793.000000
1420329.000000
1421155.000000
1422651.000000
1423119.000000
1423460.000000
1424034.000000
1424519.000000
1425545.000000
1426465.000000
1426956.000000
1428313.000000
1428770.000000
1429672.000000
1431012.000000
1432403.000000
1433859.000000
1434330.000000
1435219.000000
1435751.000000
1436694.000000
1437479.000000
1438163.000000
1439530.000000
1439986.000000
1440818.000000
1442161.000000
1442625.000000
1443319.000000
1443851.000000
1444593.000000
1446152.000000
1446621.000000
1447367.000000
1447729.000000
1448081.000000
1448515.000000
1448651.000000
1449369.000000
1450175.000000
1450804.000000
1451080.000000
1451257.000000
1452284.000000
1452739.000000
1453449.000000
1454707.000000
1454940.000000
1455837.000000
1456161.000000
1456717.000000
1457256.000000
1457684.000000
1457859.000000
1458311.000000
1458977.000000
1459390.000000
1460221.000000
1461498.000000
1462006.000000
1462608.000000
1463038.000000
1463718.000000
1463885.000000
1464143.000000
1464710.000000
1466308.000000
1466968.000000
1467331.000000
1468317.000000
1469163.000000
1470294.000000
1470638.000000
1472002.000000
1472469.000000
1473418.000000
1474711.000000
1475179.000000
1476058.000000
1476523.000000
1477471.000000
1478146.000000
1479072.000000
1479118.000000
1480162.000000
1480634.000000
1481412.000000
1482836.000000
1482987.000000
1484392.000000
1485024.000000
1485592.000000
1487213.000000
1488397.000000
1489701.000000
1490247.000000
1491039.000000
1491516.000000
1492542.000000
1493550.000000
1493637.000000
1495031.000000
1495477.000000
1496452.000000
1497094.000000
1497873.000000
1498282.000000
1498869.000000
1499325.000000
1499712.000000
1500409.000000
1500842.000000
1501081.000000
1501383.000000
1501876.000000
1502253.000000
1503243.000000
1504852.000000
1506113.000000
1506533.000000
1507504.000000
1508980.000000
1510371.000000
1511587.000000
1512076.000000
1513252.000000
1513720.000000
1514589.000000
1515958.000000
1516349.000000
1517446.000000
1517789.000000
1518484.000000
1518889.000000
1519597.000000
1519983.000000
1520232.000000
1520512.000000
1521433.000000
1522453.000000
1522909.000000
1523364.000000
1524031.000000
1524687.000000
1525534.000000
1526922.000000
1527314.000000
1528360.000000
1528601.000000
1529397.000000
1530771.000000
1531118.000000
1532067.000000
1532432.000000
1533355.000000
1534166.000000
1534605.000000
1535550.000000
1536779.000000
1538057.000000
1538618.000000
1539180.000000
1540523.000000
1542011.000000
1543542.000000
1544020.000000
1544888.000000
1545358.000000
1546164.000000
1547384.000000
1548276.000000
1549863.000000
1551184.000000
1552560.000000
1552957.000000
1554153.000000
1555504.000000
1556001.000000
1556945.000000
1558529.000000
1558989.000000
1559302.000000
1559797.000000
1561309.000000
1561454.000000
1561849.000000
1562855.000000
1563460.000000
1564030.000000
1564378.000000
1565015.000000
1566055.000000
1566617.000000
1567720.000000
1567976.000000
1568932.000000
1569790.000000
1570500.000000
1571642.000000
1571960.000000
1572920.000000
1573187.000000
1573592.000000
1574051.000000
1574958.000000
1575443.000000
1576513.000000
1576786.000000
1577303.000000
1577890.000000
1578863.000000
1579325.000000
1580859.000000
1581929.000000
1583543.000000
1585020.000000
1586588.000000
1587026.000000
1587891.000000
1589351.000000
1590646.000000
1591135.000000
1592139.000000
1593550.000000
1594870.000000
1596820.000000
1597803.000000
1598262.000000
1598981.000000
1599480.000000
1600315.000000
1600786.000000
1601177.000000
1601641.000000
1603175.000000
1603695.000000
1604637.000000
1605718.000000
1606100.000000
1606522.000000
1607484.000000
1608862.000000
1609444.000000
1610190.000000
1611491.000000
1612945.000000
1614235.000000
1614624.000000
1615458.000000
1616918.000000
1617180.000000
1618117.000000
1618582.000000
1619488.000000
1620896.000000
1622216.000000
1622674.000000
1623577.000000
1624773.000000
1625854.000000
1626298.000000
1627354.000000
1627636.000000
1628820.000000
1629967.000000
1630425.000000
1630906.000000
1631382.000000
1632169.000000
1632714.000000
1633461.000000
1633837.000000
1634356.000000
1635189.000000
1636144.000000
1636514.000000
1637554.000000
1638649.000000
1639074.000000
1640473.000000
1641199.000000
1641707.000000
1642167.000000
1643070.000000
1643849.000000
1644468.000000
1645008.000000
1645824.000000
1646254.000000
1646992.000000
1648557.000000
1649459.000000
1649534.000000
1650742.000000
1652172.000000
1652646.000000
1653627.000000
1654667.000000
1655007.000000
1656358.000000
1656795.000000
1657674.000000
1658095.000000
1658422.000000
1660410.000000
1661533.000000
1662120.000000
1662492.000000
1663396.000000
1663695.000000
1664400.000000
1664782.000000
1666137.000000
1667478.000000
1667653.000000
1668391.000000
1669066.000000
1669459.000000
1670376.000000
1670832.000000
1671623.000000
1672279.000000
1673117.000000
1673480.000000
1674349.000000
1675127.000000
1675869.000000
1677135.000000
1677509.000000
1678333.000000
1680085.000000
1680640.000000
1680840.000000
1681845.000000
1682283.000000
1683466.000000
1684036.000000
1684394.000000
1685491.000000
1685952.000000
1687115.000000
1688131.000000
1688483.000000
1689585.000000
1689961.000000
1691376.000000
1692289.000000
1693626.000000
1693970.000000
1695579.000000
1696599.000000
1697057.000000
1697875.000000
1699360.000000
1699814.000000
1700273.000000
1700799.000000
1701206.000000
1701735.000000
1701866.000000
1703098.000000
1703546.000000
1704014.000000
1704496.000000
1704811.000000
1705613.000000
1705819.000000
1706334.000000
1707873.000000
1708402.000000
1708692.000000
1709281.000000
1710067.000000
1710696.000000
1711800.000000
1712198.000000
1713453.000000
1714115.000000
1714945.000000
1716146.000000
1717613.000000
1719121.000000
1719832.000000
1721377.000000
1723579.000000
1725715.000000
1728782.000000
1731450.000000
1731546.000000
1732534.000000
1733055.000000
1733833.000000
1736528.000000
1736978.000000
1738728.000000
1739254.000000
1740357.000000
1741545.000000
1743439.000000
1744203.000000
1744654.000000
1745522.000000
1746959.000000
1747586.000000
1748389.000000
1748797.000000
1749602.000000
1750707.000000
1750907.000000
1751490.000000
1752445.000000
1752827.000000
1753802.000000
1754980.000000
1755093.000000
1756356.000000
1756891.000000
1757794.000000
1758532.000000
1758924.000000
1759497.000000
1760378.000000
1761117.000000
1761650.000000
1762863.000000
1762988.000000
1763520.000000
1764356.000000
1765982.000000
1766608.000000
1767361.000000
1768524.000000
1768692.000000
1770043.000000
1770637.000000
1771477.000000
1772084.000000
1773071.000000
1774412.000000
1775014.000000
1776062.000000
1776451.000000
1777494.000000
1779024.000000
1779317.000000
1780156.000000
1780788.000000
1781621.000000
1782332.000000
1783146.000000
1784554.000000
1786078.000000
1786537.000000
1787370.000000
1787839.000000
1788960.000000
1789460.000000
1790283.000000
1791393.000000
1791871.000000
1792931.000000
1793276.000000
1794078.000000
1794617.000000
1795525.000000
1796406.000000
1796635.000000
1797237.000000
1798001.000000
1798468.000000
1799336.000000
1800561.000000
1801099.000000
