ECG (ms)
294.000000
1133.000000
1951.000000
2790.000000
3676.000000
4598.000000
5515.000000
6423.000000
7338.000000
8187.000000
9005.000000
9821.000000
10603.000000
11392.000000
12193.000000
13023.000000
13886.000000
14747.000000
15574.000000
16402.000000
17269.000000
18152.000000
18975.000000
19792.000000
20591.000000
21388.000000
22190.000000
23059.000000
23969.000000
24873.000000
25794.000000
26702.000000
27620.000000
28485.000000
29352.000000
30204.000000
31041.000000
31814.000000
32589.000000
33361.000000
34181.000000
35067.000000
36035.000000
37002.000000
37900.000000
38747.000000
39555.000000
40341.000000
41119.000000
41953.000000
42963.000000
44024.000000
45042.000000
45967.000000
46816.000000
47678.000000
48562.000000
49460.000000
50339.000000
51222.000000
52076.000000
52901.000000
53719.000000
54546.000000
55422.000000
56339.000000
57211.000000
58087.000000
58999.000000
59920.000000
60792.000000
61648.000000
62504.000000
63427.000000
64425.000000
65412.000000
66372.000000
67345.000000
68320.000000
69257.000000
70155.000000
71074.000000
72029.000000
73025.000000
73940.000000
74836.000000
75760.000000
76676.000000
77579.000000
78429.000000
79287.000000
80140.000000
81030.000000
81980.000000
82949.000000
83895.000000
84853.000000
85778.000000
86678.000000
87569.000000
88428.000000
89278.000000
90127.000000
90989.000000
91836.000000
92742.000000
93699.000000
94707.000000
95730.000000
96725.000000
97668.000000
98576.000000
99432.000000
100286.000000
101127.000000
102008.000000
102914.000000
103822.000000
104716.000000
105611.000000
106500.000000
107417.000000
108348.000000
109249.000000
110124.000000
111026.000000
111949.000000
112858.000000
113711.000000
114560.000000
115474.000000
116427.000000
117390.000000
118283.000000
119170.000000
120043.000000
120883.000000
121705.000000
122529.000000
123355.000000
124230.000000
125113.000000
126041.000000
127019.000000
127981.000000
128919.000000
129860.000000
130764.000000
131613.000000
132426.000000
133255.000000
134119.000000
135083.000000
136113.000000
137136.000000
138179.000000
139197.000000
140111.000000
140961.000000
141802.000000
142695.000000
143660.000000
144724.000000
145837.000000
146917.000000
147971.000000
148974.000000
149911.000000
150788.000000
151687.000000
152644.000000
153656.000000
154716.000000
155767.000000
156756.000000
157669.000000
158561.000000
159448.000000
160371.000000
161340.000000
162285.000000
163263.000000
164303.000000
165389.000000
166389.000000
167317.000000
168230.000000
169207.000000
170231.000000
171258.000000
172257.000000
173265.000000
174246.000000
175208.000000
176135.000000
177031.000000
177933.000000
178830.000000
179700.000000
180573.000000
181497.000000
182513.000000
183537.000000
184537.000000
185502.000000
186401.000000
187300.000000
188185.000000
189040.000000
189899.000000
190703.000000
191566.000000
192424.000000
193257.000000
194088.000000
194930.000000
195787.000000
196650.000000
197505.000000
198342.000000
199186.000000
200090.000000
201020.000000
201916.000000
202754.000000
203525.000000
204232.000000
204931.000000
205713.000000
206607.000000
207585.000000
208604.000000
209631.000000
210644.000000
211623.000000
212569.000000
213489.000000
214400.000000
215273.000000
216150.000000
217144.000000
218195.000000
219253.000000
220229.000000
221161.000000
222086.000000
223001.000000
223871.000000
224753.000000
225678.000000
226661.000000
227631.000000
228539.000000
229409.000000
230274.000000
231142.000000
232004.000000
232871.000000
233782.000000
234712.000000
235635.000000
236532.000000
237382.000000
238261.000000
239159.000000
240088.000000
241042.000000
241971.000000
242905.000000
243845.000000
244763.000000
245673.000000
246546.000000
247412.000000
248306.000000
249237.000000
250178.000000
251083.000000
251970.000000
252893.000000
253845.000000
254778.000000
255640.000000
256456.000000
257240.000000
258042.000000
258942.000000
259956.000000
260994.000000
262023.000000
263072.000000
264138.000000
265221.000000
266275.000000
267237.000000
268173.000000
269086.000000
270003.000000
270935.000000
271877.000000
272895.000000
273945.000000
274927.000000
275858.000000
276814.000000
277776.000000
278734.000000
279669.000000
280559.000000
281441.000000
282308.000000
283201.000000
284060.000000
284943.000000
285877.000000
286811.000000
287716.000000
288627.000000
289542.000000
290488.000000
291417.000000
292386.000000
293353.000000
294297.000000
295195.000000
296010.000000
296814.000000
297635.000000
298472.000000
299320.000000
300179.000000
301132.000000
302134.000000
303115.000000
304025.000000
304906.000000
305787.000000
306686.000000
307571.000000
308455.000000
309362.000000
310297.000000
311209.000000
312104.000000
312970.000000
313871.000000
314817.000000
315790.000000
316730.000000
317676.000000
318634.000000
319559.000000
320483.000000
321409.000000
322319.000000
323189.000000
324082.000000
324983.000000
325900.000000
326803.000000
327715.000000
328664.000000
329631.000000
330563.000000
331450.000000
332350.000000
333279.000000
334189.000000
335049.000000
335879.000000
336701.000000
337578.000000
338513.000000
339477.000000
340415.000000
341318.000000
342256.000000
343220.000000
344211.000000
345180.000000
346128.000000
347050.000000
347933.000000
348770.000000
349579.000000
350389.000000
351234.000000
352145.000000
353080.000000
354050.000000
355048.000000
355983.000000
356894.000000
357801.000000
358704.000000
359562.000000
360382.000000
361182.000000
361966.000000
362837.000000
363769.000000
364793.000000
365863.000000
366890.000000
367875.000000
368878.000000
369865.000000
370809.000000
371716.000000
372641.000000
373480.000000
374338.000000
375217.000000
376090.000000
376997.000000
377900.000000
378781.000000
379677.000000
380614.000000
381556.000000
382458.000000
383368.000000
384301.000000
385242.000000
386141.000000
387048.000000
387953.000000
388831.000000
389683.000000
390539.000000
391419.000000
392315.000000
393197.000000
394076.000000
394975.000000
395855.000000
396720.000000
397579.000000
398454.000000
399348.000000
400257.000000
401157.000000
402061.000000
403018.000000
404001.000000
404953.000000
405861.000000
406749.000000
407646.000000
408564.000000
409468.000000
410330.000000
411182.000000
412066.000000
412994.000000
413940.000000
414869.000000
415832.000000
416808.000000
417775.000000
418722.000000
419657.000000
420590.000000
421478.000000
422356.000000
423233.000000
424159.000000
425059.000000
425924.000000
426818.000000
427784.000000
428774.000000
429732.000000
430670.000000
431602.000000
432540.000000
433464.000000
434402.000000
435335.000000
436212.000000
437035.000000
437841.000000
438642.000000
439475.000000
440297.000000
441131.000000
442100.000000
443175.000000
444238.000000
445284.000000
446313.000000
447285.000000
448179.000000
449019.000000
449822.000000
450640.000000
451530.000000
452509.000000
453521.000000
454506.000000
455496.000000
456485.000000
457485.000000
458472.000000
459435.000000
460349.000000
461220.000000
462098.000000
462949.000000
463837.000000
464652.000000
465513.000000
466384.000000
467270.000000
468234.000000
469223.000000
470167.000000
471126.000000
472074.000000
472995.000000
473895.000000
474803.000000
475735.000000
476646.000000
477548.000000
478465.000000
479415.000000
480363.000000
481302.000000
482246.000000
483179.000000
484040.000000
484876.000000
485761.000000
486741.000000
487719.000000
488680.000000
489694.000000
490738.000000
491749.000000
492722.000000
493695.000000
494628.000000
495501.000000
496323.000000
497123.000000
497961.000000
498946.000000
499956.000000
501003.000000
501991.000000
502946.000000
503864.000000
504746.000000
505570.000000
506366.000000
507158.000000
508007.000000
508983.000000
510044.000000
511089.000000
512126.000000
513129.000000
514081.000000
514980.000000
515804.000000
516589.000000
517354.000000
518110.000000
518861.000000
519600.000000
520356.000000
521224.000000
522190.000000
523231.000000
524197.000000
525201.000000
526214.000000
527199.000000
528155.000000
529112.000000
530062.000000
530968.000000
531825.000000
532658.000000
533516.000000
534459.000000
535507.000000
536568.000000
537581.000000
538529.000000
539408.000000
540283.000000
541178.000000
542114.000000
543086.000000
544073.000000
545030.000000
545918.000000
546766.000000
547609.000000
548499.000000
549499.000000
550517.000000
551529.000000
552515.000000
553489.000000
554432.000000
555329.000000
556183.000000
557019.000000
557890.000000
558914.000000
559978.000000
560998.000000
561982.000000
562909.000000
563837.000000
564797.000000
565738.000000
566689.000000
567687.000000
568716.000000
569767.000000
570818.000000
571872.000000
572899.000000
573925.000000
574930.000000
575921.000000
576890.000000
577817.000000
578765.000000
579716.000000
580663.000000
581560.000000
582433.000000
583332.000000
584249.000000
585119.000000
585944.000000
586775.000000
587567.000000
588345.000000
589139.000000
589936.000000
590721.000000
591530.000000
592396.000000
593305.000000
594186.000000
595070.000000
596004.000000
596949.000000
597868.000000
598728.000000
599596.000000
600482.000000
601383.000000
602288.000000
603204.000000
604111.000000
604987.000000
605832.000000
606671.000000
607550.000000
608481.000000
609444.000000
610428.000000
611394.000000
612328.000000
613276.000000
614247.000000
615239.000000
616215.000000
617121.000000
618033.000000
618953.000000
619888.000000
620839.000000
621777.000000
622716.000000
623656.000000
624593.000000
625491.000000
626344.000000
627209.000000
628051.000000
628923.000000
629792.000000
630696.000000
631625.000000
632639.000000
633682.000000
634700.000000
635679.000000
636634.000000
637582.000000
638500.000000
639439.000000
640429.000000
641430.000000
642368.000000
643276.000000
644149.000000
644997.000000
645847.000000
646716.000000
647662.000000
648711.000000
649746.000000
650736.000000
651739.000000
652778.000000
653837.000000
654820.000000
655780.000000
656740.000000
657692.000000
658605.000000
659549.000000
660496.000000
661457.000000
662392.000000
663320.000000
664273.000000
665205.000000
666128.000000
667081.000000
668048.000000
669004.000000
669950.000000
670904.000000
671856.000000
672789.000000
673737.000000
674724.000000
675685.000000
676636.000000
677578.000000
678503.000000
679391.000000
680243.000000
681069.000000
681887.000000
682723.000000
683652.000000
684654.000000
685693.000000
686658.000000
687626.000000
688609.000000
689544.000000
690444.000000
691358.000000
692276.000000
693219.000000
694150.000000
695132.000000
696106.000000
697069.000000
697980.000000
698919.000000
699881.000000
700796.000000
701694.000000
702635.000000
703603.000000
704569.000000
705493.000000
706404.000000
707329.000000
708255.000000
709158.000000
710081.000000
711052.000000
712008.000000
712942.000000
713923.000000
714907.000000
715865.000000
716843.000000
717826.000000
718809.000000
719772.000000
720764.000000
721745.000000
722686.000000
723632.000000
724569.000000
725476.000000
726351.000000
727245.000000
728166.000000
729075.000000
729972.000000
730889.000000
731861.000000
732842.000000
733778.000000
734698.000000
735630.000000
736569.000000
737487.000000
738422.000000
739398.000000
740375.000000
741298.000000
742191.000000
743143.000000
744135.000000
745146.000000
746148.000000
747093.000000
748007.000000
748928.000000
749848.000000
750722.000000
751599.000000
752514.000000
753446.000000
754401.000000
755349.000000
756322.000000
757315.000000
758288.000000
759252.000000
760202.000000
761149.000000
762085.000000
763065.000000
764103.000000
765143.000000
766166.000000
767194.000000
768195.000000
769156.000000
770098.000000
771041.000000
771946.000000
772858.000000
773824.000000
774791.000000
775758.000000
776736.000000
777726.000000
778670.000000
779571.000000
780474.000000
781392.000000
782338.000000
783284.000000
784281.000000
785317.000000
786326.000000
787293.000000
788273.000000
789257.000000
790205.000000
791139.000000
792070.000000
792999.000000
793914.000000
794842.000000
795787.000000
796760.000000
797730.000000
798721.000000
799722.000000
800731.000000
801695.000000
802693.000000
803701.000000
804709.000000
805705.000000
806713.000000
807705.000000
808661.000000
809615.000000
810558.000000
811492.000000
812402.000000
813327.000000
814283.000000
815280.000000
816224.000000
817183.000000
818150.000000
819082.000000
819977.000000
820874.000000
821774.000000
822648.000000
823494.000000
824350.000000
825265.000000
826232.000000
827179.000000
828075.000000
828932.000000
829782.000000
830620.000000
831472.000000
832304.000000
833149.000000
834029.000000
834950.000000
835904.000000
836849.000000
837822.000000
838800.000000
839743.000000
840677.000000
841618.000000
842572.000000
843507.000000
844395.000000
845260.000000
846167.000000
847137.000000
848145.000000
849145.000000
850091.000000
851056.000000
852033.000000
853007.000000
853976.000000
854965.000000
855943.000000
856913.000000
857858.000000
858793.000000
859691.000000
860588.000000
861490.000000
862398.000000
863293.000000
864191.000000
865097.000000
866036.000000
866949.000000
867828.000000
868722.000000
869666.000000
870644.000000
871594.000000
872558.000000
873549.000000
874529.000000
875495.000000
876448.000000
877378.000000
878233.000000
879066.000000
879900.000000
880704.000000
881555.000000
882496.000000
883469.000000
884459.000000
885461.000000
886464.000000
887432.000000
888399.000000
889357.000000
890310.000000
891229.000000
892172.000000
893140.000000
894135.000000
895128.000000
896134.000000
897132.000000
898090.000000
899019.000000
899967.000000
900952.000000
901906.000000
902818.000000
903771.000000
904772.000000
905745.000000
906692.000000
907646.000000
908635.000000
909560.000000
910479.000000
911435.000000
912430.000000
913415.000000
914400.000000
915410.000000
916431.000000
917426.000000
918453.000000
919497.000000
920513.000000
921535.000000
922574.000000
923591.000000
924576.000000
925575.000000
926557.000000
927495.000000
928396.000000
929346.000000
930347.000000
931337.000000
932294.000000
933271.000000
934262.000000
935218.000000
936159.000000
937079.000000
938009.000000
938884.000000
939736.000000
940647.000000
941629.000000
942609.000000
943537.000000
944492.000000
945473.000000
946412.000000
947343.000000
948293.000000
949249.000000
950169.000000
951047.000000
951900.000000
952817.000000
953802.000000
954809.000000
955779.000000
956672.000000
957519.000000
958362.000000
959275.000000
960235.000000
961198.000000
962204.000000
963241.000000
964268.000000
965282.000000
966288.000000
967259.000000
968183.000000
969114.000000
970048.000000
970983.000000
971916.000000
972887.000000
973888.000000
974885.000000
975877.000000
976851.000000
977765.000000
978634.000000
979502.000000
980427.000000
981418.000000
982415.000000
983363.000000
984307.000000
985265.000000
986192.000000
987090.000000
987995.000000
988911.000000
989819.000000
990744.000000
991687.000000
992622.000000
993558.000000
994518.000000
995501.000000
996438.000000
997379.000000
998360.000000
999355.000000
1000296.000000
1001217.000000
1002176.000000
1003178.000000
1004153.000000
1005130.000000
1006114.000000
1007053.000000
1007975.000000
1008938.000000
1009896.000000
1010833.000000
1011761.000000
1012643.000000
1013500.000000
1014334.000000
1015228.000000
1016203.000000
1017236.000000
1018311.000000
1019389.000000
1020456.000000
1021487.000000
1022468.000000
1023484.000000
1024446.000000
1025361.000000
1026279.000000
1027231.000000
1028157.000000
1029092.000000
1030076.000000
1031097.000000
1032096.000000
1033101.000000
1034000.000000
1034856.000000
1035731.000000
1036629.000000
1037514.000000
1038404.000000
1039401.000000
1040437.000000
1041470.000000
1042475.000000
1043500.000000
1044539.000000
1045546.000000
1046467.000000
1047383.000000
1048244.000000
1049062.000000
1049876.000000
1050683.000000
1051515.000000
1052435.000000
1053419.000000
1054425.000000
1055461.000000
1056516.000000
1057543.000000
1058539.000000
1059481.000000
1060386.000000
1061306.000000
1062253.000000
1063222.000000
1064176.000000
1065132.000000
1066105.000000
1067087.000000
1068013.000000
1068890.000000
1069791.000000
1070725.000000
1071723.000000
1072734.000000
1073785.000000
1074859.000000
1075885.000000
1076870.000000
1077874.000000
1078908.000000
1079915.000000
1080841.000000
1081730.000000
1082655.000000
1083622.000000
1084588.000000
1085544.000000
1086516.000000
1087535.000000
1088580.000000
1089590.000000
1090625.000000
1091668.000000
1092705.000000
1093677.000000
1094593.000000
1095538.000000
1096519.000000
1097464.000000
1098403.000000
1099349.000000
1100293.000000
1101221.000000
1102176.000000
1103142.000000
1104105.000000
1105046.000000
1105958.000000
1106883.000000
1107837.000000
1108804.000000
1109762.000000
1110770.000000
1111765.000000
1112737.000000
1113706.000000
1114697.000000
1115668.000000
1116590.000000
1117521.000000
1118472.000000
1119453.000000
1120420.000000
1121375.000000
1122338.000000
1123304.000000
1124236.000000
1125177.000000
1126137.000000
1127112.000000
1128066.000000
1129020.000000
1129980.000000
1130926.000000
1131889.000000
1132850.000000
1133823.000000
1134771.000000
1135731.000000
1136702.000000
1137676.000000
1138644.000000
1139599.000000
1140571.000000
1141508.000000
1142445.000000
1143417.000000
1144454.000000
1145483.000000
1146475.000000
1147473.000000
1148424.000000
1149341.000000
1150221.000000
1151136.000000
1152161.000000
1153185.000000
1154177.000000
1155172.000000
1156169.000000
1157147.000000
1158085.000000
1159064.000000
1160069.000000
1161075.000000
1162014.000000
1162864.000000
1163675.000000
1164497.000000
1165443.000000
1166517.000000
1167611.000000
1168665.000000
1169727.000000
1170759.000000
1171793.000000
1172808.000000
1173808.000000
1174766.000000
1175756.000000
1176763.000000
1177747.000000
1178721.000000
1179731.000000
1180784.000000
1181834.000000
1182881.000000
1183905.000000
1184886.000000
1185816.000000
1186749.000000
1187680.000000
1188606.000000
1189512.000000
1190431.000000
1191373.000000
1192267.000000
1193125.000000
1193980.000000
1194832.000000
1195709.000000
1196573.000000
1197429.000000
1198331.000000
1199252.000000
1200145.000000
1201078.000000
1201996.000000
1202907.000000
1203799.000000
1204735.000000
1205691.000000
1206638.000000
1207568.000000
1208491.000000
1209420.000000
1210340.000000
1211288.000000
1212281.000000
1213287.000000
1214268.000000
1215205.000000
1216156.000000
1217109.000000
1218012.000000
1218893.000000
1219843.000000
1220820.000000
1221769.000000
1222645.000000
1223485.000000
1224312.000000
1225088.000000
1225857.000000
1226615.000000
1227350.000000
1228092.000000
