ECG (ms)
401.000000
1110.000000
1779.000000
2442.000000
3137.000000
3837.000000
4586.000000
5312.000000
6024.000000
6750.000000
7486.000000
8191.000000
8878.000000
9576.000000
10322.000000
11100.000000
11857.000000
12560.000000
13276.000000
13998.000000
14697.000000
15375.000000
16037.000000
16698.000000
17386.000000
18143.000000
18925.000000
19716.000000
20468.000000
21202.000000
21947.000000
22697.000000
23404.000000
24077.000000
24730.000000
25395.000000
26144.000000
26975.000000
27775.000000
28564.000000
29357.000000
30143.000000
30911.000000
31665.000000
32440.000000
33228.000000
34016.000000
34768.000000
35526.000000
36286.000000
37025.000000
37748.000000
38485.000000
39252.000000
40016.000000
40778.000000
41550.000000
42324.000000
43056.000000
43757.000000
44458.000000
45171.000000
45925.000000
46712.000000
47459.000000
48206.000000
48981.000000
49788.000000
50616.000000
51411.000000
52206.000000
53011.000000
53839.000000
54629.000000
55438.000000
56242.000000
57030.000000
57777.000000
58519.000000
59278.000000
60052.000000
60806.000000
61535.000000
62267.000000
63028.000000
63837.000000
64652.000000
65447.000000
66262.000000
67102.000000
67928.000000
68705.000000
69485.000000
70274.000000
71050.000000
71811.000000
72604.000000
73410.000000
74237.000000
75018.000000
75784.000000
76559.000000
77351.000000
78136.000000
78916.000000
79726.000000
80531.000000
81267.000000
81964.000000
82672.000000
83432.000000
84278.000000
85092.000000
85902.000000
86746.000000
87605.000000
88433.000000
89220.000000
90015.000000
90829.000000
91604.000000
92358.000000
93120.000000
93903.000000
94681.000000
95414.000000
96132.000000
96865.000000
97621.000000
98385.000000
99116.000000
99857.000000
100634.000000
101424.000000
102157.000000
102845.000000
103525.000000
104219.000000
104945.000000
105726.000000
106531.000000
107290.000000
108063.000000
108854.000000
109667.000000
110441.000000
111190.000000
111946.000000
112704.000000
113450.000000
114183.000000
114946.000000
115745.000000
116585.000000
117394.000000
118126.000000
118889.000000
119658.000000
120454.000000
121168.000000
121859.000000
122564.000000
123316.000000
124070.000000
124877.000000
125595.000000
126311.000000
127047.000000
127804.000000
128578.000000
129299.000000
130016.000000
130752.000000
131487.000000
132210.000000
132913.000000
133607.000000
134307.000000
135049.000000
135830.000000
136602.000000
137319.000000
138003.000000
138650.000000
139326.000000
140034.000000
140775.000000
141506.000000
142232.000000
142926.000000
143586.000000
144248.000000
144942.000000
145659.000000
146398.000000
147137.000000
147840.000000
148531.000000
149235.000000
149964.000000
150740.000000
151467.000000
152175.000000
152908.000000
153684.000000
154471.000000
155202.000000
155969.000000
156774.000000
157574.000000
158306.000000
159006.000000
159710.000000
160438.000000
161188.000000
161912.000000
162608.000000
163319.000000
164058.000000
164816.000000
165516.000000
166216.000000
166932.000000
167667.000000
168373.000000
169034.000000
169735.000000
170434.000000
171128.000000
171830.000000
172505.000000
173197.000000
173902.000000
174601.000000
175277.000000
175929.000000
176619.000000
177312.000000
177976.000000
178603.000000
179238.000000
179878.000000
180534.000000
181223.000000
181969.000000
182693.000000
183420.000000
184185.000000
184980.000000
185721.000000
186423.000000
187145.000000
187875.000000
188584.000000
189265.000000
189966.000000
190696.000000
191493.000000
192229.000000
192939.000000
193678.000000
194452.000000
195218.000000
195935.000000
196656.000000
197396.000000
198146.000000
198842.000000
199518.000000
200197.000000
200916.000000
201742.000000
202578.000000
203380.000000
204178.000000
204984.000000
205772.000000
206521.000000
207295.000000
208095.000000
208918.000000
209663.000000
210396.000000
211176.000000
211984.000000
212783.000000
213533.000000
214307.000000
215153.000000
216003.000000
216772.000000
217518.000000
218301.000000
219090.000000
219873.000000
220583.000000
221287.000000
222032.000000
222829.000000
223645.000000
224379.000000
225096.000000
225831.000000
226599.000000
227408.000000
228146.000000
228867.000000
229605.000000
230376.000000
231172.000000
231906.000000
232614.000000
233327.000000
234053.000000
234814.000000
235536.000000
236246.000000
236974.000000
237735.000000
238529.000000
239254.000000
239977.000000
240708.000000
241489.000000
242252.000000
242989.000000
243722.000000
244480.000000
245257.000000
245981.000000
246685.000000
247395.000000
248154.000000
248977.000000
249747.000000
250467.000000
251185.000000
251944.000000
252737.000000
253474.000000
254192.000000
254920.000000
255659.000000
256415.000000
257126.000000
257787.000000
258442.000000
259118.000000
259843.000000
260609.000000
261337.000000
262052.000000
262754.000000
263479.000000
264240.000000
264959.000000
265655.000000
266357.000000
267088.000000
267865.000000
268581.000000
269276.000000
269983.000000
270727.000000
271461.000000
272171.000000
272863.000000
273568.000000
274300.000000
275053.000000
275787.000000
276502.000000
277211.000000
277950.000000
278722.000000
279472.000000
280175.000000
280873.000000
281595.000000
282363.000000
283104.000000
283832.000000
284584.000000
285379.000000
286169.000000
286911.000000
287628.000000
288361.000000
289129.000000
289891.000000
290610.000000
291318.000000
292040.000000
292818.000000
293650.000000
294421.000000
295143.000000
295890.000000
296691.000000
297458.000000
298185.000000
298913.000000
299684.000000
300435.000000
301190.000000
301910.000000
302605.000000
303330.000000
304114.000000
304924.000000
305688.000000
306402.000000
307090.000000
307771.000000
308472.000000
309214.000000
310008.000000
310745.000000
311460.000000
312194.000000
312979.000000
313767.000000
314517.000000
315240.000000
315964.000000
316715.000000
317492.000000
318242.000000
318962.000000
319698.000000
320448.000000
321191.000000
321920.000000
322693.000000
323508.000000
324319.000000
325053.000000
325781.000000
326530.000000
327303.000000
328051.000000
328770.000000
329481.000000
330209.000000
330978.000000
331743.000000
332460.000000
333164.000000
333894.000000
334655.000000
335419.000000
336146.000000
336875.000000
337635.000000
338408.000000
339186.000000
339913.000000
340655.000000
341413.000000
342171.000000
342895.000000
343604.000000
344307.000000
345053.000000
345843.000000
346587.000000
347330.000000
348101.000000
348932.000000
349754.000000
350477.000000
351177.000000
351889.000000
352619.000000
353383.000000
354103.000000
354816.000000
355569.000000
356389.000000
357181.000000
357901.000000
358609.000000
359340.000000
360088.000000
360819.000000
361527.000000
362273.000000
363050.000000
363794.000000
364515.000000
365249.000000
365998.000000
366757.000000
367486.000000
368210.000000
368947.000000
369706.000000
370450.000000
371164.000000
371868.000000
372593.000000
373344.000000
374092.000000
374796.000000
375485.000000
376194.000000
376934.000000
377701.000000
378432.000000
379163.000000
379907.000000
380674.000000
381448.000000
382187.000000
382895.000000
383613.000000
384370.000000
385163.000000
385909.000000
386645.000000
387407.000000
388205.000000
389020.000000
389765.000000
390506.000000
391289.000000
392070.000000
392858.000000
393588.000000
394322.000000
395075.000000
395855.000000
396616.000000
397340.000000
398073.000000
398837.000000
399638.000000
400380.000000
401105.000000
401850.000000
402614.000000
403378.000000
404108.000000
404807.000000
405527.000000
406259.000000
407037.000000
407769.000000
408493.000000
409244.000000
410015.000000
410797.000000
411517.000000
412216.000000
412932.000000
413666.000000
414401.000000
415114.000000
415773.000000
416420.000000
417075.000000
417823.000000
418778.000000
419625.000000
420384.000000
421088.000000
421771.000000
422441.000000
423102.000000
423805.000000
424635.000000
425508.000000
426390.000000
427263.000000
428055.000000
428782.000000
429487.000000
430215.000000
431005.000000
431825.000000
432668.000000
433501.000000
434278.000000
435014.000000
435721.000000
436435.000000
437193.000000
438018.000000
438870.000000
439725.000000
440540.000000
441304.000000
442073.000000
442850.000000
443623.000000
444409.000000
445174.000000
445949.000000
446736.000000
447517.000000
448298.000000
449098.000000
449903.000000
450643.000000
451389.000000
452155.000000
452943.000000
453730.000000
454504.000000
455311.000000
456131.000000
456968.000000
457772.000000
458573.000000
459373.000000
460156.000000
460895.000000
461611.000000
462339.000000
463093.000000
463876.000000
464677.000000
465438.000000
466208.000000
467002.000000
467806.000000
468589.000000
469331.000000
470078.000000
470838.000000
471612.000000
472396.000000
473142.000000
473867.000000
474600.000000
475345.000000
476085.000000
476788.000000
477467.000000
478140.000000
478835.000000
479595.000000
480405.000000
481222.000000
481987.000000
482745.000000
483502.000000
484257.000000
485005.000000
485720.000000
486440.000000
487174.000000
487923.000000
488681.000000
489409.000000
490144.000000
490895.000000
491669.000000
492440.000000
493175.000000
493919.000000
494678.000000
495466.000000
496227.000000
496984.000000
497742.000000
498509.000000
499253.000000
499967.000000
500686.000000
501415.000000
502170.000000
502915.000000
503650.000000
504398.000000
505158.000000
505925.000000
506647.000000
507342.000000
508038.000000
508741.000000
509439.000000
510117.000000
510775.000000
511414.000000
512062.000000
512791.000000
513660.000000
514515.000000
515311.000000
516049.000000
516759.000000
517447.000000
518147.000000
518857.000000
519555.000000
520242.000000
520956.000000
521699.000000
522478.000000
523276.000000
524053.000000
524791.000000
525519.000000
526252.000000
526997.000000
527734.000000
528457.000000
529189.000000
529946.000000
530728.000000
531474.000000
532204.000000
532943.000000
533685.000000
534404.000000
535108.000000
535802.000000
536503.000000
537245.000000
537987.000000
538716.000000
539452.000000
540203.000000
540959.000000
541669.000000
542361.000000
543049.000000
543746.000000
544448.000000
545151.000000
545859.000000
546617.000000
547428.000000
548193.000000
548909.000000
549602.000000
550307.000000
551027.000000
551777.000000
552502.000000
553217.000000
553938.000000
554679.000000
555452.000000
556184.000000
556896.000000
557619.000000
558349.000000
559077.000000
559779.000000
560457.000000
561136.000000
561816.000000
562527.000000
563231.000000
563914.000000
564567.000000
565242.000000
565957.000000
566694.000000
567447.000000
568157.000000
568827.000000
569484.000000
570160.000000
570848.000000
571530.000000
572235.000000
572999.000000
573853.000000
574599.000000
575332.000000
576067.000000
576823.000000
577542.000000
578215.000000
578878.000000
579593.000000
580367.000000
581236.000000
582026.000000
582765.000000
583515.000000
584271.000000
585021.000000
585746.000000
586455.000000
587185.000000
587962.000000
588757.000000
589598.000000
590360.000000
591112.000000
591885.000000
592666.000000
593389.000000
594116.000000
594849.000000
595604.000000
596382.000000
597126.000000
597850.000000
598631.000000
599424.000000
600167.000000
600935.000000
601747.000000
602512.000000
603245.000000
603968.000000
604734.000000
605533.000000
606301.000000
607030.000000
607762.000000
608510.000000
609292.000000
610066.000000
610794.000000
611538.000000
612313.000000
613135.000000
613909.000000
614660.000000
615410.000000
616199.000000
616980.000000
617761.000000
618500.000000
619222.000000
619987.000000
620788.000000
621602.000000
622333.000000
623092.000000
623892.000000
624714.000000
625493.000000
626233.000000
626970.000000
627723.000000
628505.000000
629258.000000
629982.000000
630712.000000
631457.000000
632222.000000
632951.000000
633662.000000
634378.000000
635116.000000
635882.000000
636614.000000
637323.000000
638043.000000
638776.000000
639535.000000
640311.000000
641046.000000
641744.000000
642447.000000
643170.000000
643946.000000
644692.000000
645416.000000
646172.000000
646923.000000
647672.000000
648390.000000
649082.000000
649783.000000
650509.000000
651265.000000
652003.000000
652716.000000
653409.000000
654127.000000
654855.000000
655592.000000
656286.000000
656971.000000
657684.000000
658406.000000
659092.000000
659745.000000
660396.000000
661077.000000
661756.000000
662416.000000
663052.000000
663688.000000
664349.000000
665030.000000
665772.000000
666487.000000
667193.000000
667923.000000
668699.000000
669450.000000
670170.000000
670884.000000
671605.000000
672348.000000
673048.000000
673732.000000
674421.000000
675158.000000
676018.000000
676845.000000
677629.000000
678408.000000
679194.000000
679983.000000
680735.000000
681453.000000
682178.000000
682950.000000
683770.000000
684571.000000
685314.000000
686044.000000
686760.000000
687472.000000
688154.000000
688818.000000
689459.000000
690088.000000
690730.000000
691598.000000
692620.000000
693580.000000
694520.000000
695458.000000
696328.000000
697111.000000
697907.000000
698740.000000
699577.000000
700381.000000
701137.000000
701881.000000
702624.000000
703393.000000
704194.000000
704950.000000
705701.000000
706481.000000
707286.000000
708109.000000
708882.000000
709638.000000
710403.000000
711169.000000
711901.000000
712643.000000
713416.000000
714223.000000
714999.000000
715762.000000
716547.000000
717348.000000
718153.000000
718937.000000
719689.000000
720441.000000
721212.000000
722000.000000
722783.000000
723531.000000
724280.000000
725035.000000
725805.000000
726589.000000
727349.000000
728123.000000
728907.000000
729698.000000
730474.000000
731225.000000
731938.000000
732625.000000
733310.000000
734020.000000
734772.000000
735507.000000
736212.000000
736941.000000
737741.000000
738618.000000
739487.000000
740265.000000
741007.000000
741769.000000
742557.000000
743366.000000
744138.000000
744905.000000
745686.000000
746466.000000
747252.000000
748003.000000
748750.000000
749514.000000
750291.000000
751075.000000
751850.000000
752585.000000
753310.000000
754039.000000
754805.000000
755621.000000
756438.000000
757267.000000
758109.000000
758948.000000
759754.000000
760519.000000
761281.000000
762052.000000
762835.000000
763580.000000
764310.000000
765036.000000
765762.000000
766500.000000
767223.000000
767924.000000
768616.000000
769317.000000
770072.000000
770863.000000
771646.000000
772393.000000
773149.000000
773921.000000
774712.000000
775463.000000
776191.000000
776918.000000
777660.000000
778415.000000
779168.000000
779905.000000
780642.000000
781380.000000
782111.000000
782808.000000
783492.000000
784152.000000
784799.000000
785440.000000
786119.000000
786946.000000
787802.000000
788633.000000
789457.000000
790261.000000
791100.000000
791915.000000
792672.000000
793386.000000
794078.000000
794762.000000
795436.000000
796087.000000
796720.000000
797339.000000
797950.000000
798552.000000
799150.000000
799800.000000
800687.000000
801530.000000
802299.000000
803071.000000
803907.000000
804808.000000
805643.000000
806392.000000
807134.000000
807906.000000
808732.000000
809610.000000
810493.000000
811349.000000
812160.000000
812929.000000
813682.000000
814449.000000
815205.000000
815957.000000
816737.000000
817567.000000
818419.000000
819290.000000
820112.000000
820876.000000
821642.000000
822436.000000
823239.000000
824008.000000
824811.000000
825652.000000
826530.000000
827398.000000
828260.000000
829075.000000
829859.000000
830623.000000
831404.000000
832157.000000
832874.000000
833596.000000
834379.000000
835249.000000
836121.000000
836946.000000
837738.000000
838531.000000
839302.000000
840046.000000
840807.000000
841576.000000
842340.000000
843085.000000
843846.000000
844625.000000
845413.000000
846172.000000
846913.000000
847652.000000
848394.000000
849156.000000
849930.000000
850668.000000
851381.000000
852072.000000
852748.000000
853417.000000
854064.000000
854696.000000
855314.000000
855924.000000
856524.000000
857118.000000
857718.000000
858438.000000
859396.000000
860305.000000
861120.000000
861863.000000
862574.000000
863287.000000
864007.000000
864773.000000
865554.000000
866280.000000
866976.000000
867663.000000
868366.000000
869120.000000
869954.000000
870759.000000
871527.000000
872279.000000
873022.000000
873770.000000
874505.000000
875238.000000
875979.000000
876724.000000
877449.000000
878173.000000
878900.000000
879653.000000
880380.000000
881098.000000
881814.000000
882557.000000
883332.000000
884083.000000
884835.000000
885589.000000
886330.000000
887038.000000
887735.000000
888429.000000
889149.000000
889888.000000
890605.000000
891315.000000
892023.000000
892733.000000
893445.000000
894136.000000
894823.000000
895516.000000
896218.000000
896938.000000
897680.000000
898416.000000
899165.000000
899860.000000
900532.000000
901196.000000
901875.000000
902577.000000
903273.000000
903956.000000
904612.000000
905253.000000
905907.000000
906601.000000
907306.000000
907976.000000
908619.000000
909249.000000
909866.000000
910471.000000
911066.000000
911657.000000
912281.000000
913178.000000
914085.000000
914971.000000
915837.000000
916667.000000
917442.000000
918156.000000
918842.000000
919499.000000
920152.000000
920787.000000
921417.000000
922084.000000
922797.000000
923631.000000
924569.000000
925503.000000
