ECG (ms)
1.000000
884.000000
1700.000000
2526.000000
3427.000000
4387.000000
5377.000000
6277.000000
7220.000000
8188.000000
9180.000000
10103.000000
10969.000000
11819.000000
12749.000000
13717.000000
14733.000000
15685.000000
16591.000000
17552.000000
18587.000000
19597.000000
20493.000000
21318.000000
22166.000000
23097.000000
24120.000000
25228.000000
26316.000000
27445.000000
28522.000000
29506.000000
30425.000000
31372.000000
32336.000000
33300.000000
34329.000000
35599.000000
36738.000000
37647.000000
38510.000000
39438.000000
40524.000000
41680.000000
42864.000000
44089.000000
45178.000000
46136.000000
47120.000000
48107.000000
49110.000000
50051.000000
50917.000000
51809.000000
52891.000000
54100.000000
55188.000000
56127.000000
57025.000000
57928.000000
58910.000000
60006.000000
61050.000000
61955.000000
62823.000000
63752.000000
64775.000000
65883.000000
66941.000000
67982.000000
69029.000000
70056.000000
70966.000000
71786.000000
72627.000000
73548.000000
74591.000000
75743.000000
76841.000000
77958.000000
79049.000000
80039.000000
80943.000000
81826.000000
82756.000000
83838.000000
84978.000000
86086.000000
87214.000000
88355.000000
89343.000000
90220.000000
91036.000000
91892.000000
93052.000000
94251.000000
95331.000000
96290.000000
97211.000000
98166.000000
99173.000000
100169.000000
101106.000000
102029.000000
102986.000000
103898.000000
104751.000000
105573.000000
106437.000000
107407.000000
108386.000000
109317.000000
110217.000000
111068.000000
111902.000000
112803.000000
113755.000000
114747.000000
115714.000000
116599.000000
117476.000000
118350.000000
119269.000000
120186.000000
121054.000000
121865.000000
122721.000000
123679.000000
124553.000000
125383.000000
126278.000000
127174.000000
128033.000000
128849.000000
129701.000000
130621.000000
131577.000000
132554.000000
133445.000000
134326.000000
135195.000000
136132.000000
137070.000000
137968.000000
138877.000000
139829.000000
140811.000000
141717.000000
142643.000000
143591.000000
144510.000000
145420.000000
146370.000000
147356.000000
148276.000000
149130.000000
149999.000000
150921.000000
151850.000000
152709.000000
153520.000000
154356.000000
155248.000000
156190.000000
157119.000000
157979.000000
158781.000000
159589.000000
160473.000000
161403.000000
162382.000000
163312.000000
164164.000000
164967.000000
165795.000000
166666.000000
167599.000000
168547.000000
169424.000000
170274.000000
171136.000000
172020.000000
172949.000000
173866.000000
174792.000000
175769.000000
176753.000000
177687.000000
178558.000000
179373.000000
180199.000000
181097.000000
182049.000000
182967.000000
183905.000000
184853.000000
185817.000000
186744.000000
187633.000000
188543.000000
189465.000000
190386.000000
191284.000000
192189.000000
193112.000000
194039.000000
194965.000000
195929.000000
196964.000000
197972.000000
198964.000000
199930.000000
200895.000000
201792.000000
202643.000000
203541.000000
204515.000000
205484.000000
206373.000000
207264.000000
208203.000000
209168.000000
210081.000000
210959.000000
211873.000000
212840.000000
213797.000000
214700.000000
215626.000000
216547.000000
217427.000000
218266.000000
219092.000000
219989.000000
220991.000000
221919.000000
222805.000000
223680.000000
224600.000000
225520.000000
226399.000000
227294.000000
228212.000000
229153.000000
230025.000000
230911.000000
231800.000000
232730.000000
233621.000000
234468.000000
235332.000000
236260.000000
237207.000000
238106.000000
238947.000000
239800.000000
240707.000000
241644.000000
242548.000000
243436.000000
244331.000000
245230.000000
246072.000000
246908.000000
247777.000000
248689.000000
249559.000000
250459.000000
251373.000000
252227.000000
253025.000000
253847.000000
254688.000000
255476.000000
256225.000000
256994.000000
257834.000000
258755.000000
259711.000000
260606.000000
261491.000000
262388.000000
263275.000000
264132.000000
264980.000000
265855.000000
266747.000000
267623.000000
268462.000000
269298.000000
270179.000000
271181.000000
272136.000000
272994.000000
273847.000000
274755.000000
275705.000000
276611.000000
277466.000000
278322.000000
279208.000000
280157.000000
281069.000000
282012.000000
283004.000000
283943.000000
284800.000000
285637.000000
286498.000000
287469.000000
288499.000000
289465.000000
290330.000000
291233.000000
292236.000000
293188.000000
294081.000000
295015.000000
295965.000000
296912.000000
297810.000000
298653.000000
299469.000000
300327.000000
301227.000000
302128.000000
303030.000000
303888.000000
304714.000000
305557.000000
306472.000000
307383.000000
308254.000000
309063.000000
309875.000000
310721.000000
311639.000000
312543.000000
313397.000000
314264.000000
315152.000000
316063.000000
316926.000000
317772.000000
318641.000000
319535.000000
320414.000000
321278.000000
322128.000000
323012.000000
323883.000000
324717.000000
325581.000000
326451.000000
327321.000000
328160.000000
328985.000000
329837.000000
330727.000000
331605.000000
332445.000000
333288.000000
334130.000000
334971.000000
335782.000000
336547.000000
337305.000000
338096.000000
338949.000000
339853.000000
340757.000000
341616.000000
342423.000000
343201.000000
343993.000000
344858.000000
345793.000000
346737.000000
347657.000000
348520.000000
349412.000000
350360.000000
351289.000000
352209.000000
353095.000000
353993.000000
354920.000000
355838.000000
356762.000000
357638.000000
358572.000000
359640.000000
360795.000000
361829.000000
362856.000000
363884.000000
364854.000000
365764.000000
366665.000000
367603.000000
368635.000000
369583.000000
370506.000000
371441.000000
372400.000000
373337.000000
374214.000000
375109.000000
376043.000000
377046.000000
377994.000000
378925.000000
379839.000000
380753.000000
381635.000000
382450.000000
383265.000000
384119.000000
385126.000000
386091.000000
386998.000000
387894.000000
388819.000000
389752.000000
390637.000000
391482.000000
392284.000000
393090.000000
393909.000000
394772.000000
395669.000000
396533.000000
397335.000000
398126.000000
398946.000000
399852.000000
400783.000000
401682.000000
402513.000000
403328.000000
404156.000000
404995.000000
405833.000000
406649.000000
407431.000000
408223.000000
409043.000000
409923.000000
410797.000000
411652.000000
412476.000000
413323.000000
414176.000000
415021.000000
415850.000000
416640.000000
417420.000000
418225.000000
419053.000000
419911.000000
420738.000000
421523.000000
422282.000000
423051.000000
423858.000000
424728.000000
425595.000000
426412.000000
427182.000000
427949.000000
428737.000000
429586.000000
430459.000000
431328.000000
432194.000000
433053.000000
433903.000000
434784.000000
435669.000000
436519.000000
437311.000000
438092.000000
438906.000000
439768.000000
440671.000000
441544.000000
442364.000000
443136.000000
443919.000000
444767.000000
445689.000000
446622.000000
447544.000000
448488.000000
449456.000000
450412.000000
451307.000000
452160.000000
452951.000000
453699.000000
454457.000000
455288.000000
456148.000000
457093.000000
458120.000000
459176.000000
460146.000000
460981.000000
461757.000000
462521.000000
463322.000000
464211.000000
465197.000000
466151.000000
467094.000000
467990.000000
468823.000000
469611.000000
470377.000000
471187.000000
472060.000000
472983.000000
473954.000000
474935.000000
475856.000000
476761.000000
477662.000000
478602.000000
479534.000000
480508.000000
481544.000000
482564.000000
483473.000000
484292.000000
485065.000000
485829.000000
486673.000000
487874.000000
489030.000000
490163.000000
491224.000000
492221.000000
493155.000000
494046.000000
494901.000000
495704.000000
496475.000000
497256.000000
498101.000000
499315.000000
500422.000000
501562.000000
502674.000000
503753.000000
504711.000000
505605.000000
506479.000000
507305.000000
508099.000000
508910.000000
509845.000000
510867.000000
511966.000000
512941.000000
513788.000000
514574.000000
515336.000000
516126.000000
517012.000000
517987.000000
519042.000000
520106.000000
521126.000000
522071.000000
523005.000000
523948.000000
524916.000000
525890.000000
526880.000000
527857.000000
528805.000000
529720.000000
530604.000000
531436.000000
532219.000000
532989.000000
533792.000000
534707.000000
535661.000000
536650.000000
537635.000000
538614.000000
539551.000000
540462.000000
541329.000000
542151.000000
542979.000000
543880.000000
544852.000000
545823.000000
546764.000000
547682.000000
548599.000000
549521.000000
550467.000000
551410.000000
552353.000000
553262.000000
554082.000000
554858.000000
555615.000000
556417.000000
557367.000000
558353.000000
559361.000000
560327.000000
561261.000000
562183.000000
563120.000000
564037.000000
564954.000000
565866.000000
566758.000000
567590.000000
568371.000000
569121.000000
569878.000000
570728.000000
571737.000000
572784.000000
573818.000000
574817.000000
575735.000000
576571.000000
577367.000000
578163.000000
579024.000000
579956.000000
580939.000000
581914.000000
582837.000000
583730.000000
584602.000000
585476.000000
586352.000000
587214.000000
588035.000000
588828.000000
589633.000000
590496.000000
591444.000000
592402.000000
593335.000000
594254.000000
595170.000000
596050.000000
596869.000000
597638.000000
598390.000000
599138.000000
599933.000000
600824.000000
601751.000000
602692.000000
603622.000000
604538.000000
605473.000000
606388.000000
607283.000000
608138.000000
609028.000000
609916.000000
610747.000000
611523.000000
612337.000000
613225.000000
614119.000000
614977.000000
615790.000000
616563.000000
617322.000000
618110.000000
619019.000000
619966.000000
620942.000000
621930.000000
622877.000000
623795.000000
624704.000000
625608.000000
626524.000000
627455.000000
628414.000000
629372.000000
630353.000000
631347.000000
632308.000000
633205.000000
634035.000000
634821.000000
635591.000000
636404.000000
637355.000000
638428.000000
639545.000000
640583.000000
641495.000000
642353.000000
643201.000000
644099.000000
645111.000000
646087.000000
646972.000000
647800.000000
648641.000000
649562.000000
650550.000000
651541.000000
652537.000000
653555.000000
654525.000000
655484.000000
656441.000000
657367.000000
658243.000000
659070.000000
659864.000000
660684.000000
661586.000000
662595.000000
663559.000000
664520.000000
665461.000000
666382.000000
667255.000000
668069.000000
668849.000000
669648.000000
670560.000000
671594.000000
672707.000000
673781.000000
674736.000000
675586.000000
676375.000000
677149.000000
678036.000000
679136.000000
680269.000000
681378.000000
682461.000000
683565.000000
684599.000000
685598.000000
686553.000000
687486.000000
688414.000000
689362.000000
690356.000000
691361.000000
692330.000000
693209.000000
694025.000000
694804.000000
695589.000000
696450.000000
697435.000000
698454.000000
699386.000000
700301.000000
701208.000000
702126.000000
703035.000000
703937.000000
704813.000000
705635.000000
706455.000000
707310.000000
708214.000000
709101.000000
709971.000000
710794.000000
711604.000000
712442.000000
713308.000000
714202.000000
715098.000000
715965.000000
716808.000000
717694.000000
718600.000000
719512.000000
720415.000000
721284.000000
722088.000000
722854.000000
723610.000000
724403.000000
725318.000000
726257.000000
727190.000000
728050.000000
728889.000000
729781.000000
730712.000000
731647.000000
732568.000000
733495.000000
734398.000000
735275.000000
736138.000000
737007.000000
737884.000000
738751.000000
739575.000000
740350.000000
741105.000000
741893.000000
742799.000000
743815.000000
744900.000000
745968.000000
747004.000000
747974.000000
748879.000000
749794.000000
750692.000000
751574.000000
752420.000000
753235.000000
754079.000000
755031.000000
756020.000000
757038.000000
758029.000000
758994.000000
759935.000000
760852.000000
761800.000000
762789.000000
763832.000000
764818.000000
765757.000000
766625.000000
767440.000000
768241.000000
769086.000000
770027.000000
771082.000000
772106.000000
773091.000000
773993.000000
774903.000000
775842.000000
776778.000000
777703.000000
778658.000000
779615.000000
780509.000000
781328.000000
782101.000000
782860.000000
783630.000000
784492.000000
785497.000000
786514.000000
787474.000000
788380.000000
789232.000000
790052.000000
790902.000000
791865.000000
792757.000000
793591.000000
794392.000000
795232.000000
796081.000000
796954.000000
797814.000000
798657.000000
799469.000000
800237.000000
800981.000000
801728.000000
802547.000000
803596.000000
804682.000000
805746.000000
806783.000000
807745.000000
808617.000000
809430.000000
810199.000000
810990.000000
811851.000000
812804.000000
813779.000000
814719.000000
815613.000000
816441.000000
817229.000000
817990.000000
818761.000000
819557.000000
820401.000000
821292.000000
822174.000000
823040.000000
823903.000000
824765.000000
825623.000000
826478.000000
827319.000000
828105.000000
828858.000000
829604.000000
830363.000000
831179.000000
832043.000000
832912.000000
833775.000000
834627.000000
835488.000000
836345.000000
837197.000000
838085.000000
838962.000000
839830.000000
840677.000000
841499.000000
842282.000000
843036.000000
843806.000000
844637.000000
845592.000000
846561.000000
847499.000000
848410.000000
849325.000000
850248.000000
851161.000000
852024.000000
852827.000000
853622.000000
854452.000000
855399.000000
856361.000000
857298.000000
858191.000000
859093.000000
860002.000000
860896.000000
861801.000000
862669.000000
863476.000000
864237.000000
864983.000000
865744.000000
866659.000000
867712.000000
868759.000000
869775.000000
870728.000000
871612.000000
872445.000000
873228.000000
873983.000000
874738.000000
875542.000000
876479.000000
877468.000000
878461.000000
879365.000000
880182.000000
880966.000000
881767.000000
882622.000000
883532.000000
884473.000000
885426.000000
886360.000000
887264.000000
888159.000000
889036.000000
890007.000000
890947.000000
891894.000000
892838.000000
893763.000000
894677.000000
895559.000000
896412.000000
897216.000000
897987.000000
898765.000000
899611.000000
900583.000000
901597.000000
902608.000000
903582.000000
904495.000000
905357.000000
906183.000000
907033.000000
907933.000000
908886.000000
909873.000000
910839.000000
911788.000000
912679.000000
913513.000000
914322.000000
915159.000000
916148.000000
917364.000000
918476.000000
919455.000000
920463.000000
921434.000000
922407.000000
923473.000000
924482.000000
925423.000000
926299.000000
927173.000000
928066.000000
929006.000000
930013.000000
930988.000000
931905.000000
932790.000000
933610.000000
934400.000000
935207.000000
936065.000000
936988.000000
937932.000000
938877.000000
939824.000000
940812.000000
941791.000000
942722.000000
943597.000000
944415.000000
945235.000000
946096.000000
946996.000000
947916.000000
948844.000000
949754.000000
950589.000000
951372.000000
952127.000000
952876.000000
953645.000000
954546.000000
955544.000000
956598.000000
957593.000000
958525.000000
959434.000000
960323.000000
961205.000000
962096.000000
963014.000000
963914.000000
964801.000000
965689.000000
966578.000000
967480.000000
968353.000000
969175.000000
969960.000000
970727.000000
971532.000000
972567.000000
973667.000000
974752.000000
975830.000000
976836.000000
977740.000000
978563.000000
979320.000000
980052.000000
980806.000000
981792.000000
982806.000000
983913.000000
984992.000000
986035.000000
987046.000000
988054.000000
989065.000000
990025.000000
990919.000000
991776.000000
992587.000000
993398.000000
994261.000000
995182.000000
996147.000000
997120.000000
998077.000000
999010.000000
999906.000000
1000759.000000
1001577.000000
1002373.000000
1003203.000000
1004092.000000
1005015.000000
1005853.000000
1006637.000000
1007444.000000
1008302.000000
1009188.000000
1010078.000000
1010916.000000
1011704.000000
1012459.000000
1013216.000000
1013992.000000
1014843.000000
1015729.000000
1016619.000000
1017520.000000
1018412.000000
1019308.000000
1020220.000000
1021119.000000
1022022.000000
1022917.000000
1023798.000000
1024633.000000
1025434.000000
1026252.000000
1027139.000000
1028137.000000
1029105.000000
1030032.000000
1030936.000000
1031841.000000
1032704.000000
1033510.000000
1034276.000000
1035021.000000
1035783.000000
1036620.000000
1037601.000000
1038594.000000
1039557.000000
1040483.000000
1041404.000000
1042333.000000
1043264.000000
1044160.000000
1045055.000000
1045971.000000
1046910.000000
1047842.000000
1048737.000000
1049584.000000
1050379.000000
1051137.000000
1051899.000000
1052727.000000
1053768.000000
1054842.000000
1055919.000000
1056962.000000
1057984.000000
1058951.000000
1059870.000000
1060728.000000
1061534.000000
1062301.000000
1063087.000000
1064041.000000
1065116.000000
1066193.000000
1067224.000000
1068230.000000
1069203.000000
1070146.000000
1071058.000000
1071938.000000
1072770.000000
1073563.000000
1074368.000000
1075299.000000
1076344.000000
1077435.000000
1078526.000000
1079579.000000
1080588.000000
1081550.000000
1082481.000000
1083427.000000
1084398.000000
1085340.000000
1086219.000000
1087049.000000
1087828.000000
1088576.000000
1089318.000000
1090120.000000
1091070.000000
1092032.000000
1092977.000000
1093906.000000
1094831.000000
1095761.000000
1096673.000000
1097578.000000
1098489.000000
1099408.000000
1100331.000000
1101230.000000
1102119.000000
1103021.000000
1103926.000000
1104883.000000
1105819.000000
1106714.000000
1107563.000000
1108368.000000
1109147.000000
1109947.000000
1110910.000000
1111951.000000
1113040.000000
1114119.000000
1115153.000000
1116144.000000
1117111.000000
1118048.000000
1118928.000000
1119791.000000
1120604.000000
1121388.000000
1122151.000000
1122999.000000
1123922.000000
1124838.000000
1125741.000000
1126642.000000
1127555.000000
1128437.000000
1129261.000000
1130036.000000
1130790.000000
1131574.000000
1132433.000000
1133435.000000
1134447.000000
1135432.000000
1136401.000000
1137330.000000
1138243.000000
1139135.000000
1140021.000000
1140839.000000
1141613.000000
1142370.000000
1143141.000000
1144023.000000
1144978.000000
1145908.000000
1146819.000000
1147717.000000
1148608.000000
1149470.000000
1150291.000000
1151074.000000
1151824.000000
1152557.000000
1153320.000000
1154146.000000
1155050.000000
1155965.000000
1156868.000000
1157761.000000
1158631.000000
1159499.000000
1160368.000000
1161231.000000
1162090.000000
1162933.000000
1163793.000000
1164650.000000
1165504.000000
1166352.000000
1167190.000000
1167984.000000
1168740.000000
1169474.000000
1170219.000000
1171049.000000
1172057.000000
1173090.000000
1174131.000000
1175143.000000
1176126.000000
1177074.000000
1177974.000000
1178864.000000
1179747.000000
1180645.000000
1181606.000000
1182569.000000
1183550.000000
1184536.000000
1185490.000000
1186364.000000
1187218.000000
1188086.000000
1189021.000000
1189986.000000
1190916.000000
1191814.000000
1192654.000000
1193508.000000
1194398.000000
