ECG (ms)
660.000000
1508.000000
2394.000000
3293.000000
4163.000000
5085.000000
5996.000000
6870.000000
7793.000000
8711.000000
9579.000000
10462.000000
11358.000000
12220.000000
13117.000000
13999.000000
14861.000000
15763.000000
16656.000000
17527.000000
18449.000000
19364.000000
20247.000000
21175.000000
22078.000000
22962.000000
23869.000000
24755.000000
25643.000000
26554.000000
27440.000000
28330.000000
29248.000000
30151.000000
31058.000000
31982.000000
32868.000000
33765.000000
34661.000000
35525.000000
36406.000000
37297.000000
38168.000000
39076.000000
40006.000000
40899.000000
41823.000000
42743.000000
43626.000000
44550.000000
45468.000000
46350.000000
47272.000000
48185.000000
49076.000000
50006.000000
50920.000000
51804.000000
52738.000000
53651.000000
54545.000000
55494.000000
56420.000000
57322.000000
58280.000000
59215.000000
60138.000000
61107.000000
62037.000000
62950.000000
63896.000000
64817.000000
65722.000000
66662.000000
67577.000000
68468.000000
69408.000000
70321.000000
71208.000000
72141.000000
73063.000000
73961.000000
74895.000000
75803.000000
76701.000000
77630.000000
78537.000000
79420.000000
80343.000000
81256.000000
82149.000000
83126.000000
84107.000000
85057.000000
86023.000000
86994.000000
87918.000000
88860.000000
89812.000000
90717.000000
91649.000000
92580.000000
93481.000000
94405.000000
95361.000000
96286.000000
97188.000000
98130.000000
99043.000000
99938.000000
100873.000000
101774.000000
102677.000000
103615.000000
104530.000000
105407.000000
106323.000000
107208.000000
108074.000000
109012.000000
109941.000000
110822.000000
111767.000000
112680.000000
113568.000000
114506.000000
115433.000000
116319.000000
117246.000000
118154.000000
119044.000000
119969.000000
120872.000000
121765.000000
122688.000000
123609.000000
124523.000000
125501.000000
126448.000000
127361.000000
128311.000000
129265.000000
130193.000000
131113.000000
132079.000000
133051.000000
133976.000000
134933.000000
135904.000000
136836.000000
137786.000000
138764.000000
139705.000000
140645.000000
141625.000000
142574.000000
143501.000000
144477.000000
145438.000000
146355.000000
147298.000000
148266.000000
149204.000000
150136.000000
151095.000000
152004.000000
152929.000000
153900.000000
154853.000000
155783.000000
156760.000000
157693.000000
158616.000000
159584.000000
160559.000000
161493.000000
162468.000000
163441.000000
164383.000000
165378.000000
166361.000000
167293.000000
168282.000000
169251.000000
170187.000000
171162.000000
172124.000000
173048.000000
174001.000000
174936.000000
175841.000000
176793.000000
177730.000000
178627.000000
179573.000000
180502.000000
181386.000000
182317.000000
183251.000000
184145.000000
185094.000000
186030.000000
186928.000000
187876.000000
188813.000000
189724.000000
190670.000000
191612.000000
192506.000000
193413.000000
194334.000000
195212.000000
196084.000000
196984.000000
197854.000000
198703.000000
199612.000000
200531.000000
201395.000000
202274.000000
203194.000000
204085.000000
204966.000000
205896.000000
206803.000000
207685.000000
208622.000000
209546.000000
210446.000000
211383.000000
212251.000000
213134.000000
214026.000000
214878.000000
215781.000000
216663.000000
217518.000000
218404.000000
219309.000000
220186.000000
221060.000000
221977.000000
222871.000000
223752.000000
224688.000000
225628.000000
226530.000000
227489.000000
228427.000000
229329.000000
230277.000000
231214.000000
232115.000000
233080.000000
234030.000000
234948.000000
235879.000000
236795.000000
237665.000000
238567.000000
239467.000000
240340.000000
241272.000000
242202.000000
243100.000000
244046.000000
244945.000000
245856.000000
246786.000000
247692.000000
248586.000000
249505.000000
250404.000000
251298.000000
252221.000000
253114.000000
254002.000000
254916.000000
255805.000000
256682.000000
257599.000000
258490.000000
259374.000000
260290.000000
261178.000000
262082.000000
262992.000000
263872.000000
264774.000000
265695.000000
266600.000000
267499.000000
268438.000000
269364.000000
270273.000000
271221.000000
272148.000000
273041.000000
273973.000000
274866.000000
275758.000000
276676.000000
277574.000000
278477.000000
279403.000000
280304.000000
281217.000000
282142.000000
283049.000000
283941.000000
284855.000000
285761.000000
286647.000000
287582.000000
288502.000000
289405.000000
290345.000000
291261.000000
292166.000000
293101.000000
294018.000000
294917.000000
295854.000000
296764.000000
297655.000000
298594.000000
299523.000000
300433.000000
301405.000000
302367.000000
303295.000000
304263.000000
305219.000000
306127.000000
307080.000000
308013.000000
308915.000000
309834.000000
310784.000000
311709.000000
312624.000000
313586.000000
314525.000000
315435.000000
316389.000000
317304.000000
318198.000000
319124.000000
320026.000000
320929.000000
321861.000000
322758.000000
323632.000000
324540.000000
325414.000000
326290.000000
327217.000000
328127.000000
329033.000000
329992.000000
330940.000000
331853.000000
332799.000000
333757.000000
334678.000000
335624.000000
336575.000000
337484.000000
338431.000000
339377.000000
340295.000000
341221.000000
342182.000000
343146.000000
344073.000000
345028.000000
345985.000000
346896.000000
347837.000000
348797.000000
349736.000000
350672.000000
351634.000000
352589.000000
353508.000000
354440.000000
355387.000000
356279.000000
357204.000000
358140.000000
359047.000000
359974.000000
360934.000000
361849.000000
362775.000000
363724.000000
364634.000000
365548.000000
366492.000000
367404.000000
368293.000000
369232.000000
370173.000000
371082.000000
372048.000000
373004.000000
373913.000000
374879.000000
375823.000000
376734.000000
377688.000000
378631.000000
379535.000000
380489.000000
381445.000000
382343.000000
383302.000000
384227.000000
385133.000000
386088.000000
387026.000000
387928.000000
388872.000000
389846.000000
390776.000000
391701.000000
392662.000000
393608.000000
394541.000000
395501.000000
396436.000000
397355.000000
398300.000000
399215.000000
400123.000000
401071.000000
402017.000000
402914.000000
403790.000000
404667.000000
405583.000000
406522.000000
407473.000000
408420.000000
409360.000000
410294.000000
411226.000000
412176.000000
413126.000000
414078.000000
415011.000000
415953.000000
416905.000000
417844.000000
418752.000000
419690.000000
420624.000000
421535.000000
422467.000000
423429.000000
424352.000000
425289.000000
426251.000000
427168.000000
428102.000000
429067.000000
429985.000000
430924.000000
431872.000000
432777.000000
433703.000000
434631.000000
435534.000000
436462.000000
437412.000000
438327.000000
439273.000000
440222.000000
441124.000000
442071.000000
443004.000000
443891.000000
444826.000000
445741.000000
446625.000000
447551.000000
448469.000000
449362.000000
450299.000000
451227.000000
452122.000000
453045.000000
453966.000000
454871.000000
455763.000000
456679.000000
457581.000000
458473.000000
459409.000000
460320.000000
461220.000000
462161.000000
463087.000000
463985.000000
464931.000000
465847.000000
466743.000000
467684.000000
468594.000000
469497.000000
470437.000000
471354.000000
472266.000000
473202.000000
474114.000000
475022.000000
475966.000000
476893.000000
477802.000000
478751.000000
479694.000000
480606.000000
481551.000000
482491.000000
483387.000000
484321.000000
485261.000000
486187.000000
487114.000000
488066.000000
488992.000000
489916.000000
490864.000000
491810.000000
492708.000000
493637.000000
494546.000000
495422.000000
496355.000000
497296.000000
498191.000000
499132.000000
500080.000000
500982.000000
501899.000000
502816.000000
503699.000000
504582.000000
505488.000000
506403.000000
507283.000000
508200.000000
509102.000000
509974.000000
510905.000000
511837.000000
512724.000000
513665.000000
514587.000000
515478.000000
516397.000000
517294.000000
518153.000000
519052.000000
519963.000000
520844.000000
521764.000000
522682.000000
523545.000000
524431.000000
525344.000000
526224.000000
527106.000000
528008.000000
528898.000000
529780.000000
530686.000000
531583.000000
532467.000000
533379.000000
534286.000000
535169.000000
536086.000000
536983.000000
537867.000000
538791.000000
539705.000000
540582.000000
541499.000000
542408.000000
543281.000000
544193.000000
545111.000000
545996.000000
546916.000000
547820.000000
548705.000000
549637.000000
550544.000000
551418.000000
552335.000000
553232.000000
554107.000000
555021.000000
555925.000000
556820.000000
557760.000000
558700.000000
559610.000000
560527.000000
561477.000000
562415.000000
563309.000000
564242.000000
565169.000000
566065.000000
567005.000000
567913.000000
568809.000000
569743.000000
570649.000000
571534.000000
572472.000000
573407.000000
574310.000000
575251.000000
576181.000000
577080.000000
578026.000000
578980.000000
579903.000000
580877.000000
581837.000000
582763.000000
583716.000000
584677.000000
585596.000000
586555.000000
587539.000000
588484.000000
589427.000000
590407.000000
591357.000000
592282.000000
593245.000000
594183.000000
595099.000000
596048.000000
596991.000000
597897.000000
598851.000000
599800.000000
600696.000000
601639.000000
602578.000000
603494.000000
604452.000000
605414.000000
606345.000000
607308.000000
608281.000000
609208.000000
610165.000000
611117.000000
612027.000000
612953.000000
613891.000000
614790.000000
615725.000000
616688.000000
617610.000000
618541.000000
619509.000000
620437.000000
621343.000000
622303.000000
623229.000000
624151.000000
625147.000000
626121.000000
627046.000000
628019.000000
628966.000000
629906.000000
630872.000000
631832.000000
632762.000000
633723.000000
634695.000000
635631.000000
636603.000000
637580.000000
638520.000000
639476.000000
640445.000000
641383.000000
642324.000000
643292.000000
644240.000000
645160.000000
646113.000000
647043.000000
647952.000000
648898.000000
649842.000000
650750.000000
651709.000000
652684.000000
653614.000000
654535.000000
655488.000000
656416.000000
657305.000000
658251.000000
659210.000000
660130.000000
661068.000000
662017.000000
662938.000000
663850.000000
664807.000000
665760.000000
666669.000000
667624.000000
668568.000000
669473.000000
670427.000000
671387.000000
672297.000000
673224.000000
674166.000000
675083.000000
675986.000000
676928.000000
677859.000000
678749.000000
679653.000000
680557.000000
681438.000000
682354.000000
683289.000000
684198.000000
685112.000000
686063.000000
686969.000000
687877.000000
688806.000000
689703.000000
690600.000000
691528.000000
692413.000000
693300.000000
694215.000000
695106.000000
695973.000000
696880.000000
697763.000000
698635.000000
699554.000000
700441.000000
701310.000000
702228.000000
703127.000000
704008.000000
704929.000000
705830.000000
706707.000000
707633.000000
708551.000000
709442.000000
710367.000000
711288.000000
712175.000000
713108.000000
714031.000000
714920.000000
715846.000000
716752.000000
717636.000000
718564.000000
719484.000000
720375.000000
721308.000000
722220.000000
723098.000000
724025.000000
724944.000000
725827.000000
726754.000000
727662.000000
728542.000000
729467.000000
730379.000000
731263.000000
732188.000000
733108.000000
733981.000000
734906.000000
735827.000000
736719.000000
737618.000000
738531.000000
739405.000000
740277.000000
741177.000000
742079.000000
742963.000000
743850.000000
744793.000000
745739.000000
746636.000000
747569.000000
748491.000000
749374.000000
750306.000000
751217.000000
752099.000000
753015.000000
753924.000000
754811.000000
755748.000000
756665.000000
757551.000000
758469.000000
759374.000000
760241.000000
761150.000000
762053.000000
762922.000000
763846.000000
764755.000000
765618.000000
766464.000000
767334.000000
768214.000000
769074.000000
769909.000000
770754.000000
771585.000000
772412.000000
773274.000000
774104.000000
774916.000000
775753.000000
776605.000000
777448.000000
778299.000000
779180.000000
780064.000000
780928.000000
781805.000000
782725.000000
783669.000000
784572.000000
785483.000000
786412.000000
787315.000000
788217.000000
789151.000000
790084.000000
791010.000000
791958.000000
792892.000000
793803.000000
794756.000000
795720.000000
796625.000000
797584.000000
798528.000000
799444.000000
800409.000000
801368.000000
802287.000000
803240.000000
804197.000000
805107.000000
806026.000000
806975.000000
807925.000000
808859.000000
809780.000000
810738.000000
811687.000000
812612.000000
813573.000000
814515.000000
815420.000000
816358.000000
817278.000000
818160.000000
819079.000000
819965.000000
820818.000000
821724.000000
822625.000000
823510.000000
824432.000000
825363.000000
826248.000000
827165.000000
828078.000000
828953.000000
829875.000000
830781.000000
831652.000000
832554.000000
833456.000000
834328.000000
835223.000000
836127.000000
837007.000000
837947.000000
838893.000000
839793.000000
840730.000000
841638.000000
842519.000000
843439.000000
844328.000000
845211.000000
846125.000000
847006.000000
847872.000000
848724.000000
849577.000000
850446.000000
851279.000000
852169.000000
853053.000000
853909.000000
854814.000000
855716.000000
856567.000000
857463.000000
858359.000000
859236.000000
860127.000000
861056.000000
861963.000000
862876.000000
863813.000000
864722.000000
865643.000000
866591.000000
867507.000000
868421.000000
869354.000000
870267.000000
871169.000000
872112.000000
873064.000000
874001.000000
874984.000000
875968.000000
876919.000000
877881.000000
878853.000000
879793.000000
880768.000000
881743.000000
882673.000000
883636.000000
884599.000000
885536.000000
886480.000000
887453.000000
888408.000000
889331.000000
890292.000000
891258.000000
892189.000000
893157.000000
894119.000000
895065.000000
896061.000000
897030.000000
897973.000000
898954.000000
899908.000000
900831.000000
901788.000000
902719.000000
903640.000000
904598.000000
905527.000000
906442.000000
907398.000000
908324.000000
909261.000000
910201.000000
911122.000000
912056.000000
913008.000000
913941.000000
914863.000000
915820.000000
916763.000000
917686.000000
918651.000000
919606.000000
920512.000000
921448.000000
922397.000000
923334.000000
924259.000000
925211.000000
926148.000000
927048.000000
927986.000000
928914.000000
929811.000000
930754.000000
931687.000000
932589.000000
933546.000000
934487.000000
935400.000000
936351.000000
937274.000000
938183.000000
939128.000000
940058.000000
940971.000000
941918.000000
942847.000000
943758.000000
944709.000000
945644.000000
946552.000000
947497.000000
948433.000000
949340.000000
950288.000000
951225.000000
952132.000000
953076.000000
954012.000000
954943.000000
955905.000000
956868.000000
957776.000000
958712.000000
959648.000000
960541.000000
961433.000000
962361.000000
963261.000000
964140.000000
965064.000000
965995.000000
966889.000000
967813.000000
968742.000000
969634.000000
970549.000000
971498.000000
972411.000000
973331.000000
974301.000000
975245.000000
976157.000000
977105.000000
978030.000000
978916.000000
979865.000000
980808.000000
981705.000000
982639.000000
983599.000000
984525.000000
985461.000000
986423.000000
987367.000000
988283.000000
989240.000000
990206.000000
991150.000000
992075.000000
993046.000000
994031.000000
994956.000000
995933.000000
996908.000000
997834.000000
998760.000000
999717.000000
1000647.000000
1001555.000000
1002508.000000
1003444.000000
1004352.000000
1005303.000000
1006231.000000
1007124.000000
1008060.000000
1008988.000000
1009881.000000
1010819.000000
1011725.000000
1012608.000000
1013529.000000
1014437.000000
1015311.000000
1016230.000000
1017149.000000
1018027.000000
1018961.000000
1019879.000000
1020767.000000
1021692.000000
1022594.000000
1023464.000000
1024375.000000
1025288.000000
1026165.000000
1027071.000000
1027991.000000
1028876.000000
1029775.000000
1030694.000000
1031583.000000
1032431.000000
1033281.000000
1034173.000000
1035090.000000
1036009.000000
1036923.000000
1037800.000000
1038689.000000
1039571.000000
1040421.000000
1041298.000000
1042182.000000
1043065.000000
1043923.000000
1044819.000000
1045709.000000
1046574.000000
1047470.000000
1048373.000000
1049250.000000
1050136.000000
1051050.000000
1051953.000000
1052835.000000
1053758.000000
1054703.000000
1055596.000000
1056481.000000
1057355.000000
1058255.000000
1059153.000000
1060023.000000
1060951.000000
1061850.000000
1062736.000000
1063659.000000
1064578.000000
1065462.000000
1066414.000000
1067365.000000
1068279.000000
1069238.000000
1070198.000000
1071136.000000
1072106.000000
1073088.000000
1074050.000000
1075098.000000
1076165.000000
1077141.000000
1078118.000000
1079105.000000
1080065.000000
1081012.000000
1082002.000000
1082990.000000
1083962.000000
1084956.000000
1085995.000000
1087006.000000
1088014.000000
1088954.000000
1089899.000000
1090860.000000
1091795.000000
1092748.000000
1093717.000000
1094648.000000
1095591.000000
1096552.000000
1097498.000000
1098420.000000
1099383.000000
1100320.000000
1101223.000000
1102161.000000
1103076.000000
1103984.000000
1104917.000000
1105832.000000
1106726.000000
1107666.000000
1108553.000000
1109434.000000
1110346.000000
1111236.000000
1112133.000000
1113057.000000
1113950.000000
1114792.000000
1115669.000000
1116517.000000
1117352.000000
1118205.000000
1119055.000000
1119931.000000
1120836.000000
1121750.000000
1122640.000000
1123569.000000
1124503.000000
1125415.000000
1126325.000000
1127274.000000
1128226.000000
1129149.000000
1130131.000000
1131105.000000
1132032.000000
1133018.000000
1134014.000000
1134968.000000
1135910.000000
1136891.000000
1137842.000000
1139053.000000
1139978.000000
1140897.000000
1141838.000000
1142754.000000
1143661.000000
1144613.000000
1145539.000000
1146454.000000
1147419.000000
1148368.000000
1149296.000000
1150262.000000
1151245.000000
1152157.000000
1153073.000000
1153953.000000
1154852.000000
1155727.000000
1156588.000000
1157475.000000
1158332.000000
1159215.000000
1160135.000000
1161046.000000
1161949.000000
1162891.000000
1163819.000000
1164730.000000
1165680.000000
1166626.000000
1167535.000000
1168486.000000
1169433.000000
1170346.000000
1171302.000000
1172251.000000
1173164.000000
1174124.000000
1175058.000000
1175959.000000
1176913.000000
1177846.000000
1178748.000000
1179695.000000
1180620.000000
1181508.000000
1182429.000000
1183366.000000
1184290.000000
1185170.000000
1186098.000000
1187029.000000
1187938.000000
1188876.000000
1189819.000000
1190727.000000
1191667.000000
1192611.000000
1193531.000000
1194447.000000
1195383.000000
1196261.000000
1197116.000000
1197983.000000
1198839.000000
1199703.000000
1200544.000000
1201398.000000
1202290.000000
1203154.000000
1204085.000000
1204999.000000
1205862.000000
1206763.000000
1207661.000000
