ECG (ms)
364.000000
1446.000000
2418.000000
3454.000000
4376.000000
5347.000000
6268.000000
7246.000000
8129.000000
9035.000000
9887.000000
10821.000000
11740.000000
12728.000000
13704.000000
14664.000000
15581.000000
16421.000000
17313.000000
18192.000000
19144.000000
20155.000000
21138.000000
22034.000000
22885.000000
23855.000000
24918.000000
25824.000000
26748.000000
27673.000000
28640.000000
29488.000000
30393.000000
31235.000000
32051.000000
32877.000000
33891.000000
34751.000000
35930.000000
37049.000000
38017.000000
38958.000000
39934.000000
40833.000000
41744.000000
42687.000000
43651.000000
44565.000000
45642.000000
46623.000000
47678.000000
48687.000000
49641.000000
50757.000000
51664.000000
52642.000000
53662.000000
54632.000000
55579.000000
56487.000000
57374.000000
58475.000000
59434.000000
60454.000000
61444.000000
62347.000000
63427.000000
64354.000000
65329.000000
66307.000000
67250.000000
68268.000000
69221.000000
70237.000000
71255.000000
72250.000000
73286.000000
74258.000000
75333.000000
76322.000000
77374.000000
78367.000000
79407.000000
80457.000000
81494.000000
82506.000000
83530.000000
84565.000000
85528.000000
86562.000000
87560.000000
88575.000000
89587.000000
90596.000000
91613.000000
92587.000000
93607.000000
94562.000000
95587.000000
96610.000000
97619.000000
98665.000000
99659.000000
100690.000000
101654.000000
102666.000000
103658.000000
104644.000000
105651.000000
106587.000000
107591.000000
108543.000000
109534.000000
110446.000000
111340.000000
112390.000000
113267.000000
114299.000000
115357.000000
116312.000000
117344.000000
118323.000000
119319.000000
120305.000000
121284.000000
122293.000000
123244.000000
124263.000000
125246.000000
126255.000000
127240.000000
128210.000000
129214.000000
130178.000000
131171.000000
132085.000000
132845.000000
133652.000000
134839.000000
135762.000000
136740.000000
137759.000000
138705.000000
139735.000000
140722.000000
141662.000000
142664.000000
143616.000000
144586.000000
145596.000000
146532.000000
147561.000000
148576.000000
149553.000000
150595.000000
151596.000000
152598.000000
153655.000000
154655.000000
155672.000000
156685.000000
157671.000000
158679.000000
159675.000000
160586.000000
161428.000000
162237.000000
163401.000000
164456.000000
165501.000000
166561.000000
167638.000000
168645.000000
169681.000000
170691.000000
171729.000000
172788.000000
173804.000000
174875.000000
175907.000000
176970.000000
177982.000000
179012.000000
180016.000000
181004.000000
182027.000000
183005.000000
184052.000000
185085.000000
186110.000000
187176.000000
188165.000000
189237.000000
190215.000000
191258.000000
192242.000000
193269.000000
194274.000000
195242.000000
196270.000000
197235.000000
198265.000000
199288.000000
200309.000000
201357.000000
202320.000000
203351.000000
204332.000000
205345.000000
206373.000000
207346.000000
208370.000000
209334.000000
210369.000000
211380.000000
212391.000000
213424.000000
214366.000000
215279.000000
216260.000000
217203.000000
218262.000000
219177.000000
220246.000000
221185.000000
222286.000000
223270.000000
224270.000000
225266.000000
226234.000000
227247.000000
228196.000000
229182.000000
230112.000000
231093.000000
232053.000000
232908.000000
233838.000000
234715.000000
235775.000000
236729.000000
237756.000000
238740.000000
239704.000000
240698.000000
241660.000000
242679.000000
243638.000000
244602.000000
245435.000000
246230.000000
247121.000000
248204.000000
249135.000000
250182.000000
251131.000000
252126.000000
253120.000000
254099.000000
255117.000000
256081.000000
257101.000000
258087.000000
259087.000000
260099.000000
261091.000000
262111.000000
263078.000000
264114.000000
265097.000000
266101.000000
267079.000000
268050.000000
269040.000000
269988.000000
270985.000000
271932.000000
272935.000000
273916.000000
274921.000000
275905.000000
276894.000000
277860.000000
278791.000000
279777.000000
280709.000000
281714.000000
282661.000000
283668.000000
284647.000000
285647.000000
286653.000000
287602.000000
288604.000000
289553.000000
290554.000000
291563.000000
292540.000000
293587.000000
294579.000000
295633.000000
296642.000000
297650.000000
298670.000000
299634.000000
300649.000000
301612.000000
302613.000000
303619.000000
304612.000000
305647.000000
306633.000000
307653.000000
308608.000000
309612.000000
310605.000000
311550.000000
312560.000000
313520.000000
314512.000000
315518.000000
316456.000000
317465.000000
318432.000000
319406.000000
320403.000000
321341.000000
322336.000000
323304.000000
324253.000000
325191.000000
326063.000000
327089.000000
328093.000000
329012.000000
329983.000000
330850.000000
331787.000000
332693.000000
333602.000000
334597.000000
335491.000000
336454.000000
337394.000000
338345.000000
339348.000000
340323.000000
341337.000000
342247.000000
343386.000000
344335.000000
345445.000000
346363.000000
347400.000000
348277.000000
349328.000000
350285.000000
351278.000000
352184.000000
353288.000000
354251.000000
355282.000000
356245.000000
357259.000000
358219.000000
359233.000000
360195.000000
361222.000000
362172.000000
363189.000000
364156.000000
365134.000000
366142.000000
367082.000000
368095.000000
369054.000000
370024.000000
371032.000000
371962.000000
372964.000000
373940.000000
374913.000000
375934.000000
376884.000000
377905.000000
378898.000000
379880.000000
380919.000000
381882.000000
382896.000000
383919.000000
384900.000000
385930.000000
386905.000000
387893.000000
388902.000000
389739.000000
390697.000000
391597.000000
392436.000000
393346.000000
394443.000000
395455.000000
396427.000000
397300.000000
398261.000000
399274.000000
400253.000000
401273.000000
402176.000000
403150.000000
404058.000000
405039.000000
405974.000000
406955.000000
407974.000000
408972.000000
409911.000000
410919.000000
412032.000000
413020.000000
414069.000000
414998.000000
415929.000000
416826.000000
417740.000000
418664.000000
419712.000000
420713.000000
421730.000000
422692.000000
423735.000000
424628.000000
425591.000000
426471.000000
427539.000000
428463.000000
429513.000000
430458.000000
431416.000000
432358.000000
433415.000000
434407.000000
435423.000000
436368.000000
437351.000000
438282.000000
439193.000000
440309.000000
441242.000000
442302.000000
443218.000000
444216.000000
445213.000000
446124.000000
447125.000000
448047.000000
449089.000000
450051.000000
451063.000000
452046.000000
453042.000000
453979.000000
454951.000000
455893.000000
456861.000000
457846.000000
458749.000000
459724.000000
460657.000000
461626.000000
462568.000000
463495.000000
464419.000000
465323.000000
466312.000000
467255.000000
468309.000000
469217.000000
470148.000000
471018.000000
471985.000000
472874.000000
473810.000000
474709.000000
475577.000000
476487.000000
477349.000000
478283.000000
479200.000000
480135.000000
481090.000000
481990.000000
482983.000000
483925.000000
484955.000000
485863.000000
486908.000000
488001.000000
488981.000000
489992.000000
490964.000000
491916.000000
492928.000000
493894.000000
494823.000000
495831.000000
496831.000000
497756.000000
498731.000000
499757.000000
500735.000000
501749.000000
502744.000000
503711.000000
504720.000000
505688.000000
506678.000000
507676.000000
508619.000000
509570.000000
510393.000000
511177.000000
511941.000000
512778.000000
513672.000000
514520.000000
515465.000000
516473.000000
517344.000000
518232.000000
519249.000000
520284.000000
521196.000000
522164.000000
523152.000000
524029.000000
524940.000000
526016.000000
526892.000000
527798.000000
528817.000000
529711.000000
530719.000000
531703.000000
532546.000000
533462.000000
534357.000000
535252.000000
536288.000000
537263.000000
538386.000000
539325.000000
540280.000000
541308.000000
542255.000000
543272.000000
544270.000000
545275.000000
546299.000000
547248.000000
548252.000000
549189.000000
550188.000000
551144.000000
552137.000000
553130.000000
554110.000000
555140.000000
556115.000000
557143.000000
558120.000000
559149.000000
560120.000000
561128.000000
562124.000000
563098.000000
564131.000000
565103.000000
566124.000000
567140.000000
568131.000000
569132.000000
570087.000000
571097.000000
572047.000000
573036.000000
573999.000000
574996.000000
576008.000000
576997.000000
578032.000000
578998.000000
580031.000000
580974.000000
581977.000000
582965.000000
583905.000000
584861.000000
585754.000000
586769.000000
587699.000000
588649.000000
589616.000000
590526.000000
591514.000000
592413.000000
593462.000000
594411.000000
595398.000000
596371.000000
597276.000000
598254.000000
599185.000000
600292.000000
601258.000000
602188.000000
603250.000000
604156.000000
605237.000000
606227.000000
607149.000000
608054.000000
608969.000000
609921.000000
610868.000000
611901.000000
612834.000000
613837.000000
614752.000000
615692.000000
616777.000000
617678.000000
618732.000000
619703.000000
620606.000000
621614.000000
622479.000000
623502.000000
624470.000000
625393.000000
626434.000000
627308.000000
628365.000000
629255.000000
630179.000000
631153.000000
632052.000000
633127.000000
634065.000000
635077.000000
636076.000000
637071.000000
638056.000000
639008.000000
640071.000000
641001.000000
642089.000000
643012.000000
644019.000000
644981.000000
645958.000000
647005.000000
647971.000000
648978.000000
649954.000000
650882.000000
651842.000000
652868.000000
653900.000000
654909.000000
655968.000000
656954.000000
657989.000000
659009.000000
659979.000000
660999.000000
662003.000000
662945.000000
663805.000000
664563.000000
665405.000000
666500.000000
667576.000000
668584.000000
669561.000000
670538.000000
671374.000000
672161.000000
672999.000000
674055.000000
674941.000000
675885.000000
676993.000000
678056.000000
678952.000000
679876.000000
680798.000000
681649.000000
682540.000000
683489.000000
684422.000000
685357.000000
686312.000000
687200.000000
688293.000000
689307.000000
690165.000000
691079.000000
692123.000000
693062.000000
694123.000000
695061.000000
695951.000000
696941.000000
697923.000000
698831.000000
699811.000000
700888.000000
701807.000000
702833.000000
703769.000000
704629.000000
705739.000000
706701.000000
707660.000000
708771.000000
709701.000000
710700.000000
711788.000000
712670.000000
713757.000000
714749.000000
715710.000000
716802.000000
717788.000000
718812.000000
719828.000000
720766.000000
721767.000000
722809.000000
723798.000000
724821.000000
725848.000000
726836.000000
727875.000000
728869.000000
729834.000000
730872.000000
731899.000000
732921.000000
733974.000000
734969.000000
736004.000000
737032.000000
738045.000000
739076.000000
740083.000000
741103.000000
742154.000000
743180.000000
744136.000000
745135.000000
746163.000000
747139.000000
748123.000000
749016.000000
749897.000000
750985.000000
751936.000000
752943.000000
753981.000000
754943.000000
756029.000000
756955.000000
757950.000000
758980.000000
759982.000000
761073.000000
762031.000000
763112.000000
764111.000000
765135.000000
766103.000000
767153.000000
768180.000000
769216.000000
770288.000000
771278.000000
772344.000000
773352.000000
774406.000000
775395.000000
776407.000000
777404.000000
778384.000000
779397.000000
780368.000000
781365.000000
782362.000000
783342.000000
784367.000000
785338.000000
786378.000000
787390.000000
788362.000000
789403.000000
790413.000000
791431.000000
792486.000000
793490.000000
794537.000000
795536.000000
796576.000000
797586.000000
798585.000000
799614.000000
800583.000000
801595.000000
802606.000000
803546.000000
804431.000000
805241.000000
806387.000000
807421.000000
808377.000000
809302.000000
810257.000000
811310.000000
812309.000000
813316.000000
814275.000000
815160.000000
816155.000000
817237.000000
818326.000000
819321.000000
820342.000000
821315.000000
822311.000000
823325.000000
824310.000000
825350.000000
826359.000000
827423.000000
828461.000000
829503.000000
830506.000000
831527.000000
832529.000000
833472.000000
834481.000000
835432.000000
836417.000000
837428.000000
838373.000000
839377.000000
840271.000000
841303.000000
842309.000000
843293.000000
844310.000000
845253.000000
846276.000000
847269.000000
848245.000000
849283.000000
850253.000000
851277.000000
852287.000000
853248.000000
854181.000000
855140.000000
856108.000000
857147.000000
858077.000000
859071.000000
860117.000000
861100.000000
862156.000000
863104.000000
864034.000000
864959.000000
865824.000000
866757.000000
867793.000000
868659.000000
869687.000000
870645.000000
871522.000000
872604.000000
873539.000000
874426.000000
875361.000000
876305.000000
877163.000000
878108.000000
879035.000000
879970.000000
880986.000000
881865.000000
882870.000000
883748.000000
884618.000000
885693.000000
886626.000000
887548.000000
888451.000000
889287.000000
890199.000000
891106.000000
891963.000000
892953.000000
894020.000000
894905.000000
895851.000000
896723.000000
897630.000000
898532.000000
899392.000000
900305.000000
901371.000000
902252.000000
903230.000000
904178.000000
905136.000000
906222.000000
907181.000000
908315.000000
909353.000000
910291.000000
911281.000000
