ECG (ms)
121.000000
936.000000
1783.000000
2667.000000
3834.000000
4893.000000
6033.000000
7159.000000
8137.000000
9223.000000
10314.000000
11301.000000
12202.000000
13142.000000
14142.000000
15053.000000
16064.000000
17253.000000
18266.000000
19150.000000
20096.000000
21218.000000
22137.000000
23043.000000
24106.000000
25088.000000
26233.000000
27385.000000
28318.000000
29210.000000
30150.000000
31223.000000
32184.000000
33173.000000
34392.000000
35346.000000
36443.000000
37466.000000
38383.000000
39510.000000
40620.000000
41546.000000
42532.000000
43535.000000
44426.000000
45396.000000
46555.000000
47550.000000
48469.000000
49402.000000
50551.000000
51533.000000
52587.000000
53686.000000
54631.000000
55581.000000
56475.000000
57339.000000
58619.000000
59816.000000
60842.000000
62091.000000
63296.000000
64349.000000
65508.000000
66601.000000
67528.000000
68491.000000
69657.000000
70612.000000
71603.000000
72754.000000
73685.000000
74595.000000
75521.000000
76671.000000
77645.000000
78636.000000
79566.000000
80435.000000
81467.000000
82598.000000
83514.000000
84467.000000
85529.000000
86504.000000
87423.000000
88532.000000
89677.000000
90617.000000
91504.000000
92436.000000
93341.000000
94522.000000
95705.000000
96709.000000
97705.000000
98671.000000
99551.000000
100440.000000
101442.000000
102463.000000
103535.000000
104608.000000
105512.000000
106353.000000
107247.000000
108489.000000
109465.000000
110355.000000
111381.000000
112533.000000
113559.000000
114685.000000
115694.000000
116594.000000
117567.000000
118695.000000
119705.000000
120593.000000
121530.000000
122448.000000
123272.000000
124064.000000
124907.000000
126176.000000
127125.000000
128096.000000
129221.000000
130347.000000
131261.000000
132147.000000
133165.000000
134336.000000
135307.000000
136376.000000
137512.000000
138630.000000
139586.000000
140609.000000
141667.000000
142606.000000
143532.000000
144494.000000
145500.000000
146390.000000
147277.000000
148410.000000
149388.000000
150273.000000
151073.000000
151900.000000
152752.000000
153625.000000
154490.000000
155262.000000
156152.000000
157293.000000
158398.000000
159445.000000
160294.000000
161112.000000
161956.000000
163199.000000
164221.000000
165133.000000
166042.000000
166973.000000
167931.000000
168761.000000
169552.000000
170350.000000
171508.000000
172456.000000
173376.000000
174394.000000
175507.000000
176539.000000
177441.000000
178390.000000
179390.000000
180420.000000
181376.000000
182341.000000
183320.000000
184288.000000
185188.000000
186154.000000
187191.000000
188203.000000
189113.000000
190124.000000
191165.000000
192135.000000
192989.000000
193756.000000
194472.000000
195192.000000
196573.000000
197747.000000
198960.000000
200148.000000
201303.000000
202422.000000
203386.000000
204287.000000
205235.000000
206458.000000
207654.000000
208674.000000
209688.000000
210727.000000
211757.000000
212678.000000
213592.000000
214457.000000
215330.000000
216178.000000
217128.000000
218316.000000
219385.000000
220302.000000
221194.000000
222130.000000
223148.000000
224030.000000
224971.000000
225967.000000
226927.000000
227806.000000
228659.000000
229533.000000
230383.000000
231292.000000
232170.000000
232952.000000
233717.000000
234462.000000
235246.000000
235995.000000
236746.000000
237594.000000
238389.000000
239253.000000
240158.000000
241044.000000
241860.000000
242645.000000
243427.000000
244293.000000
245454.000000
246388.000000
247314.000000
248247.000000
249286.000000
250324.000000
251312.000000
252285.000000
253308.000000
254225.000000
255122.000000
256001.000000
256917.000000
257781.000000
258750.000000
259626.000000
260445.000000
261313.000000
262572.000000
263451.000000
264331.000000
265224.000000
266169.000000
267117.000000
268399.000000
269454.000000
270413.000000
271499.000000
272623.000000
273627.000000
274630.000000
275554.000000
276425.000000
277311.000000
278226.000000
279101.000000
280039.000000
281129.000000
282080.000000
282880.000000
283635.000000
284349.000000
285102.000000
286423.000000
287560.000000
288522.000000
289430.000000
290469.000000
291434.000000
292338.000000
293232.000000
294176.000000
295342.000000
296381.000000
297482.000000
298595.000000
299667.000000
300641.000000
301575.000000
302545.000000
303473.000000
304436.000000
305323.000000
306354.000000
307414.000000
308336.000000
309133.000000
309865.000000
310616.000000
311998.000000
313106.000000
314178.000000
315318.000000
316354.000000
317342.000000
318459.000000
319593.000000
320546.000000
321447.000000
322344.000000
323312.000000
324194.000000
325072.000000
325897.000000
326661.000000
327439.000000
328290.000000
329222.000000
330501.000000
331582.000000
332469.000000
333421.000000
334495.000000
335426.000000
336318.000000
337462.000000
338590.000000
339539.000000
340421.000000
341330.000000
342361.000000
343455.000000
344393.000000
345379.000000
346385.000000
347347.000000
348235.000000
349200.000000
350315.000000
351163.000000
351954.000000
352805.000000
354082.000000
355057.000000
356064.000000
357202.000000
358295.000000
359216.000000
360187.000000
361172.000000
362099.000000
362963.000000
363875.000000
365027.000000
366083.000000
367008.000000
367990.000000
369037.000000
370110.000000
371087.000000
372186.000000
373270.000000
374183.000000
375105.000000
376127.000000
377111.000000
378027.000000
379293.000000
380299.000000
381133.000000
381954.000000
382813.000000
384079.000000
385041.000000
386254.000000
387385.000000
388360.000000
389421.000000
390445.000000
391337.000000
392311.000000
393308.000000
394393.000000
395351.000000
396394.000000
397477.000000
398416.000000
399267.000000
400124.000000
400931.000000
401731.000000
402528.000000
403954.000000
405186.000000
406292.000000
407519.000000
408647.000000
409650.000000
410560.000000
411381.000000
412283.000000
413136.000000
413980.000000
414828.000000
415767.000000
416580.000000
417549.000000
418696.000000
419623.000000
420495.000000
421359.000000
422220.000000
423307.000000
424338.000000
425362.000000
426360.000000
427242.000000
428140.000000
429008.000000
429890.000000
430671.000000
431411.000000
432126.000000
432854.000000
433688.000000
435019.000000
436144.000000
437285.000000
438488.000000
439617.000000
440614.000000
441589.000000
442677.000000
443659.000000
444631.000000
445691.000000
446666.000000
447668.000000
448607.000000
449457.000000
450251.000000
451085.000000
451946.000000
453086.000000
453976.000000
454872.000000
456090.000000
457125.000000
458034.000000
458886.000000
460114.000000
461145.000000
462220.000000
463365.000000
464493.000000
465332.000000
466167.000000
466986.000000
468128.000000
468994.000000
469825.000000
470659.000000
471493.000000
472304.000000
473163.000000
474275.000000
475286.000000
476150.000000
476997.000000
477889.000000
479102.000000
480175.000000
481217.000000
482296.000000
483341.000000
484424.000000
485563.000000
486565.000000
487503.000000
488510.000000
489643.000000
490714.000000
491573.000000
492355.000000
493153.000000
494526.000000
495613.000000
496465.000000
497342.000000
498386.000000
499553.000000
500435.000000
501232.000000
502347.000000
503315.000000
504492.000000
505660.000000
506612.000000
507519.000000
508447.000000
509530.000000
510462.000000
511326.000000
512689.000000
513961.000000
515122.000000
516215.000000
517307.000000
518423.000000
519460.000000
520487.000000
521448.000000
522307.000000
523249.000000
524444.000000
525566.000000
526554.000000
527627.000000
528637.000000
529586.000000
530503.000000
531378.000000
532371.000000
533354.000000
534195.000000
535042.000000
535867.000000
536699.000000
537585.000000
538636.000000
539745.000000
540713.000000
541690.000000
542544.000000
543492.000000
544773.000000
545924.000000
547064.000000
548263.000000
549406.000000
550427.000000
551414.000000
552492.000000
553528.000000
554392.000000
555172.000000
555951.000000
556833.000000
558277.000000
559420.000000
560687.000000
561782.000000
562701.000000
563805.000000
564869.000000
565755.000000
566592.000000
567390.000000
568169.000000
569159.000000
570481.000000
571469.000000
572352.000000
573356.000000
574558.000000
575594.000000
576520.000000
577519.000000
578539.000000
579546.000000
580519.000000
581585.000000
582564.000000
583573.000000
584598.000000
585521.000000
586463.000000
587461.000000
588416.000000
589345.000000
590368.000000
591466.000000
592511.000000
593401.000000
594187.000000
594967.000000
595769.000000
597017.000000
597887.000000
598773.000000
599728.000000
600702.000000
601575.000000
602442.000000
603318.000000
604202.000000
605065.000000
606153.000000
607133.000000
608110.000000
609152.000000
610227.000000
611205.000000
612198.000000
613196.000000
614150.000000
615067.000000
616104.000000
617146.000000
618067.000000
618948.000000
619842.000000
620796.000000
621646.000000
622457.000000
623269.000000
624625.000000
625844.000000
626976.000000
627974.000000
629013.000000
630014.000000
630899.000000
631705.000000
632486.000000
633265.000000
634230.000000
635102.000000
635922.000000
636917.000000
637794.000000
638638.000000
639932.000000
641040.000000
641987.000000
642899.000000
643858.000000
644820.000000
645866.000000
646784.000000
647576.000000
648316.000000
649031.000000
649791.000000
651189.000000
652393.000000
653639.000000
654844.000000
655969.000000
657060.000000
658016.000000
658992.000000
659998.000000
661038.000000
662199.000000
663298.000000
664345.000000
665290.000000
666129.000000
666893.000000
667648.000000
668464.000000
669808.000000
670916.000000
671897.000000
672744.000000
673546.000000
674306.000000
675048.000000
675833.000000
676723.000000
677891.000000
678989.000000
680045.000000
681031.000000
681863.000000
682651.000000
683513.000000
684457.000000
685400.000000
686304.000000
687153.000000
687952.000000
688732.000000
689501.000000
690329.000000
691329.000000
692284.000000
693128.000000
693951.000000
694782.000000
695687.000000
696567.000000
697402.000000
698156.000000
698901.000000
699607.000000
700378.000000
701687.000000
702775.000000
703775.000000
704778.000000
705751.000000
706686.000000
707559.000000
708446.000000
709376.000000
710228.000000
711038.000000
711847.000000
712719.000000
713854.000000
714745.000000
715596.000000
716478.000000
717621.000000
718610.000000
719510.000000
720312.000000
721172.000000
722429.000000
723572.000000
724688.000000
725749.000000
726786.000000
727736.000000
728539.000000
729287.000000
730034.000000
730801.000000
732227.000000
733521.000000
734741.000000
735855.000000
736855.000000
737830.000000
738748.000000
739542.000000
740348.000000
741228.000000
742490.000000
743371.000000
744211.000000
745037.000000
745930.000000
746816.000000
747646.000000
748414.000000
749256.000000
750533.000000
751550.000000
752825.000000
753913.000000
754847.000000
755685.000000
756490.000000
757329.000000
758301.000000
759614.000000
760843.000000
761865.000000
762898.000000
763881.000000
764781.000000
765779.000000
766944.000000
768050.000000
769040.000000
769914.000000
770776.000000
771761.000000
772945.000000
773990.000000
774968.000000
775873.000000
776713.000000
777531.000000
778342.000000
779133.000000
780431.000000
781507.000000
782533.000000
783456.000000
784340.000000
785351.000000
786504.000000
787662.000000
788795.000000
789837.000000
790762.000000
791597.000000
792386.000000
793152.000000
793997.000000
795343.000000
796445.000000
797387.000000
798299.000000
799215.000000
800200.000000
801270.000000
802303.000000
803319.000000
804303.000000
805204.000000
806024.000000
806822.000000
807594.000000
808334.000000
809073.000000
809831.000000
811175.000000
812320.000000
813484.000000
814625.000000
815712.000000
816727.000000
817597.000000
818487.000000
819424.000000
820512.000000
821618.000000
822716.000000
823770.000000
824774.000000
825608.000000
826374.000000
827103.000000
827827.000000
828653.000000
829880.000000
830893.000000
831931.000000
832997.000000
834005.000000
834971.000000
835840.000000
836735.000000
837655.000000
838566.000000
839437.000000
840388.000000
841594.000000
842651.000000
843487.000000
844298.000000
845082.000000
845885.000000
846717.000000
847506.000000
848279.000000
849090.000000
849996.000000
851039.000000
852110.000000
853063.000000
853938.000000
854830.000000
855757.000000
856678.000000
857660.000000
858647.000000
859619.000000
860690.000000
861687.000000
862573.000000
863437.000000
864351.000000
865195.000000
865974.000000
866725.000000
867575.000000
868856.000000
869720.000000
870514.000000
871440.000000
872283.000000
873246.000000
874467.000000
875659.000000
876684.000000
877603.000000
878482.000000
879480.000000
880484.000000
881409.000000
882323.000000
883266.000000
884087.000000
884959.000000
885943.000000
887171.000000
888085.000000
888884.000000
889680.000000
890473.000000
891317.000000
892107.000000
892867.000000
893642.000000
894493.000000
895361.000000
896197.000000
897156.000000
898322.000000
899358.000000
900322.000000
901308.000000
902282.000000
903182.000000
904103.000000
905098.000000
906007.000000
906812.000000
907560.000000
908296.000000
909066.000000
910447.000000
911674.000000
912823.000000
913808.000000
914741.000000
915716.000000
916722.000000
917682.000000
918602.000000
919453.000000
920261.000000
921095.000000
922172.000000
923364.000000
924275.000000
925071.000000
925853.000000
926639.000000
927669.000000
928759.000000
929925.000000
931054.000000
932099.000000
933184.000000
934214.000000
935174.000000
936000.000000
936844.000000
937742.000000
938971.000000
940108.000000
941098.000000
942055.000000
942935.000000
943718.000000
944449.000000
945160.000000
945892.000000
946839.000000
948261.000000
949569.000000
950861.000000
952063.000000
953239.000000
954206.000000
955222.000000
956318.000000
957465.000000
958588.000000
959617.000000
960532.000000
961333.000000
962095.000000
962831.000000
963671.000000
964593.000000
965421.000000
966209.000000
966977.000000
967779.000000
968751.000000
969755.000000
970732.000000
971606.000000
972427.000000
973230.000000
974057.000000
974881.000000
975749.000000
976682.000000
977512.000000
978323.000000
979188.000000
980050.000000
981115.000000
982025.000000
982888.000000
983718.000000
984603.000000
985665.000000
986718.000000
987720.000000
988588.000000
989370.000000
990112.000000
990831.000000
991573.000000
992851.000000
993918.000000
994840.000000
995696.000000
996466.000000
997247.000000
997987.000000
998771.000000
1000078.000000
1001188.000000
1002207.000000
1003029.000000
1003791.000000
1004563.000000
1005328.000000
1006095.000000
1006861.000000
1007861.000000
1008822.000000
1009656.000000
1010488.000000
1011481.000000
1012743.000000
1013839.000000
1014763.000000
1015814.000000
1016879.000000
1017877.000000
1018882.000000
1019872.000000
1020772.000000
1021556.000000
1022300.000000
1023036.000000
1023753.000000
1024513.000000
1025330.000000
1026245.000000
1027184.000000
1028064.000000
1028923.000000
1029986.000000
1031150.000000
1032239.000000
1033108.000000
1034000.000000
1035051.000000
1036177.000000
1037248.000000
1038252.000000
1039112.000000
1039915.000000
1040680.000000
1041431.000000
1042183.000000
1042980.000000
1044316.000000
1045390.000000
1046353.000000
1047285.000000
1048195.000000
1049140.000000
1050061.000000
1050952.000000
1051768.000000
1052625.000000
1053615.000000
1054682.000000
1055667.000000
1056534.000000
1057345.000000
1058142.000000
1058968.000000
1059855.000000
1060822.000000
1061803.000000
1062775.000000
1063732.000000
1064591.000000
1065371.000000
1066138.000000
1066872.000000
1067666.000000
1068583.000000
1069431.000000
1070255.000000
1071446.000000
1072619.000000
1073473.000000
1074335.000000
1075205.000000
1076060.000000
1076956.000000
1078285.000000
1079350.000000
1080363.000000
1081328.000000
1082452.000000
1083531.000000
1084474.000000
1085343.000000
1086153.000000
1087029.000000
1088492.000000
1089791.000000
1090785.000000
1091645.000000
1092455.000000
1093795.000000
1095089.000000
1096314.000000
1097502.000000
1098612.000000
1099463.000000
1100245.000000
1100990.000000
1101767.000000
1103111.000000
1104056.000000
1104977.000000
1105889.000000
1106785.000000
1107684.000000
1108583.000000
1109552.000000
1110762.000000
1111774.000000
1112690.000000
1113530.000000
1114405.000000
1115332.000000
1116263.000000
1117176.000000
1118056.000000
1118924.000000
1119786.000000
1120672.000000
1121515.000000
1122419.000000
1123268.000000
1124115.000000
1124980.000000
1126170.000000
1127275.000000
1128301.000000
1129290.000000
1130177.000000
1131001.000000
1131827.000000
1132807.000000
1133970.000000
1135125.000000
1136095.000000
1136899.000000
1137649.000000
1138361.000000
1139078.000000
1140503.000000
1141789.000000
1143049.000000
1144209.000000
1145513.000000
1146776.000000
1147930.000000
1148979.000000
1149995.000000
1151029.000000
1151903.000000
1152717.000000
1153528.000000
1154861.000000
1155975.000000
1157076.000000
1158053.000000
1159049.000000
1160111.000000
1161290.000000
1162445.000000
1163572.000000
1164709.000000
1165809.000000
1166876.000000
1167880.000000
1168890.000000
1169913.000000
1170851.000000
1171693.000000
1172460.000000
1173214.000000
1173984.000000
1175292.000000
1176155.000000
1177012.000000
1178163.000000
1179181.000000
1180117.000000
1181071.000000
1182027.000000
1183192.000000
1184071.000000
1184959.000000
1185760.000000
1186643.000000
1187898.000000
1188771.000000
1189591.000000
1190418.000000
1191313.000000
1192303.000000
1193230.000000
1194118.000000
