ECG (ms)
719.000000
1664.000000
2613.000000
3566.000000
4520.000000
5480.000000
6427.000000
7375.000000
8331.000000
9289.000000
10251.000000
11205.000000
12165.000000
13132.000000
14101.000000
14737.000000
15662.000000
16788.000000
17770.000000
18416.000000
19542.000000
20513.000000
21466.000000
22415.000000
23371.000000
24322.000000
25272.000000
26214.000000
27161.000000
28109.000000
29057.000000
30014.000000
30977.000000
31938.000000
32894.000000
33844.000000
34798.000000
35745.000000
36700.000000
37663.000000
38620.000000
39580.000000
40534.000000
41495.000000
42461.000000
43422.000000
43980.000000
45110.000000
46083.000000
47034.000000
47984.000000
48925.000000
49868.000000
50805.000000
51736.000000
52673.000000
53611.000000
54554.000000
55490.000000
56420.000000
57359.000000
58289.000000
59217.000000
60149.000000
61085.000000
62010.000000
62929.000000
63863.000000
64789.000000
65710.000000
66624.000000
67192.000000
68291.000000
69234.000000
70182.000000
71133.000000
72071.000000
73019.000000
73970.000000
74921.000000
75868.000000
76821.000000
77780.000000
78737.000000
79683.000000
80622.000000
81247.000000
82353.000000
83299.000000
84239.000000
85170.000000
86102.000000
87030.000000
87963.000000
88893.000000
89822.000000
90754.000000
91692.000000
92633.000000
93578.000000
94529.000000
95469.000000
96020.000000
96880.000000
98013.000000
98999.000000
99966.000000
100923.000000
101877.000000
102826.000000
103766.000000
104694.000000
105632.000000
106559.000000
107482.000000
108399.000000
109329.000000
110251.000000
111182.000000
112112.000000
113039.000000
113972.000000
114898.000000
115830.000000
116754.000000
117679.000000
118593.000000
119523.000000
120444.000000
121368.000000
122286.000000
123206.000000
124119.000000
125032.000000
125937.000000
126834.000000
127735.000000
128637.000000
129543.000000
130460.000000
131374.000000
132294.000000
133207.000000
134154.000000
135108.000000
136059.000000
137015.000000
137984.000000
138946.000000
139917.000000
140879.000000
141863.000000
142857.000000
143816.000000
144770.000000
145727.000000
146672.000000
147623.000000
148548.000000
149445.000000
150328.000000
151220.000000
152136.000000
153062.000000
154009.000000
154970.000000
155942.000000
156903.000000
157871.000000
158850.000000
159829.000000
160804.000000
161766.000000
162732.000000
163697.000000
164663.000000
165626.000000
166578.000000
167525.000000
168485.000000
169050.000000
169922.000000
171056.000000
172046.000000
173035.000000
174014.000000
174991.000000
175950.000000
176901.000000
177845.000000
178776.000000
179712.000000
180657.000000
181362.000000
182471.000000
183427.000000
184360.000000
185304.000000
186236.000000
187182.000000
188131.000000
189078.000000
190023.000000
190965.000000
191916.000000
192869.000000
193820.000000
194762.000000
195703.000000
196271.000000
197386.000000
198341.000000
199293.000000
200235.000000
201179.000000
202133.000000
203083.000000
204043.000000
204991.000000
205938.000000
206876.000000
207817.000000
208764.000000
209711.000000
210652.000000
211594.000000
212542.000000
213492.000000
214449.000000
215402.000000
216360.000000
217325.000000
218292.000000
219243.000000
219799.000000
220949.000000
221932.000000
222884.000000
223829.000000
224771.000000
225721.000000
226678.000000
227333.000000
228462.000000
229435.000000
230401.000000
231346.000000
232285.000000
233218.000000
234151.000000
235098.000000
236061.000000
237023.000000
237570.000000
238715.000000
239689.000000
240652.000000
241609.000000
242570.000000
243544.000000
244510.000000
245466.000000
246034.000000
247147.000000
248105.000000
249060.000000
249999.000000
250950.000000
251905.000000
252863.000000
253816.000000
254364.000000
255501.000000
256468.000000
257429.000000
258383.000000
259324.000000
260269.000000
261212.000000
262148.000000
263078.000000
264011.000000
264957.000000
265895.000000
266833.000000
267775.000000
268701.000000
269628.000000
270551.000000
271477.000000
272390.000000
273309.000000
274222.000000
275144.000000
276080.000000
277008.000000
277949.000000
278897.000000
279839.000000
280780.000000
281728.000000
282676.000000
283621.000000
284556.000000
285493.000000
286424.000000
287355.000000
288282.000000
289199.000000
290127.000000
291053.000000
291976.000000
292910.000000
293858.000000
294812.000000
295761.000000
296710.000000
297651.000000
298593.000000
299536.000000
300477.000000
301417.000000
302370.000000
303314.000000
304273.000000
305224.000000
306181.000000
307136.000000
308075.000000
309018.000000
309955.000000
310894.000000
311833.000000
312767.000000
313710.000000
314654.000000
315599.000000
316546.000000
317498.000000
318455.000000
319410.000000
320370.000000
321321.000000
322270.000000
323209.000000
324136.000000
325057.000000
325995.000000
326945.000000
327885.000000
328825.000000
329766.000000
330705.000000
331635.000000
332576.000000
333526.000000
334470.000000
335416.000000
336363.000000
337308.000000
338245.000000
339187.000000
340122.000000
341061.000000
342000.000000
342931.000000
343867.000000
344790.000000
345710.000000
346639.000000
347579.000000
348517.000000
349460.000000
350407.000000
351357.000000
352304.000000
353266.000000
354210.000000
355144.000000
356095.000000
357039.000000
357971.000000
358913.000000
359852.000000
360784.000000
361716.000000
362655.000000
363594.000000
364531.000000
365464.000000
366401.000000
367325.000000
368241.000000
369161.000000
370081.000000
370996.000000
371916.000000
372841.000000
373768.000000
374697.000000
375635.000000
376570.000000
377494.000000
378422.000000
379360.000000
379964.000000
381095.000000
382069.000000
383042.000000
384006.000000
384968.000000
385927.000000
386881.000000
387830.000000
388775.000000
389721.000000
390666.000000
391605.000000
392552.000000
393481.000000
394411.000000
395345.000000
396271.000000
397210.000000
398150.000000
399091.000000
400052.000000
401010.000000
401967.000000
402929.000000
403887.000000
404843.000000
405796.000000
406755.000000
407708.000000
408648.000000
409601.000000
410557.000000
411507.000000
412460.000000
413414.000000
414355.000000
415291.000000
416237.000000
417195.000000
418130.000000
419070.000000
420016.000000
420956.000000
421902.000000
422847.000000
423789.000000
424726.000000
425667.000000
426595.000000
427524.000000
428439.000000
429359.000000
430270.000000
431179.000000
432095.000000
433004.000000
433909.000000
434834.000000
435764.000000
436683.000000
437618.000000
438567.000000
439512.000000
440463.000000
441419.000000
442362.000000
443294.000000
444214.000000
445113.000000
446009.000000
446876.000000
447736.000000
448601.000000
449479.000000
450366.000000
451279.000000
452210.000000
453152.000000
454106.000000
455063.000000
456012.000000
456950.000000
457877.000000
458812.000000
459754.000000
460699.000000
461647.000000
462595.000000
463537.000000
464485.000000
465435.000000
466378.000000
467316.000000
468254.000000
469211.000000
470171.000000
471129.000000
472082.000000
473036.000000
473996.000000
474961.000000
475922.000000
476874.000000
477831.000000
478779.000000
479723.000000
480676.000000
481636.000000
482602.000000
483571.000000
484545.000000
485519.000000
486497.000000
487474.000000
488446.000000
489416.000000
490381.000000
491345.000000
492307.000000
492884.000000
494023.000000
495016.000000
496003.000000
496991.000000
497581.000000
498555.000000
499733.000000
500776.000000
501800.000000
502795.000000
503776.000000
504753.000000
505720.000000
506692.000000
507676.000000
508650.000000
509622.000000
510253.000000
511397.000000
512370.000000
513322.000000
514280.000000
515241.000000
516202.000000
517152.000000
518104.000000
519058.000000
520010.000000
520967.000000
521923.000000
522899.000000
523862.000000
524817.000000
525774.000000
526735.000000
527297.000000
528420.000000
529380.000000
530336.000000
531285.000000
532240.000000
533205.000000
534164.000000
535127.000000
536093.000000
537067.000000
538043.000000
539015.000000
539977.000000
540942.000000
541917.000000
542886.000000
543846.000000
544803.000000
545767.000000
546747.000000
547716.000000
548673.000000
549284.000000
550434.000000
551426.000000
552395.000000
553366.000000
554345.000000
555329.000000
556317.000000
557290.000000
558259.000000
559224.000000
560183.000000
561148.000000
562126.000000
563114.000000
564099.000000
565071.000000
566038.000000
566666.000000
567821.000000
568821.000000
569797.000000
570769.000000
571748.000000
572722.000000
573692.000000
574663.000000
575643.000000
576606.000000
577561.000000
578512.000000
579467.000000
580433.000000
581396.000000
582358.000000
583328.000000
584301.000000
585269.000000
586218.000000
587163.000000
588114.000000
589055.000000
590012.000000
590968.000000
591936.000000
592897.000000
593851.000000
594804.000000
595767.000000
596723.000000
597679.000000
598247.000000
599377.000000
600349.000000
601323.000000
602299.000000
603065.000000
604213.000000
605211.000000
606183.000000
607146.000000
608105.000000
609061.000000
610022.000000
610975.000000
611940.000000
612904.000000
613871.000000
614843.000000
615813.000000
616375.000000
617513.000000
618488.000000
619449.000000
620411.000000
620966.000000
622109.000000
623097.000000
624096.000000
625088.000000
626065.000000
627046.000000
628025.000000
628993.000000
629976.000000
630968.000000
631943.000000
632913.000000
633894.000000
634883.000000
635466.000000
636621.000000
637623.000000
638592.000000
639560.000000
640538.000000
641500.000000
642466.000000
643428.000000
644387.000000
644938.000000
646068.000000
647044.000000
648014.000000
648972.000000
649939.000000
650923.000000
651899.000000
652886.000000
653888.000000
654883.000000
655868.000000
656850.000000
657843.000000
658829.000000
659807.000000
660770.000000
661723.000000
662665.000000
663610.000000
664545.000000
665476.000000
666421.000000
667374.000000
668328.000000
669309.000000
670311.000000
671298.000000
672303.000000
673310.000000
674306.000000
675282.000000
676262.000000
677239.000000
678209.000000
679181.000000
680152.000000
681110.000000
682066.000000
683027.000000
683984.000000
684943.000000
685923.000000
686895.000000
687841.000000
688790.000000
689748.000000
690709.000000
691658.000000
692621.000000
693593.000000
694566.000000
695520.000000
696490.000000
697448.000000
698410.000000
699384.000000
700351.000000
701315.000000
702276.000000
703234.000000
704185.000000
705144.000000
706119.000000
707106.000000
708087.000000
709059.000000
710041.000000
711019.000000
711987.000000
712960.000000
713939.000000
714904.000000
715859.000000
716830.000000
717793.000000
718759.000000
719722.000000
720682.000000
721665.000000
722648.000000
723634.000000
724595.000000
725199.000000
726326.000000
727297.000000
728247.000000
729196.000000
730149.000000
731106.000000
732061.000000
733013.000000
733967.000000
734926.000000
735877.000000
736818.000000
737767.000000
738732.000000
739697.000000
740648.000000
741205.000000
742357.000000
743025.000000
744157.000000
745185.000000
746205.000000
747214.000000
748229.000000
749250.000000
750255.000000
751268.000000
752275.000000
753260.000000
754238.000000
755219.000000
755875.000000
757024.000000
758017.000000
758997.000000
759963.000000
760946.000000
761940.000000
762930.000000
763911.000000
764632.000000
765778.000000
766754.000000
767719.000000
768680.000000
769628.000000
770576.000000
771519.000000
772463.000000
773420.000000
774386.000000
775361.000000
776335.000000
777314.000000
778291.000000
779268.000000
779832.000000
780988.000000
781980.000000
782956.000000
783931.000000
784892.000000
785862.000000
786822.000000
787389.000000
788534.000000
789532.000000
790534.000000
791545.000000
792547.000000
793541.000000
794550.000000
795542.000000
796524.000000
797512.000000
798502.000000
799481.000000
800465.000000
801455.000000
802435.000000
803393.000000
804348.000000
805299.000000
806245.000000
807181.000000
808130.000000
809066.000000
810016.000000
810982.000000
811969.000000
812975.000000
813961.000000
814946.000000
815938.000000
816911.000000
817879.000000
818853.000000
819828.000000
820788.000000
821343.000000
822475.000000
823472.000000
824457.000000
825436.000000
826013.000000
827190.000000
828216.000000
829236.000000
830253.000000
831254.000000
831877.000000
833050.000000
834041.000000
835007.000000
835964.000000
836916.000000
837871.000000
838836.000000
839800.000000
840517.000000
841645.000000
842640.000000
843647.000000
844660.000000
845665.000000
846686.000000
847700.000000
848705.000000
849709.000000
850717.000000
851716.000000
852724.000000
853734.000000
854731.000000
855701.000000
856673.000000
857656.000000
858627.000000
859591.000000
860560.000000
861529.000000
862489.000000
863448.000000
864418.000000
865389.000000
866366.000000
867355.000000
868332.000000
869296.000000
870253.000000
871221.000000
872176.000000
873137.000000
874113.000000
875076.000000
876029.000000
876989.000000
877951.000000
878903.000000
879651.000000
880778.000000
881760.000000
882731.000000
883716.000000
884689.000000
885305.000000
886464.000000
887463.000000
888430.000000
889148.000000
890259.000000
891240.000000
892215.000000
893177.000000
894131.000000
895105.000000
896092.000000
896768.000000
897939.000000
898961.000000
899966.000000
