ECG (ms)
349.000000
1150.000000
1927.000000
2720.000000
3500.000000
4275.000000
5074.000000
5934.000000
6742.000000
7585.000000
8484.000000
9316.000000
10166.000000
11006.000000
11784.000000
12592.000000
13426.000000
14224.000000
15061.000000
15888.000000
16649.000000
17369.000000
18123.000000
18914.000000
19697.000000
20496.000000
21259.000000
22018.000000
22761.000000
23514.000000
24304.000000
25089.000000
25838.000000
26613.000000
27391.000000
28154.000000
28945.000000
29816.000000
30636.000000
31456.000000
32317.000000
33117.000000
33947.000000
34837.000000
35633.000000
36401.000000
37165.000000
37929.000000
38678.000000
39402.000000
40151.000000
41091.000000
42048.000000
42960.000000
43814.000000
44558.000000
45279.000000
46059.000000
46826.000000
47584.000000
48541.000000
49508.000000
50351.000000
51217.000000
52228.000000
53118.000000
54026.000000
55064.000000
56064.000000
56939.000000
57794.000000
58698.000000
59567.000000
60450.000000
61401.000000
62376.000000
63270.000000
64183.000000
65255.000000
66231.000000
67171.000000
68140.000000
69060.000000
69925.000000
70876.000000
71859.000000
72750.000000
73612.000000
74588.000000
75519.000000
76408.000000
77340.000000
78291.000000
79154.000000
80048.000000
81021.000000
81922.000000
82773.000000
83663.000000
84580.000000
85444.000000
86349.000000
87222.000000
88064.000000
88932.000000
89879.000000
90764.000000
91621.000000
92522.000000
93354.000000
94155.000000
95051.000000
95899.000000
96730.000000
97625.000000
98509.000000
99318.000000
100168.000000
101063.000000
101896.000000
102765.000000
103726.000000
104616.000000
105480.000000
106328.000000
107151.000000
108031.000000
108936.000000
109798.000000
110717.000000
111604.000000
112439.000000
113346.000000
114185.000000
115008.000000
115881.000000
116716.000000
117517.000000
118308.000000
119086.000000
119894.000000
120812.000000
121635.000000
122521.000000
123396.000000
124219.000000
125093.000000
125929.000000
126737.000000
127603.000000
128424.000000
129269.000000
130075.000000
130941.000000
131805.000000
132625.000000
133510.000000
134334.000000
135177.000000
136004.000000
136833.000000
137707.000000
138539.000000
139367.000000
140200.000000
140989.000000
141790.000000
142679.000000
143512.000000
144348.000000
145193.000000
146001.000000
146828.000000
147669.000000
148458.000000
149269.000000
150101.000000
150897.000000
151702.000000
152552.000000
153384.000000
154190.000000
154999.000000
155795.000000
156583.000000
157376.000000
158155.000000
158955.000000
159770.000000
160548.000000
161328.000000
162150.000000
162916.000000
163707.000000
164516.000000
165293.000000
166058.000000
166839.000000
167629.000000
168429.000000
169269.000000
170074.000000
170832.000000
171588.000000
172340.000000
173033.000000
173709.000000
174402.000000
175150.000000
175949.000000
176733.000000
177512.000000
178298.000000
179063.000000
179813.000000
180598.000000
181396.000000
182149.000000
182924.000000
183735.000000
184532.000000
185347.000000
186227.000000
187104.000000
187983.000000
188905.000000
189749.000000
190527.000000
191384.000000
192304.000000
193143.000000
193997.000000
194920.000000
195786.000000
196607.000000
197501.000000
198438.000000
199269.000000
200168.000000
201054.000000
201904.000000
202832.000000
203716.000000
204539.000000
205353.000000
206250.000000
207105.000000
207913.000000
208783.000000
209659.000000
210452.000000
211272.000000
212111.000000
212917.000000
213745.000000
214570.000000
215349.000000
216178.000000
216994.000000
217768.000000
218543.000000
219360.000000
220153.000000
220958.000000
221822.000000
222657.000000
223464.000000
224306.000000
225109.000000
225906.000000
226736.000000
227539.000000
228358.000000
229170.000000
229967.000000
230822.000000
231661.000000
232468.000000
233331.000000
234142.000000
234948.000000
235751.000000
236512.000000
237275.000000
238044.000000
238801.000000
239595.000000
240421.000000
241263.000000
242160.000000
242993.000000
243850.000000
244701.000000
245492.000000
246296.000000
247090.000000
247850.000000
248630.000000
249412.000000
250169.000000
250949.000000
251762.000000
252555.000000
253315.000000
254064.000000
254777.000000
255483.000000
256222.000000
256945.000000
257671.000000
258438.000000
259181.000000
259909.000000
260687.000000
261466.000000
262225.000000
263022.000000
263805.000000
264551.000000
265297.000000
266069.000000
266825.000000
267584.000000
268371.000000
269123.000000
269907.000000
270689.000000
271440.000000
272200.000000
272990.000000
273755.000000
274532.000000
275323.000000
276096.000000
276946.000000
277822.000000
278670.000000
279530.000000
280331.000000
281101.000000
281902.000000
282669.000000
283448.000000
284245.000000
285035.000000
285892.000000
286736.000000
287593.000000
288397.000000
289151.000000
289926.000000
290697.000000
291520.000000
292349.000000
293178.000000
294025.000000
294837.000000
295670.000000
296470.000000
297255.000000
298070.000000
298842.000000
299585.000000
300363.000000
301163.000000
301970.000000
302810.000000
303665.000000
304460.000000
305265.000000
306075.000000
306862.000000
307681.000000
308483.000000
309257.000000
310046.000000
310809.000000
311566.000000
312388.000000
313175.000000
313981.000000
314843.000000
315696.000000
316519.000000
317355.000000
318186.000000
318978.000000
319813.000000
320678.000000
321482.000000
322358.000000
323243.000000
324074.000000
324919.000000
325769.000000
326565.000000
327371.000000
328226.000000
329036.000000
329826.000000
330700.000000
331559.000000
332347.000000
333164.000000
334045.000000
334844.000000
335610.000000
336422.000000
337214.000000
337988.000000
338813.000000
339640.000000
340425.000000
341267.000000
342167.000000
342979.000000
343806.000000
344659.000000
345461.000000
346244.000000
347069.000000
347910.000000
348713.000000
349546.000000
350354.000000
351155.000000
351984.000000
352792.000000
353579.000000
354421.000000
355209.000000
356036.000000
356869.000000
357651.000000
358472.000000
359283.000000
360071.000000
360892.000000
361673.000000
362477.000000
363320.000000
364108.000000
364908.000000
365733.000000
366520.000000
367324.000000
368106.000000
368872.000000
369681.000000
370479.000000
371301.000000
372128.000000
372927.000000
373770.000000
374689.000000
375588.000000
376488.000000
377304.000000
378118.000000
379013.000000
379885.000000
380774.000000
381676.000000
382538.000000
383483.000000
384432.000000
385431.000000
386369.000000
387271.000000
388151.000000
389016.000000
389872.000000
390734.000000
391553.000000
392358.000000
393306.000000
394190.000000
395024.000000
395918.000000
396800.000000
397618.000000
398440.000000
399313.000000
400166.000000
401029.000000
401881.000000
402684.000000
403521.000000
404410.000000
405245.000000
406128.000000
406996.000000
407910.000000
408784.000000
409613.000000
410455.000000
411273.000000
412128.000000
413010.000000
413855.000000
414732.000000
415576.000000
416455.000000
417287.000000
418107.000000
418915.000000
419721.000000
420575.000000
421395.000000
422243.000000
423065.000000
423922.000000
424721.000000
425534.000000
426371.000000
427179.000000
428055.000000
428900.000000
429759.000000
430586.000000
431418.000000
432224.000000
433066.000000
433907.000000
434773.000000
435586.000000
436397.000000
437235.000000
438051.000000
438877.000000
439700.000000
440549.000000
441356.000000
442177.000000
442979.000000
443820.000000
444661.000000
445509.000000
446395.000000
447233.000000
448090.000000
448913.000000
449756.000000
450545.000000
451353.000000
452116.000000
452915.000000
453682.000000
454452.000000
455286.000000
456121.000000
456997.000000
457814.000000
458651.000000
459476.000000
460310.000000
461085.000000
461859.000000
462614.000000
463420.000000
464279.000000
465103.000000
465924.000000
466704.000000
467463.000000
468258.000000
469103.000000
469953.000000
470854.000000
471750.000000
472668.000000
473517.000000
474381.000000
475204.000000
475982.000000
476767.000000
477529.000000
478326.000000
479105.000000
479920.000000
480716.000000
481531.000000
482318.000000
483069.000000
483819.000000
484556.000000
485341.000000
486139.000000
487010.000000
487842.000000
488662.000000
489447.000000
490224.000000
490973.000000
491721.000000
492497.000000
493252.000000
494078.000000
494885.000000
495686.000000
496554.000000
497343.000000
498123.000000
498894.000000
499632.000000
500376.000000
501099.000000
501848.000000
502667.000000
503483.000000
504262.000000
505112.000000
505914.000000
506723.000000
507491.000000
508227.000000
508978.000000
509712.000000
510454.000000
511223.000000
511990.000000
512805.000000
513591.000000
514392.000000
515193.000000
515962.000000
516750.000000
517505.000000
518274.000000
519037.000000
519792.000000
520569.000000
521339.000000
522103.000000
522867.000000
523613.000000
524352.000000
525063.000000
525754.000000
526425.000000
527103.000000
527760.000000
528397.000000
529058.000000
529791.000000
530614.000000
531412.000000
532261.000000
533099.000000
533870.000000
534638.000000
535369.000000
536106.000000
536869.000000
537638.000000
538448.000000
539346.000000
540183.000000
541066.000000
541923.000000
542749.000000
543620.000000
544458.000000
545272.000000
546114.000000
546903.000000
547699.000000
548570.000000
549452.000000
550304.000000
551109.000000
551915.000000
552734.000000
553541.000000
554377.000000
555271.000000
556105.000000
556906.000000
557717.000000
558570.000000
559373.000000
560169.000000
560979.000000
561825.000000
562619.000000
563469.000000
564366.000000
565178.000000
565939.000000
566710.000000
567472.000000
568219.000000
569033.000000
569984.000000
570861.000000
571710.000000
572540.000000
573332.000000
574168.000000
575075.000000
575930.000000
576817.000000
577781.000000
578708.000000
579630.000000
580477.000000
581378.000000
582323.000000
583264.000000
584225.000000
585093.000000
585984.000000
586881.000000
587743.000000
588659.000000
589581.000000
590531.000000
591471.000000
592320.000000
593195.000000
594042.000000
594858.000000
595706.000000
596590.000000
597434.000000
598324.000000
599205.000000
600040.000000
600897.000000
601726.000000
602519.000000
603307.000000
604103.000000
604868.000000
605676.000000
606536.000000
607350.000000
608227.000000
609056.000000
609898.000000
610684.000000
611414.000000
612145.000000
612884.000000
613613.000000
614333.000000
615100.000000
615905.000000
616659.000000
617445.000000
618242.000000
618980.000000
619737.000000
620499.000000
621228.000000
621972.000000
622715.000000
623440.000000
624202.000000
624954.000000
625699.000000
626494.000000
627302.000000
628080.000000
628903.000000
629783.000000
630636.000000
631517.000000
632347.000000
633156.000000
633935.000000
634693.000000
635467.000000
636239.000000
637040.000000
637886.000000
