ECG (ms)
349.000000
1182.000000
1959.000000
2727.000000
3485.000000
4255.000000
5013.000000
5765.000000
6542.000000
7305.000000
8079.000000
8852.000000
9623.000000
10412.000000
11194.000000
11965.000000
12734.000000
13519.000000
14328.000000
15112.000000
15888.000000
16668.000000
17461.000000
18264.000000
19025.000000
19786.000000
20559.000000
21335.000000
22105.000000
22876.000000
23659.000000
24414.000000
25205.000000
26038.000000
26932.000000
27790.000000
28617.000000
29454.000000
30277.000000
31078.000000
31868.000000
32682.000000
33523.000000
34405.000000
35279.000000
36126.000000
36951.000000
37777.000000
38608.000000
39444.000000
40279.000000
41078.000000
41869.000000
42655.000000
43466.000000
44334.000000
45223.000000
46069.000000
46923.000000
47764.000000
48569.000000
49341.000000
50089.000000
50831.000000
51594.000000
52444.000000
53319.000000
54203.000000
55031.000000
55829.000000
56600.000000
57367.000000
58140.000000
58936.000000
59750.000000
60619.000000
61522.000000
62400.000000
63253.000000
64077.000000
64896.000000
65733.000000
66575.000000
67423.000000
68279.000000
69120.000000
69947.000000
70728.000000
71488.000000
72246.000000
73031.000000
73921.000000
74910.000000
75905.000000
76880.000000
77813.000000
78707.000000
79602.000000
80508.000000
81409.000000
82290.000000
83148.000000
83962.000000
84763.000000
85556.000000
86353.000000
87202.000000
88142.000000
89103.000000
90044.000000
90917.000000
91754.000000
92565.000000
93384.000000
94203.000000
95027.000000
95863.000000
96734.000000
97632.000000
98475.000000
99290.000000
100106.000000
100886.000000
101621.000000
102316.000000
102996.000000
103711.000000
104552.000000
105562.000000
106579.000000
107619.000000
108643.000000
109590.000000
110524.000000
111424.000000
112248.000000
113070.000000
113904.000000
114756.000000
115633.000000
116554.000000
117462.000000
118382.000000
119304.000000
120182.000000
121047.000000
121914.000000
122799.000000
123646.000000
124461.000000
125281.000000
126114.000000
126954.000000
127748.000000
128523.000000
129317.000000
130206.000000
131174.000000
132095.000000
133002.000000
133925.000000
134855.000000
135763.000000
136629.000000
137495.000000
138348.000000
139191.000000
139997.000000
140776.000000
141549.000000
142334.000000
143183.000000
144080.000000
144960.000000
145835.000000
146730.000000
147639.000000
148556.000000
149443.000000
150308.000000
151140.000000
151949.000000
152760.000000
153582.000000
154405.000000
155199.000000
155995.000000
156787.000000
157593.000000
158389.000000
159195.000000
160044.000000
160940.000000
161860.000000
162770.000000
163674.000000
164511.000000
165299.000000
166060.000000
166807.000000
167572.000000
168337.000000
169099.000000
169855.000000
170623.000000
171424.000000
172265.000000
173113.000000
173927.000000
174708.000000
175468.000000
176230.000000
176999.000000
177776.000000
178558.000000
179323.000000
180094.000000
180877.000000
181681.000000
182483.000000
183280.000000
184051.000000
184820.000000
185611.000000
186416.000000
187204.000000
187975.000000
188756.000000
189574.000000
190464.000000
191386.000000
192291.000000
193145.000000
194003.000000
194857.000000
195714.000000
196574.000000
197426.000000
198268.000000
199089.000000
199879.000000
200660.000000
201443.000000
202268.000000
203159.000000
204026.000000
204862.000000
205695.000000
206528.000000
207372.000000
208185.000000
209001.000000
209808.000000
210595.000000
211353.000000
212108.000000
212880.000000
213680.000000
214481.000000
215280.000000
216113.000000
216971.000000
217816.000000
218629.000000
219436.000000
220243.000000
221025.000000
221804.000000
222584.000000
223372.000000
224164.000000
224948.000000
225738.000000
226549.000000
227372.000000
228198.000000
228990.000000
229760.000000
230540.000000
231326.000000
232150.000000
232967.000000
233769.000000
234558.000000
235373.000000
236215.000000
237081.000000
237915.000000
238721.000000
239534.000000
240349.000000
241159.000000
241973.000000
242811.000000
243680.000000
244531.000000
245399.000000
246287.000000
247137.000000
247976.000000
248807.000000
249622.000000
250400.000000
251174.000000
251987.000000
252880.000000
253824.000000
254762.000000
255728.000000
256696.000000
257612.000000
258526.000000
259414.000000
260257.000000
261094.000000
261934.000000
262758.000000
263601.000000
264463.000000
265324.000000
266198.000000
267081.000000
267926.000000
268761.000000
269611.000000
270477.000000
271324.000000
272148.000000
272965.000000
273804.000000
274694.000000
275630.000000
276512.000000
277381.000000
278245.000000
279089.000000
279929.000000
280804.000000
281675.000000
282619.000000
283666.000000
284715.000000
285744.000000
286695.000000
287599.000000
288496.000000
289374.000000
290244.000000
291122.000000
291969.000000
292788.000000
293599.000000
294424.000000
295281.000000
296184.000000
297097.000000
297952.000000
298770.000000
299568.000000
300367.000000
301185.000000
302041.000000
302873.000000
303687.000000
304494.000000
305306.000000
306146.000000
307052.000000
307967.000000
308859.000000
309714.000000
310529.000000
311339.000000
312136.000000
312944.000000
313735.000000
314512.000000
315286.000000
316056.000000
316819.000000
317578.000000
318357.000000
319176.000000
320041.000000
320885.000000
321729.000000
322542.000000
323354.000000
324191.000000
325004.000000
325816.000000
326608.000000
327369.000000
328125.000000
328879.000000
329641.000000
330411.000000
331211.000000
332022.000000
332813.000000
333619.000000
334436.000000
335247.000000
336034.000000
336838.000000
337649.000000
338433.000000
339224.000000
340018.000000
340808.000000
341585.000000
342370.000000
343199.000000
344090.000000
344969.000000
345838.000000
346732.000000
347617.000000
348463.000000
349325.000000
350204.000000
351054.000000
351955.000000
352860.000000
353717.000000
354543.000000
355363.000000
356187.000000
357015.000000
357829.000000
358670.000000
359535.000000
360475.000000
361384.000000
362239.000000
363069.000000
363887.000000
364710.000000
365561.000000
366411.000000
367282.000000
368187.000000
369054.000000
369891.000000
370728.000000
371556.000000
372358.000000
373133.000000
373879.000000
374630.000000
375444.000000
376372.000000
377383.000000
378334.000000
379276.000000
380232.000000
381164.000000
382049.000000
382884.000000
383704.000000
384519.000000
385339.000000
386152.000000
386942.000000
387734.000000
388556.000000
389440.000000
390301.000000
391150.000000
392004.000000
392875.000000
393696.000000
394492.000000
395269.000000
396047.000000
396840.000000
397655.000000
398461.000000
399270.000000
400110.000000
400953.000000
401781.000000
402577.000000
403349.000000
404115.000000
404889.000000
405695.000000
406546.000000
407396.000000
408274.000000
409165.000000
410062.000000
410923.000000
411763.000000
412610.000000
413455.000000
414307.000000
415145.000000
415949.000000
416734.000000
417522.000000
418340.000000
419213.000000
420090.000000
420968.000000
421863.000000
422755.000000
423598.000000
424446.000000
425299.000000
426143.000000
426978.000000
427825.000000
428678.000000
429511.000000
430363.000000
431206.000000
432066.000000
432972.000000
433826.000000
434635.000000
435429.000000
436250.000000
437144.000000
438082.000000
439013.000000
439938.000000
440824.000000
441670.000000
442493.000000
443310.000000
444137.000000
445000.000000
445867.000000
446730.000000
447548.000000
448332.000000
449108.000000
449898.000000
450719.000000
451578.000000
452444.000000
453276.000000
454066.000000
454841.000000
455630.000000
456428.000000
457247.000000
458079.000000
458887.000000
459679.000000
460451.000000
461240.000000
462048.000000
462879.000000
463731.000000
464546.000000
465335.000000
466114.000000
466903.000000
467737.000000
468569.000000
469396.000000
470259.000000
471144.000000
472060.000000
472935.000000
473792.000000
474654.000000
475503.000000
476344.000000
477153.000000
477928.000000
478679.000000
479437.000000
480221.000000
481041.000000
481899.000000
482748.000000
483575.000000
484391.000000
485224.000000
486049.000000
486871.000000
487664.000000
488436.000000
489209.000000
490004.000000
490806.000000
491610.000000
492388.000000
493156.000000
493937.000000
494740.000000
495569.000000
496383.000000
497252.000000
498178.000000
499111.000000
499986.000000
500836.000000
501697.000000
502610.000000
503546.000000
504460.000000
505338.000000
506214.000000
507086.000000
507950.000000
508773.000000
509545.000000
510294.000000
511029.000000
511806.000000
512643.000000
513582.000000
514597.000000
515596.000000
516606.000000
517586.000000
518503.000000
519391.000000
520248.000000
521080.000000
521891.000000
522687.000000
523497.000000
524282.000000
525045.000000
525802.000000
526521.000000
527269.000000
528045.000000
528814.000000
529587.000000
530366.000000
531176.000000
531973.000000
532747.000000
533545.000000
534345.000000
535131.000000
535862.000000
536561.000000
537263.000000
537969.000000
538689.000000
539437.000000
540228.000000
541006.000000
541764.000000
542500.000000
543234.000000
543977.000000
544746.000000
545546.000000
546365.000000
547151.000000
547921.000000
548693.000000
549473.000000
550265.000000
551070.000000
551852.000000
552624.000000
553401.000000
554188.000000
555009.000000
555827.000000
556624.000000
557407.000000
558199.000000
559002.000000
559846.000000
560706.000000
561574.000000
562465.000000
563353.000000
564207.000000
565080.000000
565972.000000
566832.000000
567663.000000
568476.000000
569292.000000
570122.000000
570988.000000
571878.000000
572733.000000
573617.000000
574529.000000
575422.000000
576335.000000
577273.000000
578201.000000
579083.000000
579956.000000
580791.000000
581581.000000
582401.000000
583308.000000
584345.000000
585352.000000
586380.000000
587451.000000
588506.000000
589468.000000
590400.000000
591315.000000
592203.000000
593046.000000
593901.000000
594770.000000
595639.000000
596517.000000
597412.000000
598326.000000
599199.000000
600075.000000
600953.000000
601821.000000
602659.000000
603513.000000
604381.000000
605225.000000
606061.000000
606908.000000
607738.000000
608531.000000
609311.000000
610094.000000
610884.000000
611663.000000
612438.000000
613242.000000
614049.000000
614959.000000
615901.000000
616838.000000
617794.000000
618690.000000
619519.000000
620301.000000
621053.000000
621798.000000
622548.000000
623320.000000
624156.000000
625126.000000
626126.000000
627087.000000
628041.000000
628950.000000
629782.000000
630562.000000
631355.000000
632139.000000
632968.000000
633797.000000
634623.000000
635467.000000
636310.000000
637143.000000
637984.000000
638820.000000
639636.000000
640441.000000
641265.000000
642111.000000
642928.000000
643726.000000
644532.000000
645348.000000
646141.000000
646906.000000
647667.000000
648427.000000
649226.000000
650034.000000
650870.000000
651743.000000
652646.000000
653497.000000
654346.000000
655202.000000
656024.000000
656821.000000
657622.000000
658432.000000
659246.000000
660065.000000
660866.000000
661682.000000
662495.000000
663328.000000
664155.000000
664990.000000
665850.000000
666708.000000
667526.000000
668331.000000
669146.000000
669970.000000
670786.000000
671589.000000
672422.000000
673267.000000
674151.000000
675020.000000
675892.000000
676794.000000
677703.000000
678575.000000
679446.000000
680317.000000
681156.000000
681979.000000
682800.000000
683613.000000
684407.000000
685229.000000
686076.000000
686926.000000
687789.000000
688690.000000
689586.000000
690438.000000
691289.000000
692131.000000
692959.000000
693783.000000
694618.000000
695459.000000
696282.000000
697130.000000
698007.000000
698851.000000
699685.000000
700517.000000
701343.000000
702170.000000
702949.000000
703743.000000
704501.000000
705242.000000
706008.000000
706854.000000
707714.000000
708602.000000
709526.000000
710456.000000
711329.000000
712177.000000
713028.000000
713866.000000
714658.000000
715434.000000
716226.000000
717054.000000
717911.000000
718749.000000
719546.000000
720312.000000
721103.000000
721904.000000
722729.000000
723553.000000
724336.000000
725114.000000
725889.000000
726672.000000
727436.000000
728215.000000
729011.000000
729833.000000
730631.000000
731416.000000
732206.000000
733001.000000
733752.000000
734479.000000
735215.000000
735938.000000
736696.000000
737535.000000
738361.000000
739173.000000
740001.000000
740849.000000
741730.000000
742561.000000
743350.000000
744120.000000
744891.000000
745662.000000
746430.000000
747182.000000
747957.000000
748741.000000
749543.000000
750323.000000
751093.000000
751892.000000
752715.000000
753579.000000
754401.000000
755196.000000
755994.000000
756810.000000
757616.000000
758397.000000
759185.000000
759963.000000
760777.000000
761596.000000
762390.000000
763194.000000
764008.000000
764868.000000
765717.000000
766524.000000
767329.000000
768099.000000
768844.000000
769595.000000
770412.000000
771349.000000
772312.000000
773283.000000
774275.000000
775214.000000
776143.000000
777067.000000
777973.000000
778833.000000
779683.000000
780547.000000
781453.000000
782340.000000
783237.000000
784130.000000
784992.000000
785801.000000
786593.000000
787392.000000
788218.000000
789118.000000
790032.000000
790895.000000
791757.000000
792612.000000
793479.000000
794320.000000
795165.000000
795967.000000
796742.000000
797508.000000
798274.000000
799043.000000
799803.000000
800579.000000
801372.000000
802174.000000
802958.000000
803769.000000
804603.000000
805410.000000
806229.000000
807062.000000
807879.000000
808692.000000
809502.000000
810293.000000
811087.000000
811875.000000
812641.000000
813399.000000
814164.000000
814949.000000
815726.000000
816509.000000
817303.000000
818098.000000
818860.000000
819621.000000
820383.000000
821150.000000
821898.000000
822662.000000
823456.000000
824287.000000
825098.000000
825915.000000
826739.000000
827549.000000
828341.000000
829145.000000
829946.000000
830743.000000
831523.000000
832326.000000
833168.000000
834008.000000
834826.000000
835659.000000
836491.000000
837290.000000
838087.000000
838886.000000
839703.000000
840476.000000
841251.000000
842025.000000
842839.000000
843659.000000
844452.000000
845270.000000
846122.000000
847022.000000
847900.000000
848793.000000
849703.000000
850575.000000
851417.000000
852279.000000
853145.000000
853950.000000
854749.000000
855552.000000
856386.000000
857273.000000
858131.000000
858991.000000
859876.000000
860790.000000
861677.000000
862598.000000
863544.000000
864452.000000
865309.000000
866130.000000
866905.000000
867664.000000
868440.000000
869241.000000
870105.000000
871040.000000
871976.000000
872876.000000
873788.000000
874695.000000
875557.000000
876387.000000
877217.000000
878052.000000
878892.000000
879708.000000
880503.000000
881311.000000
882136.000000
882978.000000
883784.000000
884580.000000
885382.000000
886159.000000
886908.000000
887623.000000
888319.000000
889022.000000
889739.000000
890511.000000
891388.000000
892362.000000
893344.000000
894265.000000
895117.000000
895942.000000
896754.000000
897582.000000
898440.000000
899315.000000
900161.000000
900979.000000
901781.000000
902582.000000
903395.000000
904237.000000
905085.000000
905924.000000
906757.000000
907626.000000
908533.000000
909462.000000
910377.000000
911246.000000
912094.000000
912931.000000
913761.000000
914589.000000
915411.000000
916193.000000
916954.000000
917730.000000
918580.000000
919508.000000
920385.000000
921237.000000
922049.000000
922865.000000
923670.000000
924487.000000
925293.000000
926074.000000
926866.000000
927646.000000
928439.000000
929229.000000
930028.000000
930820.000000
931583.000000
932360.000000
933158.000000
933962.000000
934747.000000
935533.000000
936341.000000
937146.000000
937943.000000
938714.000000
939452.000000
940171.000000
940906.000000
941684.000000
942583.000000
943507.000000
944421.000000
945344.000000
946266.000000
947154.000000
948001.000000
948855.000000
949712.000000
950585.000000
951422.000000
952258.000000
953084.000000
953890.000000
954645.000000
955402.000000
956167.000000
956997.000000
957846.000000
958769.000000
959762.000000
960744.000000
961688.000000
962628.000000
963560.000000
964435.000000
965287.000000
966130.000000
966938.000000
967707.000000
968464.000000
969216.000000
969966.000000
970750.000000
971499.000000
972293.000000
973146.000000
974082.000000
974978.000000
975808.000000
976562.000000
977323.000000
978075.000000
978822.000000
979597.000000
980377.000000
981184.000000
981964.000000
982754.000000
983543.000000
984307.000000
985061.000000
985821.000000
986583.000000
987375.000000
988167.000000
988941.000000
989732.000000
990535.000000
991340.000000
992111.000000
992860.000000
993619.000000
994391.000000
995202.000000
996012.000000
996810.000000
997638.000000
998479.000000
999302.000000
1000098.000000
1000922.000000
1001768.000000
1002593.000000
1003394.000000
1004210.000000
1005047.000000
1005869.000000
1006708.000000
1007594.000000
1008468.000000
1009296.000000
1010132.000000
1010969.000000
1011826.000000
1012636.000000
1013438.000000
1014249.000000
1015101.000000
1015945.000000
1016792.000000
1017654.000000
1018500.000000
1019325.000000
1020156.000000
1020980.000000
1021779.000000
1022606.000000
1023461.000000
1024334.000000
1025201.000000
1026101.000000
1027032.000000
1027916.000000
1028803.000000
1029695.000000
1030539.000000
1031370.000000
1032195.000000
1033024.000000
1033791.000000
1034514.000000
1035224.000000
1035952.000000
1036804.000000
1037729.000000
1038730.000000
1039753.000000
1040737.000000
1041699.000000
1042653.000000
1043601.000000
1044531.000000
1045392.000000
1046198.000000
1047001.000000
1047821.000000
1048684.000000
1049557.000000
1050394.000000
1051247.000000
1052101.000000
1052952.000000
1053761.000000
1054545.000000
1055330.000000
1056146.000000
1057015.000000
1057939.000000
1058841.000000
1059694.000000
1060559.000000
1061429.000000
1062301.000000
1063144.000000
1063974.000000
1064804.000000
1065636.000000
1066451.000000
1067251.000000
1068057.000000
1068873.000000
1069730.000000
1070578.000000
1071423.000000
1072275.000000
1073125.000000
1073934.000000
1074754.000000
1075590.000000
1076424.000000
1077221.000000
1078028.000000
1078833.000000
1079626.000000
1080394.000000
1081173.000000
1081965.000000
1082774.000000
1083563.000000
1084366.000000
1085191.000000
1086045.000000
1086865.000000
1087706.000000
1088564.000000
1089392.000000
1090216.000000
1091037.000000
1091852.000000
1092637.000000
1093427.000000
1094221.000000
1095036.000000
1095825.000000
1096631.000000
1097456.000000
1098293.000000
1099103.000000
1099864.000000
1100617.000000
1101363.000000
1102098.000000
1102829.000000
1103530.000000
1104246.000000
1104982.000000
1105735.000000
1106518.000000
1107348.000000
1108163.000000
1108979.000000
1109802.000000
1110650.000000
1111511.000000
1112353.000000
1113157.000000
1113948.000000
1114730.000000
1115524.000000
1116315.000000
1117150.000000
1118043.000000
1118945.000000
1119826.000000
1120713.000000
1121606.000000
1122415.000000
1123160.000000
1123879.000000
1124592.000000
1125401.000000
1126421.000000
1127402.000000
1128406.000000
1129451.000000
1130504.000000
1131542.000000
1132595.000000
1133566.000000
1134450.000000
1135280.000000
1136108.000000
1136953.000000
1137771.000000
1138605.000000
1139467.000000
1140356.000000
1141203.000000
1142074.000000
1142951.000000
1143802.000000
1144629.000000
1145479.000000
1146333.000000
1147175.000000
1148039.000000
1148966.000000
1149887.000000
1150728.000000
1151506.000000
1152264.000000
1153037.000000
1153885.000000
1154797.000000
1155734.000000
1156723.000000
1157744.000000
1158690.000000
1159627.000000
1160557.000000
1161437.000000
1162271.000000
1163098.000000
1163917.000000
1164739.000000
1165561.000000
1166365.000000
1167179.000000
1168010.000000
1168844.000000
1169662.000000
1170466.000000
1171293.000000
1172111.000000
1172942.000000
1173764.000000
1174610.000000
1175450.000000
1176268.000000
1177105.000000
1177966.000000
1178813.000000
1179663.000000
1180508.000000
1181333.000000
1182151.000000
1182960.000000
1183782.000000
1184588.000000
1185374.000000
1186161.000000
1186977.000000
1187868.000000
1188731.000000
1189554.000000
1190363.000000
1191217.000000
1192107.000000
1192968.000000
1193801.000000
1194660.000000
1195541.000000
1196418.000000
1197256.000000
1198086.000000
1198922.000000
1199808.000000
1200712.000000
1201570.000000
1202420.000000
1203251.000000
1204012.000000
