ECG (ms)
284.000000
1133.000000
2011.000000
2937.000000
3914.000000
4891.000000
5810.000000
6681.000000
7531.000000
8372.000000
9227.000000
10087.000000
10961.000000
11813.000000
12655.000000
13533.000000
14479.000000
15442.000000
16378.000000
17228.000000
18044.000000
18832.000000
19629.000000
20439.000000
21343.000000
22309.000000
23265.000000
24181.000000
25036.000000
25828.000000
26584.000000
27325.000000
28100.000000
28987.000000
29922.000000
30935.000000
31893.000000
32815.000000
33675.000000
34486.000000
35273.000000
36055.000000
36881.000000
37756.000000
38698.000000
39640.000000
40558.000000
41421.000000
42228.000000
43026.000000
43837.000000
44675.000000
45522.000000
46386.000000
47240.000000
48084.000000
48890.000000
49669.000000
50437.000000
51211.000000
52008.000000
52821.000000
53633.000000
54430.000000
55206.000000
55971.000000
56724.000000
57473.000000
58242.000000
59054.000000
59852.000000
60622.000000
61376.000000
62144.000000
62906.000000
63665.000000
64456.000000
65277.000000
66132.000000
66984.000000
67814.000000
68627.000000
69410.000000
70166.000000
70912.000000
71692.000000
72538.000000
73418.000000
74295.000000
75161.000000
75983.000000
76772.000000
77535.000000
78300.000000
79087.000000
79924.000000
80782.000000
81641.000000
82453.000000
83245.000000
84020.000000
84803.000000
85624.000000
86500.000000
87381.000000
88260.000000
89127.000000
89922.000000
90692.000000
91449.000000
92225.000000
93037.000000
93881.000000
94734.000000
95564.000000
96376.000000
97142.000000
97881.000000
98614.000000
99380.000000
100242.000000
101123.000000
102012.000000
102884.000000
103708.000000
104483.000000
105227.000000
105969.000000
106723.000000
107518.000000
108415.000000
109347.000000
110266.000000
111177.000000
112022.000000
112796.000000
113553.000000
114336.000000
115223.000000
116173.000000
117175.000000
118152.000000
119067.000000
119933.000000
120766.000000
121593.000000
122442.000000
123312.000000
124201.000000
125111.000000
125982.000000
126813.000000
127659.000000
128539.000000
129444.000000
130370.000000
131286.000000
132211.000000
133094.000000
133925.000000
134746.000000
135591.000000
136490.000000
137417.000000
138287.000000
139123.000000
139959.000000
140840.000000
141768.000000
142711.000000
143635.000000
144509.000000
145349.000000
146160.000000
146969.000000
147804.000000
148700.000000
149609.000000
150462.000000
151283.000000
152089.000000
152908.000000
153747.000000
154611.000000
155485.000000
156294.000000
157086.000000
157876.000000
158673.000000
159464.000000
160253.000000
161033.000000
161799.000000
162598.000000
163406.000000
164230.000000
165041.000000
165820.000000
166636.000000
167463.000000
168282.000000
169057.000000
169804.000000
170518.000000
171224.000000
171921.000000
172628.000000
173367.000000
174204.000000
175012.000000
175820.000000
176667.000000
177476.000000
178297.000000
179198.000000
180121.000000
181034.000000
181890.000000
182708.000000
183509.000000
184330.000000
185267.000000
186174.000000
187086.000000
187957.000000
188786.000000
189569.000000
190358.000000
191151.000000
191962.000000
192804.000000
193621.000000
194430.000000
195263.000000
196127.000000
196986.000000
197821.000000
198613.000000
199406.000000
200212.000000
201008.000000
201812.000000
202594.000000
203386.000000
204174.000000
204971.000000
205755.000000
206531.000000
207349.000000
208195.000000
209017.000000
209848.000000
210649.000000
211416.000000
212190.000000
212993.000000
213812.000000
214636.000000
215452.000000
216240.000000
216995.000000
217756.000000
218570.000000
219401.000000
220242.000000
221040.000000
221828.000000
222570.000000
223304.000000
224078.000000
224864.000000
225691.000000
226463.000000
227204.000000
227991.000000
228853.000000
229735.000000
230652.000000
231526.000000
232428.000000
233372.000000
234257.000000
235107.000000
235989.000000
236894.000000
237818.000000
238733.000000
239589.000000
240430.000000
241335.000000
242309.000000
243247.000000
244176.000000
245160.000000
246143.000000
247029.000000
247941.000000
248919.000000
249865.000000
250723.000000
251582.000000
252469.000000
253405.000000
254347.000000
255260.000000
256132.000000
257001.000000
257887.000000
258777.000000
259652.000000
260513.000000
261355.000000
262225.000000
263105.000000
263994.000000
264836.000000
265700.000000
266538.000000
267338.000000
268134.000000
268952.000000
269784.000000
270631.000000
271457.000000
272251.000000
273036.000000
273799.000000
274543.000000
275272.000000
275999.000000
276747.000000
277467.000000
278229.000000
279025.000000
279847.000000
280686.000000
281480.000000
282294.000000
283144.000000
283957.000000
284732.000000
285499.000000
286278.000000
287075.000000
287823.000000
288567.000000
289307.000000
290068.000000
290821.000000
291574.000000
292353.000000
293131.000000
293905.000000
294664.000000
295439.000000
296208.000000
296989.000000
297761.000000
298546.000000
299337.000000
300123.000000
300896.000000
301665.000000
302461.000000
303275.000000
304033.000000
304783.000000
305529.000000
306272.000000
307006.000000
307710.000000
308416.000000
309136.000000
309900.000000
310718.000000
311524.000000
312313.000000
313059.000000
313823.000000
314583.000000
315356.000000
316085.000000
316797.000000
317573.000000
318361.000000
319165.000000
319960.000000
320787.000000
321682.000000
322605.000000
323412.000000
324170.000000
324937.000000
325716.000000
326522.000000
327295.000000
328075.000000
328914.000000
329746.000000
330517.000000
331261.000000
332043.000000
332844.000000
333611.000000
334349.000000
335131.000000
335947.000000
336740.000000
337501.000000
338253.000000
339021.000000
339785.000000
340517.000000
341300.000000
342072.000000
342858.000000
343604.000000
344370.000000
345204.000000
346142.000000
346981.000000
347835.000000
348711.000000
349573.000000
350384.000000
351232.000000
352119.000000
352964.000000
353843.000000
354685.000000
355504.000000
356276.000000
357096.000000
357999.000000
358847.000000
359765.000000
360762.000000
361669.000000
362562.000000
363484.000000
364364.000000
365213.000000
366074.000000
366920.000000
367756.000000
368646.000000
369560.000000
370393.000000
371262.000000
372144.000000
373037.000000
373871.000000
374731.000000
375620.000000
376476.000000
377274.000000
378104.000000
378964.000000
379752.000000
380519.000000
381310.000000
382088.000000
382876.000000
383747.000000
384728.000000
385618.000000
386504.000000
387400.000000
388233.000000
389061.000000
389942.000000
390810.000000
391620.000000
392432.000000
393263.000000
394114.000000
394962.000000
395845.000000
396707.000000
397545.000000
398428.000000
399286.000000
400101.000000
400934.000000
401757.000000
402548.000000
403381.000000
404228.000000
405049.000000
405842.000000
406661.000000
407478.000000
408262.000000
409052.000000
409846.000000
410608.000000
411354.000000
412109.000000
412860.000000
413585.000000
414310.000000
415034.000000
415764.000000
416515.000000
417297.000000
418048.000000
418854.000000
419693.000000
420534.000000
421401.000000
422271.000000
423077.000000
423859.000000
424649.000000
425524.000000
426472.000000
427335.000000
428212.000000
429146.000000
430090.000000
430984.000000
431862.000000
432771.000000
433672.000000
434507.000000
435331.000000
436194.000000
437058.000000
437879.000000
438688.000000
439500.000000
440287.000000
441076.000000
441869.000000
442677.000000
443452.000000
444246.000000
445046.000000
445828.000000
446598.000000
447408.000000
448258.000000
449094.000000
449889.000000
450702.000000
451529.000000
452341.000000
453131.000000
453894.000000
454615.000000
455315.000000
456057.000000
456893.000000
457776.000000
458651.000000
459491.000000
460356.000000
461206.000000
461999.000000
462786.000000
463593.000000
464432.000000
465238.000000
466091.000000
467012.000000
467932.000000
468786.000000
469644.000000
470490.000000
471327.000000
472136.000000
472967.000000
473837.000000
474726.000000
475581.000000
476448.000000
477341.000000
478184.000000
479030.000000
479893.000000
480765.000000
481598.000000
482471.000000
483371.000000
484212.000000
485036.000000
485866.000000
486710.000000
487520.000000
488353.000000
489245.000000
490123.000000
490953.000000
491794.000000
492611.000000
493393.000000
494185.000000
494968.000000
495723.000000
496465.000000
497228.000000
498023.000000
498813.000000
499624.000000
500461.000000
501293.000000
502085.000000
502875.000000
503665.000000
504436.000000
505195.000000
505980.000000
506803.000000
507604.000000
508388.000000
509213.000000
510053.000000
510883.000000
511732.000000
512564.000000
513342.000000
514107.000000
514869.000000
515651.000000
516410.000000
517204.000000
518036.000000
518851.000000
519637.000000
520444.000000
521261.000000
522048.000000
522842.000000
523637.000000
524413.000000
525179.000000
525976.000000
526791.000000
527606.000000
528417.000000
529229.000000
529996.000000
530742.000000
531464.000000
532188.000000
532957.000000
533850.000000
534733.000000
535645.000000
536500.000000
537353.000000
538205.000000
539030.000000
539858.000000
540675.000000
541469.000000
542267.000000
543028.000000
543783.000000
544549.000000
545304.000000
546031.000000
546794.000000
547544.000000
548334.000000
549149.000000
549945.000000
550757.000000
551596.000000
552409.000000
553210.000000
554034.000000
554844.000000
555644.000000
556461.000000
557280.000000
558075.000000
558905.000000
559812.000000
560714.000000
561585.000000
562483.000000
563346.000000
564217.000000
565120.000000
565975.000000
566824.000000
567715.000000
568626.000000
569488.000000
570284.000000
571092.000000
571909.000000
572747.000000
573554.000000
574376.000000
575235.000000
576093.000000
576904.000000
577734.000000
578565.000000
579373.000000
580153.000000
580941.000000
581746.000000
582556.000000
583345.000000
584171.000000
585005.000000
585834.000000
586612.000000
587405.000000
588218.000000
588996.000000
589767.000000
590592.000000
591472.000000
592321.000000
593220.000000
594098.000000
594919.000000
595779.000000
596678.000000
597550.000000
598383.000000
599242.000000
600115.000000
600973.000000
601799.000000
602655.000000
603602.000000
604558.000000
605457.000000
606356.000000
607281.000000
608144.000000
608973.000000
609814.000000
610698.000000
611535.000000
612381.000000
613291.000000
614225.000000
615114.000000
615960.000000
616827.000000
617714.000000
618617.000000
619454.000000
620310.000000
621191.000000
622034.000000
622907.000000
623821.000000
624741.000000
625632.000000
626522.000000
627339.000000
628168.000000
628996.000000
629790.000000
630574.000000
631377.000000
632206.000000
633090.000000
633957.000000
634842.000000
635753.000000
636647.000000
637519.000000
638337.000000
639153.000000
639990.000000
640890.000000
641740.000000
642554.000000
643390.000000
644258.000000
645128.000000
645942.000000
646777.000000
647632.000000
648436.000000
649230.000000
650057.000000
650910.000000
651731.000000
652560.000000
653376.000000
654150.000000
654912.000000
655648.000000
656365.000000
657097.000000
657892.000000
658668.000000
659431.000000
660259.000000
661102.000000
661915.000000
662689.000000
663493.000000
664290.000000
665056.000000
665824.000000
666623.000000
667439.000000
668231.000000
669054.000000
669889.000000
670703.000000
671483.000000
672277.000000
673064.000000
673825.000000
674586.000000
675383.000000
676173.000000
676955.000000
677791.000000
678633.000000
679440.000000
680283.000000
681117.000000
681916.000000
682738.000000
683568.000000
684362.000000
685148.000000
685950.000000
686765.000000
687565.000000
688384.000000
689211.000000
690014.000000
690836.000000
691690.000000
692524.000000
693337.000000
694183.000000
695042.000000
695857.000000
696707.000000
697616.000000
698531.000000
699398.000000
700280.000000
701208.000000
702115.000000
702960.000000
703811.000000
704698.000000
705620.000000
706489.000000
707321.000000
708172.000000
709047.000000
709890.000000
710754.000000
711648.000000
712494.000000
713332.000000
714225.000000
715108.000000
715950.000000
716808.000000
717726.000000
718621.000000
719485.000000
720388.000000
721247.000000
722045.000000
722856.000000
723649.000000
724425.000000
725214.000000
726064.000000
726969.000000
727820.000000
728724.000000
729637.000000
730488.000000
731335.000000
732184.000000
732994.000000
733809.000000
734648.000000
735519.000000
736332.000000
737142.000000
737955.000000
738753.000000
739556.000000
740419.000000
741306.000000
742174.000000
743109.000000
744034.000000
744891.000000
745766.000000
746595.000000
747379.000000
748190.000000
749035.000000
749884.000000
750717.000000
751604.000000
752457.000000
753291.000000
754159.000000
755032.000000
755828.000000
756629.000000
757431.000000
758215.000000
758977.000000
759702.000000
760403.000000
761102.000000
761781.000000
762446.000000
763113.000000
763796.000000
764536.000000
765273.000000
765994.000000
766759.000000
767565.000000
768354.000000
769080.000000
769792.000000
770490.000000
771199.000000
772112.000000
773055.000000
773999.000000
774893.000000
775773.000000
776660.000000
777471.000000
778257.000000
779038.000000
779859.000000
780722.000000
781635.000000
782489.000000
783350.000000
784290.000000
785272.000000
786226.000000
787057.000000
787879.000000
788733.000000
789584.000000
790525.000000
791535.000000
792447.000000
793399.000000
794324.000000
795189.000000
796087.000000
796968.000000
797760.000000
798526.000000
799318.000000
800152.000000
800986.000000
801762.000000
802545.000000
803340.000000
804182.000000
805071.000000
806039.000000
806894.000000
807767.000000
808594.000000
809384.000000
810215.000000
811101.000000
811936.000000
812855.000000
813847.000000
814732.000000
815640.000000
816586.000000
817471.000000
818271.000000
819098.000000
819944.000000
820748.000000
821566.000000
822424.000000
823311.000000
824174.000000
825084.000000
825980.000000
826802.000000
827648.000000
828510.000000
829313.000000
830160.000000
831038.000000
831899.000000
832704.000000
833556.000000
834414.000000
835240.000000
836096.000000
836958.000000
837756.000000
838544.000000
839339.000000
840137.000000
840906.000000
841767.000000
842650.000000
843515.000000
844301.000000
845131.000000
846022.000000
846869.000000
847699.000000
848593.000000
849489.000000
850340.000000
851188.000000
852037.000000
852843.000000
853653.000000
854539.000000
855398.000000
856221.000000
857094.000000
857973.000000
858801.000000
859598.000000
860403.000000
861193.000000
861952.000000
862778.000000
863623.000000
864480.000000
865312.000000
866212.000000
867097.000000
867908.000000
868729.000000
869561.000000
870357.000000
871151.000000
871980.000000
872836.000000
873713.000000
874613.000000
875547.000000
876395.000000
877239.000000
878041.000000
878780.000000
879516.000000
880265.000000
881039.000000
881869.000000
882753.000000
883681.000000
884507.000000
885388.000000
886214.000000
886989.000000
887783.000000
888539.000000
889270.000000
889973.000000
890650.000000
891366.000000
892102.000000
892847.000000
893671.000000
894528.000000
895299.000000
896075.000000
896964.000000
