ECG (ms)
851.000000
1768.000000
2777.000000
3669.000000
4537.000000
5320.000000
6106.000000
6947.000000
7831.000000
8794.000000
9723.000000
10611.000000
11629.000000
12640.000000
13513.000000
14350.000000
15218.000000
16118.000000
16948.000000
17756.000000
18591.000000
19518.000000
20356.000000
21299.000000
22267.000000
23208.000000
24115.000000
25044.000000
25892.000000
26640.000000
27411.000000
28180.000000
29100.000000
29936.000000
30879.000000
31835.000000
32784.000000
33648.000000
34569.000000
35494.000000
36320.000000
37080.000000
37841.000000
38610.000000
39425.000000
40218.000000
41038.000000
42051.000000
43058.000000
44000.000000
44877.000000
45745.000000
46570.000000
47409.000000
48257.000000
49073.000000
49861.000000
50728.000000
51768.000000
52681.000000
53486.000000
54324.000000
55435.000000
56403.000000
57296.000000
58186.000000
59122.000000
60078.000000
60921.000000
61726.000000
62555.000000
63429.000000
64268.000000
65080.000000
65937.000000
66815.000000
67717.000000
68562.000000
69347.000000
70207.000000
71095.000000
71946.000000
72714.000000
73473.000000
74300.000000
75218.000000
76101.000000
77013.000000
77945.000000
78867.000000
79731.000000
80580.000000
81558.000000
82609.000000
83519.000000
84364.000000
85231.000000
86158.000000
87043.000000
87851.000000
88719.000000
89790.000000
90754.000000
91581.000000
92441.000000
93371.000000
94281.000000
95122.000000
96076.000000
96979.000000
97896.000000
98803.000000
99748.000000
100785.000000
101720.000000
102551.000000
103411.000000
104367.000000
105256.000000
106080.000000
106946.000000
107811.000000
108684.000000
109459.000000
110254.000000
111110.000000
112007.000000
112826.000000
113623.000000
114443.000000
115323.000000
116130.000000
116943.000000
117808.000000
118656.000000
119458.000000
120303.000000
121203.000000
122035.000000
122859.000000
123711.000000
124626.000000
125452.000000
126295.000000
127169.000000
128023.000000
128801.000000
129671.000000
130606.000000
131542.000000
132389.000000
133227.000000
134092.000000
134943.000000
135751.000000
136570.000000
137426.000000
138260.000000
139135.000000
140109.000000
140980.000000
141763.000000
142578.000000
143403.000000
144249.000000
145125.000000
146106.000000
147112.000000
147991.000000
148860.000000
149749.000000
150585.000000
151419.000000
152371.000000
153323.000000
154200.000000
155019.000000
155912.000000
156921.000000
157793.000000
158597.000000
159417.000000
160270.000000
161173.000000
162028.000000
162976.000000
163959.000000
164838.000000
165683.000000
166760.000000
167768.000000
168639.000000
169512.000000
170517.000000
171442.000000
172289.000000
173092.000000
173894.000000
174628.000000
175485.000000
176562.000000
177413.000000
178327.000000
179293.000000
180235.000000
181055.000000
181858.000000
182785.000000
183725.000000
184636.000000
185458.000000
186311.000000
187250.000000
188170.000000
189020.000000
189934.000000
190898.000000
191762.000000
192567.000000
193404.000000
194278.000000
195185.000000
196034.000000
196875.000000
197931.000000
198901.000000
199770.000000
200580.000000
201389.000000
202248.000000
203264.000000
204215.000000
205278.000000
206296.000000
207165.000000
208050.000000
209090.000000
210055.000000
210886.000000
211719.000000
212585.000000
213565.000000
214454.000000
215337.000000
216276.000000
217202.000000
218058.000000
218895.000000
219813.000000
220881.000000
221807.000000
222612.000000
223456.000000
224372.000000
225235.000000
226033.000000
226873.000000
227850.000000
228822.000000
229746.000000
230581.000000
231419.000000
232309.000000
233129.000000
233916.000000
234767.000000
235648.000000
236484.000000
237297.000000
238237.000000
239339.000000
240247.000000
241184.000000
242166.000000
243166.000000
244125.000000
244981.000000
245865.000000
246958.000000
247943.000000
248781.000000
249593.000000
250401.000000
251191.000000
251960.000000
252886.000000
253867.000000
254767.000000
255753.000000
256766.000000
257680.000000
258614.000000
259520.000000
260387.000000
261206.000000
262101.000000
263154.000000
264088.000000
264985.000000
265869.000000
266786.000000
267689.000000
268485.000000
269338.000000
270287.000000
271373.000000
272356.000000
273371.000000
274354.000000
275207.000000
276083.000000
277009.000000
277956.000000
278875.000000
279827.000000
280829.000000
281808.000000
282624.000000
283489.000000
284373.000000
285324.000000
286263.000000
287200.000000
288187.000000
289211.000000
290186.000000
291024.000000
291889.000000
292817.000000
293739.000000
294621.000000
295505.000000
296517.000000
297514.000000
298424.000000
299288.000000
300175.000000
301100.000000
301954.000000
302754.000000
303643.000000
304525.000000
305390.000000
306204.000000
307181.000000
308111.000000
308949.000000
309764.000000
310637.000000
311541.000000
312350.000000
313166.000000
314013.000000
314934.000000
315774.000000
316601.000000
317474.000000
318392.000000
319244.000000
320071.000000
320968.000000
321860.000000
322687.000000
323488.000000
324348.000000
325201.000000
326021.000000
326836.000000
327746.000000
328683.000000
329543.000000
330363.000000
331227.000000
332084.000000
332906.000000
333802.000000
334749.000000
335701.000000
336541.000000
337369.000000
338208.000000
339004.000000
339792.000000
340704.000000
341789.000000
342731.000000
343549.000000
344366.000000
345200.000000
345983.000000
346777.000000
347642.000000
348526.000000
349356.000000
350144.000000
350888.000000
351624.000000
352612.000000
353477.000000
354294.000000
355137.000000
356020.000000
356808.000000
357584.000000
358391.000000
359289.000000
360147.000000
360944.000000
361804.000000
362715.000000
363553.000000
364352.000000
365195.000000
366110.000000
366976.000000
367771.000000
368596.000000
369482.000000
370356.000000
371182.000000
372026.000000
372914.000000
373806.000000
374614.000000
375452.000000
376300.000000
377166.000000
377967.000000
378843.000000
379721.000000
380648.000000
381504.000000
382374.000000
383357.000000
384310.000000
385178.000000
385992.000000
386837.000000
387768.000000
388718.000000
389551.000000
390389.000000
391299.000000
392265.000000
393117.000000
393932.000000
394828.000000
395814.000000
396690.000000
397516.000000
398480.000000
399418.000000
400261.000000
401074.000000
402048.000000
403013.000000
403952.000000
404824.000000
405741.000000
406683.000000
407540.000000
408382.000000
409252.000000
410156.000000
411021.000000
411863.000000
412846.000000
413886.000000
414836.000000
415686.000000
416570.000000
417546.000000
418505.000000
419414.000000
420270.000000
421308.000000
422331.000000
423333.000000
424237.000000
425134.000000
426112.000000
427064.000000
427919.000000
428820.000000
429827.000000
430739.000000
431577.000000
432446.000000
433359.000000
434292.000000
435159.000000
436122.000000
437163.000000
438083.000000
439029.000000
439993.000000
440869.000000
441697.000000
442571.000000
443631.000000
444503.000000
445334.000000
446184.000000
447109.000000
448045.000000
448932.000000
449991.000000
450962.000000
451779.000000
452635.000000
453548.000000
454392.000000
455214.000000
456168.000000
457168.000000
458117.000000
458998.000000
459904.000000
460838.000000
461691.000000
462556.000000
463606.000000
464591.000000
465482.000000
466380.000000
467250.000000
468114.000000
468948.000000
469849.000000
470772.000000
471744.000000
472604.000000
473467.000000
474323.000000
475168.000000
476004.000000
476953.000000
477982.000000
478947.000000
479791.000000
480642.000000
481538.000000
482424.000000
483247.000000
484068.000000
484942.000000
485953.000000
486889.000000
487804.000000
488778.000000
489745.000000
490604.000000
491460.000000
492346.000000
493238.000000
494057.000000
494923.000000
495920.000000
496885.000000
497757.000000
498626.000000
499535.000000
500469.000000
501329.000000
502199.000000
503109.000000
504035.000000
504866.000000
505731.000000
506612.000000
507556.000000
508429.000000
509334.000000
510273.000000
511205.000000
512035.000000
512911.000000
513867.000000
514771.000000
515594.000000
516393.000000
517196.000000
518143.000000
519056.000000
519933.000000
520822.000000
521796.000000
522855.000000
523796.000000
524737.000000
525734.000000
526717.000000
527530.000000
528311.000000
529112.000000
530263.000000
531203.000000
532061.000000
532977.000000
533999.000000
534989.000000
535877.000000
536814.000000
537743.000000
538568.000000
539409.000000
540308.000000
541264.000000
542134.000000
543035.000000
544050.000000
545038.000000
545888.000000
546753.000000
547657.000000
548544.000000
549366.000000
550266.000000
551275.000000
552214.000000
553076.000000
554036.000000
555040.000000
555979.000000
556803.000000
557665.000000
558793.000000
559840.000000
560726.000000
561664.000000
562621.000000
563539.000000
564414.000000
565345.000000
566373.000000
567279.000000
568191.000000
569129.000000
570050.000000
570890.000000
571754.000000
572643.000000
573483.000000
574299.000000
575181.000000
576131.000000
577029.000000
577974.000000
578982.000000
579934.000000
580756.000000
581589.000000
582519.000000
583441.000000
584325.000000
585200.000000
586186.000000
587159.000000
588073.000000
589009.000000
589936.000000
590806.000000
591607.000000
592429.000000
593356.000000
594339.000000
595217.000000
596085.000000
596973.000000
597975.000000
598853.000000
599717.000000
600670.000000
601630.000000
602480.000000
603323.000000
604224.000000
605133.000000
605979.000000
606843.000000
607882.000000
608883.000000
609746.000000
610609.000000
611456.000000
612344.000000
613213.000000
614080.000000
615013.000000
616049.000000
616953.000000
617875.000000
618946.000000
619929.000000
620805.000000
621701.000000
622597.000000
623462.000000
624272.000000
625161.000000
626250.000000
627254.000000
628130.000000
629059.000000
630003.000000
630939.000000
631768.000000
632613.000000
633523.000000
634432.000000
635278.000000
636170.000000
637162.000000
638105.000000
638997.000000
639950.000000
640923.000000
641787.000000
642638.000000
643517.000000
644458.000000
645321.000000
646187.000000
647073.000000
648008.000000
648870.000000
649711.000000
650623.000000
651592.000000
652514.000000
653372.000000
654249.000000
655200.000000
656117.000000
656966.000000
657861.000000
658874.000000
659806.000000
660670.000000
661551.000000
662443.000000
663263.000000
664151.000000
665101.000000
666013.000000
666852.000000
667787.000000
668749.000000
669673.000000
670521.000000
671391.000000
672322.000000
673313.000000
674182.000000
675046.000000
675940.000000
676929.000000
677851.000000
678722.000000
679657.000000
680677.000000
681643.000000
682497.000000
683367.000000
684275.000000
685201.000000
686076.000000
686968.000000
688031.000000
689022.000000
689908.000000
690749.000000
691600.000000
692504.000000
693371.000000
694196.000000
695068.000000
695994.000000
696939.000000
697788.000000
698635.000000
699516.000000
700401.000000
701220.000000
702067.000000
702934.000000
703861.000000
704716.000000
705586.000000
706423.000000
707306.000000
708133.000000
708987.000000
709979.000000
710963.000000
711779.000000
712596.000000
713400.000000
714186.000000
714961.000000
715831.000000
716749.000000
717660.000000
718507.000000
719390.000000
720389.000000
721266.000000
722142.000000
723059.000000
723972.000000
724828.000000
725684.000000
726576.000000
727502.000000
728350.000000
729166.000000
730055.000000
731059.000000
731980.000000
732878.000000
733789.000000
734778.000000
735618.000000
736465.000000
737357.000000
738323.000000
739199.000000
740050.000000
741015.000000
742128.000000
743031.000000
743904.000000
744788.000000
745885.000000
746821.000000
747706.000000
748682.000000
749677.000000
750620.000000
751449.000000
752337.000000
753241.000000
754159.000000
755026.000000
756107.000000
757226.000000
758216.000000
759152.000000
760068.000000
760984.000000
761841.000000
762737.000000
763706.000000
764593.000000
765420.000000
766340.000000
767318.000000
768306.000000
769180.000000
770083.000000
771010.000000
771937.000000
772758.000000
773638.000000
774574.000000
775553.000000
776450.000000
777354.000000
778317.000000
779312.000000
780187.000000
781039.000000
781928.000000
782972.000000
783908.000000
784790.000000
785686.000000
786635.000000
787499.000000
788385.000000
789338.000000
790213.000000
791025.000000
791867.000000
792747.000000
793806.000000
794854.000000
795908.000000
796921.000000
797781.000000
798621.000000
799471.000000
800312.000000
801107.000000
801935.000000
803086.000000
804083.000000
804999.000000
805919.000000
806868.000000
807761.000000
808589.000000
809461.000000
810404.000000
811483.000000
812400.000000
813354.000000
814308.000000
815243.000000
816093.000000
816978.000000
817937.000000
818942.000000
819808.000000
820688.000000
821618.000000
822550.000000
823443.000000
824329.000000
825314.000000
826305.000000
827155.000000
828082.000000
829016.000000
829924.000000
830784.000000
831717.000000
832759.000000
833651.000000
834538.000000
835464.000000
836381.000000
837226.000000
838089.000000
838965.000000
839836.000000
840691.000000
841622.000000
842652.000000
843593.000000
844489.000000
845416.000000
846356.000000
847193.000000
848073.000000
849166.000000
850177.000000
851139.000000
852131.000000
853067.000000
853925.000000
854851.000000
855918.000000
856944.000000
857828.000000
858718.000000
859624.000000
860617.000000
861491.000000
862391.000000
863512.000000
864477.000000
865316.000000
866168.000000
867108.000000
868070.000000
868964.000000
869943.000000
870979.000000
871908.000000
872771.000000
873642.000000
874588.000000
875458.000000
876316.000000
877251.000000
878203.000000
879046.000000
879882.000000
880750.000000
881683.000000
882512.000000
883351.000000
884215.000000
885105.000000
885932.000000
886846.000000
887919.000000
888910.000000
889825.000000
890759.000000
891666.000000
892486.000000
893340.000000
894375.000000
895325.000000
896168.000000
897079.000000
898001.000000
898886.000000
899706.000000
900619.000000
901580.000000
902467.000000
903332.000000
904239.000000
905157.000000
906022.000000
906842.000000
907681.000000
908612.000000
909485.000000
910306.000000
911214.000000
