ECG (ms)
801.000000
1801.000000
2810.000000
3850.000000
4902.000000
5914.000000
6949.000000
7969.000000
8999.000000
10030.000000
11040.000000
12072.000000
13063.000000
14074.000000
15073.000000
16056.000000
17054.000000
18024.000000
19015.000000
20000.000000
20989.000000
22018.000000
23046.000000
24125.000000
25170.000000
26248.000000
27330.000000
28364.000000
29430.000000
30476.000000
31525.000000
32544.000000
33576.000000
34613.000000
35614.000000
36636.000000
37636.000000
38643.000000
39654.000000
40649.000000
41664.000000
42660.000000
43678.000000
44680.000000
45692.000000
46721.000000
47727.000000
48755.000000
49779.000000
50789.000000
51813.000000
52818.000000
53840.000000
54860.000000
55862.000000
56865.000000
57852.000000
58826.000000
59836.000000
60807.000000
61812.000000
62828.000000
63810.000000
64837.000000
65864.000000
66874.000000
67907.000000
68907.000000
69921.000000
70934.000000
71902.000000
72898.000000
73870.000000
74841.000000
75843.000000
76820.000000
77809.000000
78797.000000
79767.000000
80755.000000
81716.000000
82684.000000
83663.000000
84613.000000
85591.000000
86552.000000
87497.000000
88461.000000
89416.000000
90362.000000
91331.000000
92288.000000
93230.000000
94204.000000
95169.000000
96134.000000
97118.000000
98081.000000
99030.000000
99999.000000
100947.000000
101885.000000
102846.000000
103802.000000
104770.000000
105759.000000
106736.000000
107719.000000
108708.000000
109663.000000
110617.000000
111578.000000
112516.000000
113474.000000
114421.000000
115361.000000
116325.000000
117285.000000
118246.000000
119220.000000
120185.000000
121167.000000
122157.000000
123128.000000
124135.000000
125158.000000
126166.000000
127188.000000
128177.000000
129169.000000
130173.000000
131146.000000
132132.000000
133126.000000
134094.000000
135079.000000
136052.000000
137020.000000
138021.000000
139001.000000
140015.000000
141016.000000
142006.000000
143004.000000
143977.000000
144954.000000
145939.000000
146891.000000
147873.000000
148846.000000
149808.000000
150796.000000
151772.000000
152743.000000
153715.000000
154656.000000
155629.000000
156572.000000
157528.000000
158508.000000
159463.000000
160445.000000
161427.000000
162406.000000
163402.000000
164371.000000
165339.000000
166305.000000
167238.000000
168193.000000
169128.000000
170066.000000
171031.000000
171979.000000
172972.000000
174000.000000
175017.000000
176041.000000
177021.000000
178021.000000
179011.000000
179992.000000
180998.000000
181983.000000
183002.000000
183979.000000
184979.000000
185969.000000
186951.000000
187964.000000
188974.000000
189991.000000
190988.000000
191969.000000
192959.000000
193919.000000
194928.000000
195924.000000
196941.000000
197995.000000
199017.000000
200100.000000
201117.000000
202138.000000
203116.000000
204080.000000
205058.000000
206016.000000
207012.000000
208008.000000
208992.000000
209992.000000
210982.000000
211997.000000
213032.000000
214068.000000
215109.000000
216136.000000
217174.000000
218196.000000
219200.000000
220254.000000
221295.000000
222343.000000
223369.000000
224374.000000
225400.000000
226410.000000
227403.000000
228404.000000
229384.000000
230385.000000
231373.000000
232333.000000
233317.000000
234307.000000
235294.000000
236317.000000
237314.000000
238311.000000
239333.000000
240321.000000
241320.000000
242333.000000
243319.000000
244329.000000
245326.000000
246325.000000
247330.000000
248295.000000
249279.000000
250258.000000
251215.000000
252189.000000
253144.000000
254102.000000
255094.000000
256062.000000
257030.000000
258013.000000
258972.000000
259963.000000
260937.000000
261918.000000
262926.000000
263924.000000
264935.000000
265949.000000
266938.000000
267936.000000
268930.000000
269911.000000
270925.000000
271961.000000
273001.000000
274044.000000
275045.000000
276043.000000
277039.000000
277997.000000
278980.000000
279948.000000
280896.000000
281885.000000
282848.000000
283791.000000
284759.000000
285706.000000
286658.000000
287634.000000
288593.000000
289571.000000
290538.000000
291490.000000
292479.000000
293459.000000
294436.000000
295436.000000
296400.000000
297385.000000
298371.000000
299335.000000
300316.000000
301280.000000
302240.000000
303229.000000
304200.000000
305212.000000
306236.000000
307229.000000
308246.000000
309246.000000
310224.000000
311219.000000
312211.000000
313181.000000
314172.000000
315147.000000
316135.000000
317123.000000
318091.000000
319089.000000
320056.000000
321028.000000
321998.000000
322960.000000
323950.000000
324925.000000
325891.000000
326878.000000
327843.000000
328813.000000
329789.000000
330737.000000
331701.000000
332665.000000
333617.000000
334595.000000
335556.000000
336533.000000
337541.000000
338525.000000
339535.000000
340527.000000
341514.000000
342521.000000
343511.000000
344499.000000
345495.000000
346505.000000
347516.000000
348512.000000
349480.000000
350470.000000
351454.000000
352454.000000
353474.000000
354485.000000
355523.000000
356532.000000
357530.000000
358538.000000
359502.000000
360491.000000
361468.000000
362432.000000
363435.000000
364470.000000
365502.000000
366535.000000
367540.000000
368553.000000
369555.000000
370534.000000
371528.000000
372519.000000
373498.000000
374499.000000
375490.000000
376490.000000
377515.000000
378525.000000
379538.000000
380558.000000
381557.000000
382585.000000
383600.000000
384608.000000
385627.000000
386624.000000
387633.000000
388634.000000
389632.000000
390672.000000
391721.000000
392764.000000
393798.000000
394788.000000
395768.000000
396763.000000
397729.000000
398743.000000
399793.000000
400839.000000
401908.000000
402925.000000
403948.000000
404967.000000
405958.000000
406970.000000
407962.000000
408956.000000
409965.000000
410938.000000
411960.000000
412989.000000
413979.000000
414998.000000
416001.000000
417000.000000
418023.000000
419039.000000
420062.000000
421091.000000
422092.000000
423087.000000
424092.000000
425061.000000
426035.000000
427024.000000
427990.000000
428993.000000
429969.000000
430947.000000
431940.000000
432905.000000
433910.000000
434922.000000
435964.000000
437020.000000
438039.000000
439089.000000
440125.000000
441169.000000
442174.000000
443173.000000
444166.000000
445136.000000
446144.000000
447147.000000
448147.000000
449156.000000
450141.000000
451159.000000
452197.000000
453235.000000
454257.000000
455240.000000
456230.000000
457200.000000
458162.000000
459151.000000
460136.000000
461136.000000
462149.000000
463183.000000
464235.000000
465259.000000
466264.000000
467281.000000
468289.000000
469296.000000
470306.000000
471282.000000
472291.000000
473293.000000
474268.000000
475268.000000
476248.000000
477209.000000
478190.000000
479161.000000
480062.000000
480980.000000
481919.000000
482850.000000
483854.000000
484823.000000
485799.000000
486787.000000
487745.000000
488666.000000
489617.000000
490594.000000
491526.000000
492508.000000
493475.000000
494425.000000
495436.000000
496409.000000
497360.000000
498385.000000
499386.000000
500397.000000
501460.000000
502474.000000
503502.000000
504488.000000
505467.000000
506467.000000
507472.000000
508475.000000
509479.000000
510464.000000
511474.000000
512500.000000
513544.000000
514589.000000
515606.000000
516598.000000
517605.000000
518588.000000
519566.000000
520578.000000
521556.000000
522550.000000
523537.000000
524504.000000
525494.000000
526488.000000
527455.000000
528430.000000
529389.000000
530334.000000
531341.000000
532360.000000
533352.000000
534366.000000
535359.000000
536372.000000
537383.000000
538386.000000
539438.000000
540450.000000
541477.000000
542490.000000
543505.000000
544523.000000
545507.000000
546517.000000
547519.000000
548522.000000
549541.000000
550553.000000
551581.000000
552587.000000
553605.000000
554648.000000
555658.000000
556703.000000
557663.000000
558583.000000
559420.000000
560203.000000
560979.000000
561759.000000
562540.000000
563338.000000
564155.000000
564975.000000
565826.000000
566714.000000
567613.000000
568545.000000
569502.000000
570466.000000
571499.000000
572565.000000
573589.000000
574637.000000
575708.000000
576763.000000
577873.000000
578971.000000
580085.000000
581196.000000
582264.000000
583335.000000
584393.000000
585425.000000
586518.000000
587610.000000
588695.000000
589796.000000
590876.000000
591975.000000
593038.000000
594071.000000
595114.000000
596113.000000
597184.000000
598295.000000
599408.000000
600487.000000
601543.000000
602652.000000
603729.000000
604840.000000
605916.000000
606973.000000
608070.000000
609121.000000
610173.000000
611179.000000
612195.000000
613213.000000
614253.000000
615362.000000
616461.000000
617556.000000
618639.000000
619737.000000
620798.000000
621866.000000
622947.000000
624026.000000
625083.000000
626123.000000
627161.000000
628222.000000
629324.000000
630373.000000
631441.000000
632489.000000
633535.000000
634589.000000
635657.000000
636754.000000
637809.000000
638825.000000
639847.000000
640860.000000
641880.000000
642929.000000
643944.000000
645033.000000
646113.000000
647154.000000
648218.000000
649299.000000
650360.000000
651422.000000
652436.000000
653459.000000
654460.000000
655447.000000
656460.000000
657457.000000
658441.000000
659453.000000
660486.000000
661526.000000
662577.000000
663609.000000
664685.000000
665773.000000
666792.000000
667806.000000
668837.000000
669838.000000
670852.000000
671877.000000
672885.000000
673926.000000
675031.000000
676081.000000
677143.000000
678165.000000
679164.000000
680198.000000
681201.000000
682215.000000
683244.000000
684239.000000
685262.000000
686302.000000
687309.000000
688343.000000
689397.000000
690436.000000
691479.000000
692494.000000
693512.000000
694546.000000
695547.000000
696577.000000
697591.000000
698608.000000
699647.000000
700717.000000
701779.000000
702842.000000
703864.000000
704883.000000
705927.000000
706920.000000
707928.000000
709000.000000
710028.000000
711100.000000
712188.000000
713261.000000
714331.000000
715416.000000
716440.000000
717481.000000
718521.000000
719533.000000
720571.000000
721630.000000
722687.000000
723778.000000
724804.000000
725827.000000
726876.000000
727905.000000
728923.000000
729971.000000
731032.000000
732136.000000
733197.000000
734231.000000
735312.000000
736354.000000
737367.000000
738401.000000
739414.000000
740424.000000
741466.000000
742475.000000
743510.000000
744529.000000
745540.000000
746567.000000
747555.000000
748565.000000
749577.000000
750567.000000
751587.000000
752596.000000
753608.000000
754649.000000
755656.000000
756689.000000
757694.000000
758685.000000
759691.000000
760673.000000
761699.000000
762747.000000
763814.000000
764853.000000
765874.000000
766916.000000
767989.000000
769078.000000
770128.000000
771216.000000
772261.000000
773314.000000
774376.000000
775490.000000
776603.000000
777685.000000
778744.000000
779763.000000
780813.000000
781878.000000
782989.000000
784120.000000
785231.000000
786344.000000
787421.000000
788565.000000
789666.000000
790751.000000
791798.000000
792802.000000
793821.000000
794813.000000
795831.000000
796845.000000
797863.000000
798971.000000
800020.000000
801100.000000
802139.000000
803223.000000
804309.000000
805337.000000
806380.000000
807378.000000
808407.000000
809431.000000
810442.000000
811492.000000
812542.000000
813604.000000
814635.000000
815641.000000
816683.000000
817685.000000
818731.000000
819817.000000
820895.000000
821988.000000
823021.000000
824082.000000
825169.000000
826241.000000
827317.000000
828360.000000
829423.000000
830547.000000
831615.000000
832719.000000
833813.000000
834913.000000
836039.000000
837118.000000
838165.000000
839230.000000
840272.000000
841329.000000
842387.000000
843432.000000
844489.000000
845549.000000
846572.000000
847628.000000
848693.000000
849722.000000
850783.000000
851840.000000
852840.000000
853873.000000
854889.000000
855889.000000
856938.000000
857983.000000
859016.000000
860059.000000
861057.000000
862070.000000
863102.000000
864107.000000
865156.000000
866242.000000
867289.000000
868362.000000
869408.000000
870430.000000
871474.000000
872514.000000
873537.000000
874587.000000
875616.000000
876652.000000
877701.000000
878708.000000
879760.000000
880847.000000
881897.000000
882974.000000
884006.000000
885048.000000
886108.000000
887175.000000
888282.000000
889353.000000
890404.000000
891473.000000
892564.000000
893679.000000
894788.000000
895843.000000
896915.000000
898017.000000
899075.000000
