ECG (ms)
596.000000
1540.000000
2515.000000
3489.000000
4456.000000
5452.000000
6425.000000
7380.000000
8359.000000
9300.000000
10232.000000
11201.000000
12169.000000
13129.000000
14118.000000
15076.000000
16025.000000
17008.000000
17957.000000
18911.000000
19884.000000
20817.000000
21771.000000
22762.000000
23728.000000
24710.000000
25709.000000
26659.000000
27615.000000
28597.000000
29546.000000
30467.000000
31421.000000
32401.000000
33392.000000
34330.000000
35265.000000
36215.000000
37135.000000
38019.000000
38941.000000
39913.000000
40861.000000
41845.000000
42845.000000
43772.000000
44686.000000
45603.000000
46487.000000
47368.000000
48321.000000
49289.000000
50242.000000
51261.000000
52273.000000
53234.000000
54211.000000
55186.000000
56104.000000
57042.000000
58012.000000
58935.000000
59890.000000
60877.000000
61819.000000
62788.000000
63785.000000
64724.000000
65654.000000
66592.000000
67487.000000
68382.000000
69333.000000
70346.000000
71307.000000
72297.000000
73273.000000
74207.000000
75157.000000
76095.000000
77053.000000
77966.000000
78904.000000
79857.000000
80775.000000
81710.000000
82660.000000
83599.000000
84491.000000
85338.000000
86160.000000
87008.000000
87924.000000
88889.000000
89784.000000
90631.000000
91481.000000
92393.000000
93324.000000
94254.000000
95231.000000
96229.000000
97198.000000
98214.000000
99241.000000
100226.000000
101232.000000
102221.000000
103183.000000
104196.000000
105222.000000
106204.000000
107227.000000
108265.000000
109254.000000
110272.000000
111297.000000
112270.000000
113254.000000
114248.000000
115198.000000
116119.000000
117093.000000
118088.000000
119083.000000
120090.000000
121040.000000
122020.000000
122985.000000
123898.000000
124847.000000
125816.000000
126765.000000
127733.000000
128735.000000
129714.000000
130692.000000
131673.000000
132621.000000
133536.000000
134486.000000
135444.000000
136376.000000
137350.000000
138356.000000
139345.000000
140330.000000
141323.000000
142289.000000
143229.000000
144214.000000
145208.000000
146166.000000
147146.000000
148140.000000
149123.000000
150091.000000
151008.000000
151889.000000
152777.000000
153707.000000
154710.000000
155715.000000
156732.000000
157698.000000
158643.000000
159637.000000
160651.000000
161624.000000
162578.000000
163578.000000
164603.000000
165587.000000
166552.000000
167564.000000
168586.000000
169612.000000
170609.000000
171617.000000
172648.000000
173639.000000
174617.000000
175614.000000
176604.000000
177588.000000
178590.000000
179590.000000
180562.000000
181547.000000
182519.000000
183470.000000
184437.000000
185390.000000
186328.000000
187301.000000
188273.000000
189218.000000
190196.000000
191187.000000
192134.000000
193056.000000
193989.000000
194937.000000
195854.000000
196814.000000
197805.000000
198772.000000
199734.000000
200675.000000
201599.000000
202469.000000
203312.000000
204224.000000
205269.000000
206333.000000
207373.000000
208378.000000
209343.000000
210262.000000
211204.000000
212179.000000
213144.000000
214057.000000
215001.000000
215979.000000
216920.000000
217870.000000
218839.000000
219795.000000
220728.000000
221689.000000
222671.000000
223622.000000
224570.000000
225552.000000
226513.000000
227455.000000
228421.000000
229394.000000
230325.000000
231282.000000
232254.000000
233196.000000
234161.000000
235147.000000
236104.000000
237069.000000
238050.000000
239027.000000
239982.000000
240960.000000
241936.000000
242887.000000
243871.000000
244872.000000
245826.000000
246795.000000
247747.000000
248655.000000
249517.000000
250379.000000
251300.000000
252306.000000
253295.000000
254240.000000
255209.000000
256157.000000
257071.000000
258010.000000
258982.000000
259931.000000
260889.000000
261851.000000
262811.000000
263798.000000
264806.000000
265785.000000
266744.000000
267730.000000
268719.000000
269675.000000
270657.000000
271641.000000
272598.000000
273583.000000
274583.000000
275548.000000
276535.000000
277525.000000
278467.000000
279379.000000
280310.000000
281268.000000
282212.000000
283164.000000
284154.000000
285143.000000
286087.000000
287051.000000
288022.000000
288952.000000
289855.000000
290793.000000
291774.000000
292725.000000
293711.000000
294719.000000
295698.000000
296682.000000
297682.000000
298661.000000
299601.000000
300568.000000
301556.000000
302540.000000
303530.000000
304489.000000
305394.000000
306312.000000
307259.000000
308220.000000
309150.000000
310042.000000
310968.000000
311929.000000
312875.000000
313770.000000
314693.000000
315632.000000
316526.000000
317389.000000
318298.000000
319252.000000
320198.000000
321158.000000
322138.000000
323071.000000
323999.000000
324939.000000
325890.000000
326803.000000
327721.000000
328666.000000
329617.000000
330543.000000
331514.000000
332496.000000
333430.000000
334353.000000
335283.000000
336197.000000
337150.000000
338171.000000
339181.000000
340173.000000
341189.000000
342164.000000
343094.000000
344026.000000
344957.000000
345857.000000
346774.000000
347718.000000
348647.000000
349560.000000
350525.000000
351496.000000
352431.000000
353387.000000
354366.000000
355326.000000
356239.000000
357168.000000
358121.000000
359055.000000
360022.000000
361023.000000
362005.000000
362953.000000
363926.000000
364902.000000
365844.000000
366821.000000
367823.000000
368760.000000
369725.000000
370710.000000
371665.000000
372660.000000
373704.000000
374703.000000
375720.000000
376747.000000
377708.000000
378697.000000
379680.000000
380616.000000
381579.000000
382523.000000
383447.000000
384415.000000
385415.000000
386380.000000
387348.000000
388347.000000
389332.000000
390276.000000
391245.000000
392212.000000
393145.000000
394081.000000
395076.000000
396088.000000
397059.000000
398004.000000
398984.000000
399974.000000
400926.000000
401865.000000
402827.000000
403802.000000
404736.000000
405654.000000
406596.000000
407553.000000
408484.000000
409444.000000
410437.000000
411399.000000
412336.000000
413293.000000
414257.000000
415193.000000
416139.000000
417115.000000
418080.000000
419020.000000
419991.000000
420975.000000
421916.000000
422860.000000
423835.000000
424788.000000
425712.000000
426665.000000
427634.000000
428592.000000
429576.000000
430565.000000
431520.000000
432483.000000
433454.000000
434376.000000
435301.000000
436254.000000
437200.000000
438123.000000
439079.000000
440054.000000
441008.000000
441970.000000
442936.000000
443848.000000
444758.000000
445700.000000
446688.000000
447636.000000
448632.000000
449648.000000
450604.000000
451575.000000
452544.000000
453469.000000
454388.000000
455320.000000
456259.000000
457173.000000
458137.000000
459145.000000
460104.000000
461073.000000
462045.000000
462979.000000
463941.000000
464930.000000
465865.000000
466816.000000
467775.000000
468722.000000
469670.000000
470654.000000
471625.000000
472613.000000
473621.000000
474591.000000
475554.000000
476532.000000
477490.000000
478425.000000
479380.000000
480332.000000
481264.000000
482239.000000
483237.000000
484200.000000
485197.000000
486208.000000
487186.000000
488173.000000
489191.000000
490215.000000
491227.000000
492197.000000
493149.000000
494138.000000
495145.000000
496127.000000
497087.000000
498070.000000
499028.000000
499977.000000
500986.000000
501979.000000
502935.000000
503937.000000
504959.000000
505939.000000
506929.000000
507920.000000
508904.000000
509880.000000
510851.000000
511770.000000
512715.000000
513669.000000
514598.000000
515572.000000
516597.000000
517600.000000
518641.000000
519695.000000
520730.000000
521763.000000
522732.000000
523660.000000
524619.000000
525620.000000
526595.000000
527611.000000
528653.000000
529675.000000
530623.000000
531512.000000
532375.000000
533300.000000
534345.000000
535419.000000
536482.000000
537539.000000
538543.000000
539480.000000
540428.000000
541435.000000
542478.000000
543538.000000
544573.000000
545558.000000
546554.000000
547582.000000
548616.000000
549649.000000
550676.000000
551636.000000
552593.000000
553572.000000
554586.000000
555622.000000
556657.000000
557707.000000
558705.000000
559718.000000
560740.000000
561729.000000
562684.000000
563672.000000
564659.000000
565620.000000
566580.000000
567590.000000
568603.000000
569567.000000
570520.000000
571503.000000
572481.000000
573467.000000
574407.000000
575351.000000
576322.000000
577294.000000
578244.000000
579252.000000
580300.000000
581306.000000
582319.000000
583325.000000
584276.000000
585235.000000
586209.000000
587169.000000
588151.000000
589174.000000
590189.000000
591174.000000
592199.000000
593210.000000
594171.000000
595149.000000
596137.000000
597097.000000
598094.000000
599120.000000
600109.000000
601090.000000
602091.000000
603077.000000
604022.000000
604998.000000
605998.000000
606969.000000
607975.000000
609007.000000
609991.000000
610996.000000
612014.000000
613027.000000
614030.000000
614969.000000
615907.000000
616890.000000
617872.000000
618832.000000
619825.000000
620825.000000
621786.000000
622759.000000
623754.000000
624720.000000
625667.000000
626629.000000
627618.000000
628561.000000
629512.000000
630509.000000
631522.000000
632500.000000
633476.000000
634463.000000
635418.000000
636355.000000
637328.000000
638299.000000
639232.000000
640204.000000
641203.000000
642164.000000
643154.000000
644154.000000
645096.000000
646065.000000
647063.000000
648025.000000
649009.000000
650014.000000
650990.000000
651940.000000
652916.000000
653896.000000
654850.000000
655850.000000
656856.000000
657813.000000
658805.000000
659832.000000
660820.000000
661825.000000
662854.000000
663861.000000
664869.000000
665888.000000
666887.000000
667878.000000
668896.000000
669893.000000
670855.000000
671856.000000
672868.000000
673846.000000
674772.000000
675716.000000
676692.000000
677636.000000
678568.000000
679555.000000
680587.000000
681574.000000
682535.000000
683516.000000
684476.000000
685404.000000
686372.000000
687380.000000
688352.000000
689383.000000
690438.000000
691471.000000
692485.000000
693424.000000
694380.000000
695342.000000
696303.000000
697247.000000
698251.000000
699277.000000
700257.000000
701262.000000
702282.000000
703260.000000
704173.000000
705104.000000
706063.000000
707003.000000
707935.000000
708934.000000
709966.000000
710961.000000
711969.000000
712995.000000
713978.000000
714929.000000
715890.000000
716847.000000
717772.000000
718755.000000
719776.000000
720794.000000
721747.000000
722704.000000
723668.000000
724649.000000
725596.000000
726548.000000
727535.000000
728551.000000
729588.000000
730572.000000
731545.000000
732535.000000
733541.000000
734492.000000
735485.000000
736510.000000
737508.000000
738493.000000
739470.000000
740405.000000
741311.000000
742262.000000
743271.000000
744265.000000
745311.000000
746371.000000
747382.000000
748416.000000
749453.000000
750420.000000
751390.000000
752374.000000
753349.000000
754327.000000
755366.000000
756407.000000
757418.000000
758447.000000
759462.000000
760445.000000
761386.000000
762308.000000
763262.000000
764292.000000
765296.000000
766326.000000
767390.000000
768441.000000
769430.000000
770401.000000
771379.000000
772359.000000
773300.000000
774248.000000
775253.000000
776301.000000
777311.000000
778355.000000
779400.000000
780400.000000
781427.000000
782459.000000
783437.000000
784418.000000
785430.000000
786396.000000
787387.000000
788381.000000
789351.000000
790361.000000
791375.000000
792325.000000
793282.000000
794261.000000
795239.000000
796205.000000
797201.000000
798214.000000
799184.000000
800178.000000
801188.000000
802173.000000
803141.000000
804139.000000
805139.000000
806092.000000
807068.000000
808081.000000
809052.000000
810026.000000
811011.000000
811971.000000
812863.000000
813710.000000
814575.000000
815538.000000
816589.000000
817667.000000
818715.000000
819712.000000
820722.000000
821729.000000
822717.000000
823660.000000
824627.000000
825608.000000
826577.000000
827588.000000
828629.000000
829663.000000
830658.000000
831691.000000
832725.000000
833730.000000
834710.000000
835709.000000
836720.000000
837693.000000
838692.000000
839710.000000
840711.000000
841680.000000
842663.000000
843665.000000
844663.000000
845666.000000
846627.000000
847603.000000
848600.000000
849568.000000
850549.000000
851554.000000
852522.000000
853452.000000
854418.000000
855385.000000
856322.000000
857300.000000
858308.000000
859286.000000
860281.000000
861295.000000
862292.000000
863232.000000
864180.000000
865153.000000
866115.000000
867073.000000
868064.000000
869026.000000
869976.000000
870968.000000
871954.000000
872924.000000
873935.000000
874940.000000
875893.000000
876850.000000
877827.000000
878758.000000
879707.000000
880691.000000
881708.000000
882702.000000
883712.000000
884751.000000
885759.000000
886741.000000
887752.000000
888743.000000
889689.000000
890653.000000
891637.000000
892590.000000
893566.000000
894578.000000
895562.000000
896531.000000
897531.000000
898527.000000
899485.000000
900449.000000
901448.000000
