ECG (ms)
593.000000
2035.000000
3150.000000
4096.000000
5163.000000
6629.000000
8022.000000
9302.000000
10452.000000
11412.000000
12389.000000
13635.000000
15017.000000
16262.000000
17333.000000
18308.000000
19324.000000
20572.000000
21883.000000
23061.000000
24158.000000
25133.000000
26016.000000
26916.000000
27878.000000
28739.000000
29568.000000
30460.000000
31282.000000
32083.000000
32893.000000
33705.000000
34501.000000
35305.000000
36119.000000
36971.000000
37881.000000
38844.000000
39848.000000
40882.000000
41946.000000
43010.000000
43981.000000
44883.000000
45770.000000
46701.000000
47597.000000
48538.000000
49491.000000
50635.000000
51822.000000
53023.000000
54183.000000
55245.000000
56161.000000
57072.000000
58015.000000
58924.000000
59821.000000
60763.000000
61824.000000
63029.000000
64253.000000
65412.000000
66533.000000
67617.000000
68620.000000
69570.000000
70486.000000
71453.000000
72538.000000
73957.000000
75242.000000
76449.000000
77623.000000
78659.000000
79590.000000
80497.000000
81480.000000
82973.000000
84314.000000
85537.000000
86599.000000
87551.000000
88464.000000
89419.000000
90962.000000
92392.000000
93572.000000
94669.000000
95680.000000
96625.000000
97572.000000
98674.000000
100095.000000
101384.000000
102592.000000
103651.000000
104598.000000
105503.000000
106424.000000
107431.000000
108840.000000
110083.000000
111216.000000
112224.000000
113131.000000
114010.000000
114892.000000
115762.000000
116673.000000
117751.000000
118859.000000
120000.000000
121151.000000
122296.000000
123429.000000
124512.000000
125533.000000
126482.000000
127432.000000
128482.000000
129852.000000
131157.000000
132346.000000
133415.000000
134390.000000
135323.000000
136274.000000
137369.000000
138689.000000
139974.000000
141167.000000
142314.000000
143356.000000
144334.000000
145300.000000
146320.000000
147562.000000
148877.000000
150147.000000
151352.000000
152407.000000
153358.000000
154357.000000
155536.000000
156801.000000
157888.000000
158847.000000
159829.000000
161224.000000
162451.000000
163487.000000
164556.000000
165710.000000
166812.000000
167868.000000
168838.000000
169757.000000
170739.000000
171978.000000
173208.000000
174295.000000
175274.000000
176291.000000
177410.000000
178492.000000
179470.000000
180429.000000
181479.000000
182591.000000
183696.000000
184725.000000
185684.000000
186613.000000
187648.000000
188855.000000
190037.000000
191065.000000
192037.000000
193001.000000
194034.000000
195085.000000
196152.000000
197242.000000
198302.000000
199301.000000
200249.000000
201204.000000
202197.000000
203232.000000
204325.000000
205473.000000
206583.000000
207677.000000
208689.000000
209637.000000
210558.000000
211531.000000
212597.000000
213519.000000
214457.000000
215427.000000
216363.000000
217309.000000
218336.000000
219432.000000
220541.000000
221577.000000
222523.000000
223429.000000
224380.000000
225494.000000
226639.000000
227751.000000
228749.000000
229764.000000
230926.000000
232065.000000
233229.000000
234281.000000
235279.000000
236342.000000
237437.000000
238552.000000
239566.000000
240527.000000
241465.000000
242511.000000
243647.000000
244867.000000
246081.000000
247163.000000
248256.000000
249401.000000
250448.000000
251474.000000
252538.000000
253710.000000
254768.000000
255760.000000
256869.000000
258063.000000
259198.000000
260185.000000
261278.000000
262647.000000
263882.000000
264883.000000
265808.000000
266842.000000
268470.000000
269866.000000
270888.000000
271987.000000
273438.000000
274837.000000
276020.000000
276998.000000
277932.000000
278929.000000
280456.000000
281861.000000
283151.000000
284286.000000
285290.000000
286252.000000
287197.000000
288309.000000
289786.000000
291089.000000
292209.000000
293183.000000
294099.000000
295012.000000
296023.000000
297184.000000
298392.000000
299530.000000
300554.000000
301516.000000
302452.000000
303393.000000
304474.000000
305797.000000
306875.000000
307831.000000
308810.000000
309899.000000
311027.000000
312108.000000
313037.000000
313965.000000
314911.000000
315829.000000
316810.000000
318161.000000
319437.000000
320569.000000
321566.000000
322507.000000
323448.000000
324459.000000
326061.000000
327548.000000
328918.000000
330208.000000
331224.000000
332167.000000
333158.000000
334592.000000
335980.000000
337107.000000
338074.000000
339055.000000
340259.000000
341716.000000
343080.000000
344151.000000
345183.000000
346517.000000
347830.000000
348892.000000
349868.000000
350936.000000
352435.000000
353720.000000
354733.000000
355756.000000
357255.000000
358603.000000
359657.000000
360761.000000
362161.000000
363336.000000
364550.000000
365922.000000
367069.000000
368035.000000
369058.000000
370554.000000
371829.000000
372820.000000
373918.000000
375458.000000
376703.000000
377679.000000
378674.000000
380232.000000
381667.000000
382721.000000
383803.000000
385263.000000
386386.000000
387359.000000
388521.000000
390042.000000
391386.000000
392431.000000
393444.000000
394702.000000
396043.000000
397086.000000
398061.000000
399257.000000
400668.000000
401770.000000
402760.000000
404086.000000
405436.000000
406494.000000
407553.000000
408650.000000
409659.000000
410623.000000
411669.000000
412973.000000
414230.000000
415281.000000
416232.000000
417254.000000
418377.000000
419497.000000
420602.000000
421642.000000
422622.000000
423604.000000
424610.000000
425754.000000
426968.000000
428145.000000
429276.000000
430292.000000
431255.000000
432188.000000
433167.000000
434754.000000
436222.000000
437530.000000
438707.000000
439707.000000
440640.000000
441605.000000
442691.000000
444276.000000
445724.000000
447017.000000
448082.000000
449061.000000
450026.000000
451056.000000
452411.000000
453738.000000
454909.000000
455958.000000
456901.000000
457840.000000
458870.000000
460106.000000
461574.000000
462563.000000
463790.000000
465103.000000
466341.000000
467406.000000
468375.000000
469312.000000
470282.000000
471272.000000
472589.000000
473978.000000
475311.000000
476487.000000
477474.000000
478415.000000
479479.000000
480969.000000
482341.000000
483415.000000
484417.000000
485867.000000
487264.000000
488545.000000
489599.000000
490569.000000
491582.000000
493038.000000
494445.000000
495709.000000
496750.000000
497750.000000
499250.000000
500722.000000
501856.000000
502824.000000
503791.000000
504950.000000
506505.000000
507981.000000
509231.000000
510276.000000
511258.000000
512328.000000
513823.000000
515208.000000
516494.000000
517562.000000
518562.000000
519703.000000
520986.000000
522305.000000
523486.000000
524496.000000
525442.000000
526396.000000
527494.000000
528784.000000
530102.000000
531301.000000
532362.000000
533327.000000
534289.000000
535423.000000
536673.000000
537912.000000
539046.000000
540079.000000
541051.000000
542044.000000
543225.000000
544530.000000
545776.000000
546888.000000
547867.000000
548816.000000
549782.000000
551198.000000
552642.000000
553926.000000
554957.000000
555913.000000
556966.000000
558477.000000
559881.000000
561065.000000
562060.000000
563040.000000
564628.000000
566141.000000
567484.000000
568589.000000
569538.000000
570521.000000
572059.000000
573491.000000
574533.000000
575534.000000
577014.000000
578384.000000
579424.000000
580371.000000
581458.000000
582943.000000
584295.000000
585538.000000
586561.000000
587546.000000
588554.000000
589702.000000
591052.000000
592363.000000
593493.000000
594473.000000
595383.000000
596283.000000
597380.000000
598642.000000
599684.000000
600627.000000
601591.000000
602668.000000
604089.000000
605424.000000
606735.000000
607866.000000
608877.000000
609852.000000
610896.000000
612444.000000
613918.000000
615275.000000
616396.000000
617338.000000
618270.000000
619390.000000
621065.000000
622618.000000
624001.000000
625077.000000
626090.000000
627272.000000
628705.000000
630063.000000
631163.000000
632122.000000
633122.000000
634600.000000
636010.000000
637135.000000
638097.000000
639160.000000
640636.000000
641992.000000
643077.000000
644018.000000
645017.000000
646531.000000
647931.000000
648987.000000
650012.000000
651564.000000
652893.000000
653980.000000
655448.000000
656802.000000
657832.000000
658825.000000
660297.000000
661596.000000
662667.000000
664147.000000
665520.000000
666602.000000
667689.000000
669129.000000
670424.000000
671469.000000
672952.000000
674325.000000
675429.000000
676399.000000
677554.000000
679009.000000
680421.000000
681582.000000
682631.000000
683703.000000
685182.000000
686613.000000
687994.000000
689201.000000
690256.000000
691371.000000
692954.000000
694438.000000
695728.000000
696820.000000
697866.000000
699034.000000
700157.000000
701103.000000
702040.000000
702970.000000
703960.000000
705030.000000
706180.000000
707218.000000
708158.000000
709092.000000
710125.000000
711236.000000
712426.000000
713500.000000
714463.000000
715412.000000
716455.000000
717782.000000
719106.000000
720226.000000
721181.000000
722093.000000
723122.000000
724645.000000
726095.000000
727140.000000
728089.000000
729157.000000
730675.000000
732072.000000
733120.000000
734139.000000
735332.000000
736547.000000
737599.000000
738572.000000
739704.000000
741010.000000
742148.000000
743131.000000
744111.000000
745190.000000
746256.000000
747219.000000
748139.000000
749073.000000
750026.000000
751116.000000
752276.000000
753323.000000
754326.000000
755464.000000
756677.000000
757698.000000
758628.000000
759624.000000
760767.000000
761944.000000
762976.000000
763994.000000
765432.000000
766795.000000
767980.000000
768953.000000
769920.000000
771300.000000
772708.000000
773872.000000
774851.000000
775884.000000
777126.000000
778477.000000
779539.000000
780505.000000
781572.000000
783022.000000
784267.000000
785260.000000
786299.000000
787658.000000
788974.000000
790048.000000
791041.000000
792120.000000
793516.000000
794630.000000
795631.000000
796765.000000
798051.000000
799093.000000
800130.000000
801274.000000
802382.000000
803367.000000
804375.000000
805455.000000
806627.000000
807771.000000
808780.000000
809717.000000
810686.000000
811760.000000
812861.000000
813901.000000
814861.000000
815837.000000
816907.000000
818052.000000
819068.000000
820016.000000
821035.000000
822164.000000
823224.000000
824193.000000
825239.000000
826491.000000
827562.000000
828528.000000
829634.000000
830704.000000
831684.000000
832714.000000
834069.000000
835266.000000
836270.000000
837238.000000
838292.000000
839535.000000
840798.000000
841830.000000
842768.000000
843732.000000
844842.000000
846110.000000
847243.000000
848224.000000
849214.000000
850737.000000
852131.000000
853266.000000
854233.000000
855191.000000
856304.000000
857644.000000
858910.000000
859946.000000
860942.000000
862102.000000
863298.000000
864374.000000
865307.000000
866220.000000
867117.000000
868097.000000
869199.000000
870339.000000
871396.000000
872360.000000
873387.000000
874605.000000
875871.000000
876924.000000
877862.000000
878795.000000
879846.000000
881124.000000
882367.000000
883439.000000
884401.000000
885354.000000
886387.000000
887587.000000
888957.000000
890197.000000
891202.000000
892152.000000
893112.000000
894265.000000
895788.000000
897165.000000
898263.000000
899238.000000
900210.000000
901279.000000
902621.000000
904000.000000
905332.000000
906463.000000
907438.000000
908385.000000
909476.000000
910996.000000
912401.000000
913474.000000
914445.000000
915503.000000
916900.000000
918257.000000
919350.000000
920316.000000
921289.000000
922383.000000
