ECG (ms)
554.000000
1500.000000
2443.000000
3373.000000
4315.000000
5269.000000
6219.000000
7166.000000
8129.000000
9098.000000
10046.000000
10976.000000
11916.000000
12851.000000
13772.000000
14678.000000
15591.000000
16514.000000
17430.000000
18327.000000
19236.000000
20143.000000
21045.000000
21965.000000
22916.000000
23863.000000
24828.000000
25785.000000
26726.000000
27664.000000
28592.000000
29535.000000
30514.000000
31466.000000
32420.000000
33387.000000
34327.000000
35284.000000
36234.000000
37112.000000
37928.000000
38765.000000
39647.000000
40549.000000
41477.000000
42421.000000
43346.000000
44264.000000
45180.000000
46074.000000
46967.000000
47851.000000
48702.000000
49585.000000
50458.000000
51341.000000
52242.000000
53152.000000
54088.000000
55032.000000
55949.000000
56866.000000
57779.000000
58681.000000
59594.000000
60501.000000
61429.000000
62377.000000
63348.000000
64289.000000
65239.000000
66172.000000
67110.000000
68061.000000
68969.000000
69883.000000
70813.000000
71740.000000
72644.000000
73548.000000
74446.000000
75322.000000
76214.000000
77099.000000
77999.000000
78909.000000
79828.000000
80736.000000
81654.000000
82532.000000
83391.000000
84269.000000
85143.000000
85997.000000
86854.000000
87709.000000
88553.000000
89407.000000
90274.000000
91116.000000
91800.000000
92796.000000
93616.000000
94449.000000
95272.000000
96099.000000
96927.000000
97739.000000
98576.000000
99389.000000
100203.000000
101005.000000
101808.000000
102582.000000
103348.000000
104132.000000
104925.000000
105755.000000
106577.000000
107387.000000
108152.000000
108919.000000
109717.000000
110537.000000
111367.000000
112218.000000
113097.000000
113989.000000
114849.000000
115670.000000
116500.000000
117389.000000
118293.000000
119194.000000
120099.000000
121020.000000
121960.000000
122887.000000
123864.000000
124860.000000
125838.000000
126818.000000
127787.000000
128737.000000
129676.000000
130669.000000
131681.000000
132701.000000
133715.000000
134705.000000
135686.000000
136660.000000
137626.000000
138597.000000
139603.000000
140623.000000
141636.000000
142642.000000
143646.000000
144632.000000
145581.000000
146540.000000
147510.000000
148482.000000
149409.000000
150306.000000
151152.000000
152006.000000
152857.000000
153748.000000
154692.000000
155655.000000
156622.000000
157589.000000
158571.000000
159541.000000
160502.000000
161425.000000
162369.000000
163349.000000
164356.000000
165371.000000
166392.000000
167397.000000
168380.000000
169391.000000
170420.000000
171425.000000
172448.000000
173478.000000
174478.000000
175487.000000
176502.000000
177487.000000
178483.000000
179499.000000
180483.000000
181468.000000
182472.000000
183449.000000
184382.000000
185331.000000
186290.000000
187255.000000
188224.000000
189213.000000
190184.000000
191155.000000
192126.000000
193098.000000
194074.000000
195059.000000
196038.000000
197020.000000
198022.000000
199041.000000
200045.000000
201071.000000
202101.000000
203092.000000
204073.000000
205056.000000
206011.000000
206969.000000
207914.000000
208847.000000
209782.000000
210748.000000
211703.000000
212662.000000
213639.000000
214612.000000
215588.000000
216559.000000
217528.000000
218477.000000
219425.000000
220336.000000
221243.000000
222143.000000
223040.000000
223945.000000
224808.000000
225616.000000
226433.000000
227345.000000
228282.000000
229261.000000
230256.000000
231239.000000
232237.000000
233216.000000
234188.000000
235200.000000
236222.000000
237240.000000
238247.000000
239240.000000
240225.000000
241208.000000
242155.000000
243095.000000
244035.000000
244993.000000
245943.000000
246902.000000
247841.000000
248759.000000
249708.000000
250680.000000
251655.000000
252614.000000
253585.000000
254543.000000
255509.000000
256477.000000
257438.000000
258413.000000
259404.000000
260370.000000
261324.000000
262284.000000
263251.000000
264225.000000
265211.000000
266200.000000
267177.000000
268150.000000
269100.000000
270048.000000
271025.000000
272000.000000
273002.000000
274000.000000
274979.000000
275958.000000
276933.000000
277886.000000
278842.000000
279771.000000
280721.000000
281695.000000
282653.000000
283593.000000
284545.000000
285512.000000
286476.000000
287451.000000
288428.000000
289399.000000
290394.000000
291383.000000
292376.000000
293380.000000
294375.000000
295374.000000
296380.000000
297377.000000
298372.000000
299364.000000
300362.000000
301358.000000
302333.000000
303276.000000
304230.000000
305205.000000
306180.000000
307170.000000
308177.000000
309192.000000
310188.000000
311167.000000
312150.000000
313122.000000
314100.000000
315105.000000
316084.000000
317062.000000
318044.000000
319050.000000
320070.000000
321069.000000
322058.000000
323058.000000
324045.000000
325034.000000
326052.000000
327071.000000
328080.000000
329073.000000
330054.000000
331042.000000
332027.000000
332983.000000
333936.000000
334878.000000
335799.000000
336752.000000
337717.000000
338691.000000
339672.000000
340669.000000
341661.000000
342640.000000
343605.000000
344600.000000
345617.000000
346631.000000
347648.000000
348685.000000
349734.000000
350778.000000
351806.000000
352860.000000
353924.000000
354957.000000
355999.000000
357079.000000
358134.000000
359160.000000
360202.000000
361223.000000
362217.000000
363217.000000
364234.000000
365245.000000
366277.000000
367291.000000
368284.000000
369299.000000
370305.000000
371288.000000
372267.000000
373276.000000
374269.000000
375268.000000
376258.000000
377276.000000
378290.000000
379314.000000
380336.000000
381355.000000
382370.000000
383377.000000
384355.000000
385333.000000
386348.000000
387335.000000
388301.000000
389286.000000
390262.000000
391218.000000
392186.000000
393170.000000
394145.000000
395128.000000
396125.000000
397122.000000
398113.000000
399108.000000
400085.000000
401059.000000
401984.000000
402870.000000
403683.000000
404553.000000
405508.000000
406484.000000
407504.000000
408536.000000
409563.000000
410575.000000
411600.000000
412599.000000
413581.000000
414575.000000
415568.000000
416541.000000
417526.000000
418532.000000
419520.000000
420527.000000
421558.000000
422574.000000
423590.000000
424606.000000
425596.000000
426589.000000
427563.000000
428547.000000
429540.000000
430544.000000
431527.000000
432533.000000
433543.000000
434536.000000
435559.000000
436566.000000
437564.000000
438599.000000
439615.000000
440603.000000
441605.000000
442625.000000
443622.000000
444591.000000
445581.000000
446558.000000
447533.000000
448527.000000
449527.000000
450520.000000
451516.000000
452534.000000
453576.000000
454606.000000
455658.000000
456696.000000
457721.000000
458758.000000
459772.000000
460765.000000
461792.000000
462823.000000
463847.000000
464870.000000
465909.000000
466926.000000
467931.000000
468871.000000
469802.000000
470787.000000
471774.000000
472738.000000
473681.000000
474644.000000
475618.000000
476578.000000
477569.000000
478571.000000
479587.000000
480584.000000
481591.000000
482600.000000
483628.000000
484642.000000
485650.000000
486686.000000
487735.000000
488780.000000
489824.000000
490899.000000
491973.000000
493042.000000
494101.000000
495178.000000
496231.000000
497260.000000
498321.000000
499400.000000
500460.000000
501499.000000
502538.000000
503587.000000
504596.000000
505604.000000
506606.000000
507591.000000
508588.000000
509614.000000
510645.000000
511653.000000
512674.000000
513698.000000
514722.000000
515746.000000
516787.000000
517817.000000
518821.000000
519849.000000
520879.000000
521887.000000
522907.000000
523947.000000
524962.000000
525954.000000
526950.000000
527963.000000
528968.000000
529984.000000
531004.000000
531994.000000
532995.000000
534020.000000
535049.000000
536054.000000
537084.000000
538127.000000
539171.000000
540214.000000
541264.000000
542302.000000
543324.000000
544371.000000
545415.000000
546439.000000
547496.000000
548535.000000
549567.000000
550607.000000
551659.000000
552711.000000
553784.000000
554841.000000
555843.000000
556852.000000
557859.000000
558842.000000
559857.000000
560851.000000
561832.000000
562838.000000
563874.000000
564904.000000
565937.000000
566987.000000
568027.000000
569085.000000
570142.000000
571158.000000
572170.000000
573175.000000
574175.000000
575203.000000
576247.000000
577276.000000
578307.000000
579339.000000
580349.000000
581343.000000
582345.000000
583331.000000
584314.000000
585311.000000
586308.000000
587308.000000
588348.000000
589390.000000
590438.000000
591513.000000
592560.000000
593616.000000
594675.000000
595705.000000
596756.000000
597806.000000
598850.000000
599836.000000
600795.000000
601784.000000
602764.000000
603728.000000
604690.000000
605641.000000
606566.000000
607531.000000
608516.000000
609516.000000
610524.000000
611557.000000
612593.000000
613620.000000
614636.000000
615638.000000
616666.000000
617711.000000
618781.000000
619850.000000
620892.000000
621935.000000
622988.000000
624040.000000
625087.000000
626152.000000
627234.000000
628308.000000
629364.000000
630417.000000
631482.000000
632534.000000
633559.000000
634610.000000
635662.000000
636685.000000
637710.000000
638738.000000
639774.000000
640775.000000
641809.000000
642845.000000
643887.000000
644935.000000
645983.000000
647059.000000
648095.000000
649142.000000
650177.000000
651184.000000
652189.000000
653195.000000
654212.000000
655230.000000
656295.000000
657354.000000
658397.000000
659436.000000
660492.000000
661549.000000
662577.000000
663614.000000
664649.000000
665670.000000
666712.000000
667762.000000
668795.000000
669824.000000
670855.000000
671860.000000
672850.000000
673836.000000
674849.000000
675848.000000
676827.000000
677816.000000
678809.000000
679825.000000
680815.000000
681820.000000
682822.000000
683810.000000
684799.000000
685790.000000
686777.000000
687763.000000
688769.000000
689809.000000
690824.000000
691833.000000
692863.000000
693892.000000
694903.000000
695910.000000
696928.000000
697908.000000
698904.000000
699910.000000
700903.000000
701901.000000
702934.000000
703938.000000
704929.000000
705927.000000
706936.000000
707917.000000
708907.000000
709947.000000
710967.000000
711931.000000
712887.000000
713844.000000
714769.000000
715606.000000
716460.000000
717366.000000
718328.000000
719312.000000
720312.000000
721310.000000
722281.000000
723240.000000
724232.000000
725212.000000
726206.000000
727201.000000
728194.000000
729191.000000
730178.000000
731190.000000
732212.000000
733257.000000
734291.000000
735335.000000
736388.000000
737417.000000
738429.000000
739436.000000
740475.000000
741528.000000
742574.000000
743582.000000
744623.000000
745663.000000
746726.000000
747776.000000
748840.000000
749921.000000
750993.000000
752050.000000
753090.000000
754141.000000
755205.000000
756276.000000
757343.000000
758431.000000
759505.000000
760552.000000
761632.000000
762701.000000
763733.000000
764738.000000
765769.000000
766822.000000
767871.000000
768908.000000
769948.000000
770975.000000
772006.000000
773023.000000
773959.000000
775108.000000
776151.000000
777189.000000
778243.000000
779305.000000
780361.000000
781421.000000
782497.000000
783578.000000
784629.000000
785703.000000
786775.000000
787812.000000
788838.000000
789879.000000
790936.000000
791969.000000
792996.000000
794041.000000
795095.000000
796118.000000
797159.000000
798187.000000
799220.000000
800246.000000
801297.000000
802348.000000
803390.000000
804432.000000
805510.000000
806576.000000
807633.000000
808710.000000
809770.000000
810839.000000
811933.000000
813011.000000
814055.000000
815131.000000
816195.000000
817231.000000
818298.000000
819374.000000
820435.000000
821501.000000
822571.000000
823633.000000
824688.000000
825738.000000
826753.000000
827778.000000
828803.000000
829798.000000
830828.000000
831854.000000
832866.000000
833910.000000
834943.000000
835938.000000
836945.000000
837959.000000
838966.000000
839987.000000
841013.000000
842045.000000
843037.000000
843994.000000
844900.000000
845805.000000
846749.000000
847708.000000
848678.000000
849629.000000
850593.000000
851552.000000
852522.000000
853520.000000
854553.000000
855607.000000
856668.000000
857729.000000
858784.000000
859864.000000
860936.000000
862017.000000
863085.000000
864114.000000
865152.000000
866223.000000
867286.000000
868335.000000
869405.000000
870510.000000
871582.000000
872684.000000
873783.000000
874851.000000
875889.000000
876923.000000
877978.000000
879057.000000
880107.000000
881194.000000
882269.000000
883306.000000
884364.000000
885442.000000
886495.000000
887549.000000
888610.000000
889670.000000
890753.000000
891858.000000
892931.000000
894020.000000
895117.000000
896168.000000
897232.000000
898282.000000
899316.000000
900356.000000
901407.000000
902421.000000
903473.000000
904515.000000
905525.000000
906582.000000
907642.000000
908668.000000
909716.000000
910789.000000
911844.000000
912906.000000
913971.000000
915006.000000
916063.000000
917128.000000
918182.000000
919218.000000
920259.000000
921294.000000
922324.000000
923363.000000
924401.000000
925417.000000
926378.000000
927337.000000
928369.000000
929415.000000
930429.000000
931414.000000
932406.000000
933418.000000
934447.000000
935481.000000
936523.000000
937581.000000
938610.000000
939633.000000
940675.000000
941735.000000
942815.000000
943892.000000
944981.000000
946075.000000
947160.000000
948212.000000
949241.000000
950274.000000
951329.000000
952394.000000
953465.000000
954499.000000
955534.000000
956572.000000
957634.000000
958698.000000
959722.000000
960755.000000
961803.000000
962850.000000
963891.000000
964951.000000
966018.000000
967060.000000
968120.000000
969182.000000
970221.000000
971257.000000
972328.000000
973409.000000
974461.000000
975516.000000
976578.000000
977616.000000
978648.000000
979699.000000
980742.000000
981765.000000
982802.000000
983866.000000
984933.000000
985985.000000
987047.000000
988096.000000
989133.000000
990199.000000
991273.000000
992329.000000
993373.000000
994451.000000
995497.000000
996506.000000
997523.000000
998473.000000
999339.000000
1000277.000000
1001217.000000
1002198.000000
1003207.000000
1004249.000000
1005251.000000
1006264.000000
1007278.000000
1008279.000000
1009288.000000
1010310.000000
1011329.000000
1012333.000000
1013343.000000
1014363.000000
1015377.000000
1016388.000000
1017417.000000
1018454.000000
1019486.000000
1020516.000000
1021553.000000
1022587.000000
1023595.000000
1024616.000000
1025644.000000
1026659.000000
1027669.000000
1028689.000000
1029711.000000
1030710.000000
1031728.000000
1032769.000000
1033783.000000
1034820.000000
1035861.000000
1036908.000000
1037937.000000
1038984.000000
1040011.000000
1041016.000000
1042047.000000
1043085.000000
1044105.000000
1045153.000000
1046230.000000
1047280.000000
1048329.000000
1049381.000000
1050418.000000
1051428.000000
1052457.000000
1053525.000000
1054600.000000
1055640.000000
1056717.000000
1057780.000000
1058833.000000
1059905.000000
1060999.000000
1062066.000000
1063113.000000
1064183.000000
1065254.000000
1066329.000000
1067388.000000
1068460.000000
1069527.000000
1070557.000000
1071615.000000
1072686.000000
1073716.000000
1074726.000000
1075750.000000
1076783.000000
1077813.000000
1078859.000000
1079910.000000
1080938.000000
1081977.000000
1083041.000000
1084110.000000
1085157.000000
1086211.000000
1087259.000000
1088306.000000
1089364.000000
1090423.000000
1091457.000000
1092510.000000
1093556.000000
1094569.000000
1095563.000000
1096572.000000
1097587.000000
1098589.000000
1099617.000000
1100663.000000
1101677.000000
1102711.000000
1103779.000000
1104810.000000
1105835.000000
1106877.000000
1107925.000000
1108961.000000
1110030.000000
1111099.000000
1112154.000000
1113200.000000
1114254.000000
1115332.000000
1116403.000000
1117483.000000
1118567.000000
1119634.000000
1120683.000000
1121720.000000
1122759.000000
1123791.000000
1124845.000000
1125894.000000
1126928.000000
1127962.000000
1129004.000000
1130048.000000
1131082.000000
1132120.000000
1133163.000000
1134185.000000
1135184.000000
1136187.000000
1137229.000000
1138270.000000
1139324.000000
1140396.000000
1141429.000000
1142452.000000
1143479.000000
1144512.000000
1145521.000000
1146541.000000
1147567.000000
1148570.000000
1149558.000000
1150579.000000
1151601.000000
1152613.000000
1153624.000000
1154643.000000
1155669.000000
1156683.000000
1157692.000000
1158726.000000
1159769.000000
1160776.000000
1161812.000000
1162872.000000
1163930.000000
1164954.000000
1165987.000000
1167017.000000
1168042.000000
1169065.000000
1170108.000000
1171137.000000
1172138.000000
1173115.000000
1174097.000000
1175093.000000
1176072.000000
1177045.000000
1178026.000000
1179035.000000
1180056.000000
1181120.000000
1182208.000000
1183281.000000
1184361.000000
1185436.000000
1186478.000000
1187551.000000
1188619.000000
1189658.000000
1190719.000000
1191770.000000
