ECG (ms)
488.000000
1523.000000
2555.000000
3567.000000
4552.000000
5545.000000
6600.000000
7662.000000
8698.000000
9708.000000
10776.000000
11836.000000
12860.000000
13888.000000
14942.000000
15956.000000
16963.000000
18052.000000
19153.000000
20229.000000
21270.000000
22322.000000
23416.000000
24524.000000
25613.000000
26662.000000
27733.000000
28855.000000
29981.000000
31065.000000
32108.000000
33191.000000
34319.000000
35397.000000
36465.000000
37518.000000
38618.000000
39726.000000
40802.000000
41851.000000
42925.000000
43971.000000
44995.000000
46045.000000
47116.000000
48185.000000
49216.000000
50267.000000
51336.000000
52375.000000
53381.000000
54399.000000
55436.000000
56446.000000
57419.000000
58412.000000
59437.000000
60433.000000
61431.000000
62447.000000
63519.000000
64555.000000
65563.000000
66610.000000
67620.000000
68591.000000
69567.000000
70618.000000
71691.000000
72756.000000
73816.000000
74890.000000
76012.000000
77122.000000
78201.000000
79282.000000
80359.000000
81409.000000
82435.000000
83476.000000
84525.000000
85522.000000
86559.000000
87612.000000
88626.000000
89626.000000
90657.000000
91674.000000
92673.000000
93654.000000
94676.000000
95716.000000
96714.000000
97711.000000
98754.000000
99795.000000
100795.000000
101822.000000
102836.000000
103812.000000
104808.000000
105830.000000
106871.000000
107896.000000
108949.000000
109981.000000
110986.000000
112014.000000
113035.000000
114017.000000
115008.000000
116066.000000
117100.000000
118111.000000
119149.000000
120240.000000
121298.000000
122320.000000
123330.000000
124335.000000
125264.000000
126119.000000
126970.000000
127881.000000
128814.000000
129794.000000
130807.000000
131830.000000
132828.000000
133855.000000
134907.000000
135930.000000
136954.000000
137998.000000
138996.000000
140013.000000
141054.000000
142115.000000
143153.000000
144191.000000
145270.000000
146325.000000
147336.000000
148340.000000
149388.000000
150435.000000
151449.000000
152486.000000
153548.000000
154604.000000
155620.000000
156589.000000
157581.000000
158633.000000
159663.000000
160664.000000
161668.000000
162694.000000
163716.000000
164715.000000
165719.000000
166781.000000
167868.000000
168926.000000
169980.000000
171049.000000
172172.000000
173244.000000
174285.000000
175326.000000
176419.000000
177484.000000
178516.000000
179559.000000
180632.000000
181695.000000
182738.000000
183792.000000
184886.000000
185973.000000
187039.000000
188110.000000
189220.000000
190301.000000
191361.000000
192456.000000
193560.000000
194617.000000
195669.000000
196758.000000
197817.000000
198836.000000
199865.000000
200928.000000
201950.000000
202938.000000
203966.000000
205031.000000
206055.000000
207064.000000
208109.000000
209163.000000
210179.000000
211198.000000
212236.000000
213244.000000
214231.000000
215262.000000
216287.000000
217290.000000
218271.000000
219284.000000
220328.000000
221361.000000
222390.000000
223464.000000
224506.000000
225529.000000
226528.000000
227575.000000
228642.000000
229676.000000
230676.000000
231713.000000
232791.000000
233828.000000
234861.000000
235904.000000
236999.000000
238077.000000
239109.000000
240102.000000
241139.000000
242234.000000
243338.000000
244396.000000
245458.000000
246545.000000
247620.000000
248656.000000
249736.000000
250833.000000
251907.000000
252975.000000
254105.000000
255236.000000
256304.000000
257359.000000
258432.000000
259451.000000
260371.000000
261299.000000
262286.000000
263330.000000
264403.000000
265475.000000
266514.000000
267537.000000
268613.000000
269700.000000
270753.000000
271811.000000
272880.000000
273927.000000
274952.000000
276022.000000
277104.000000
278169.000000
279213.000000
280270.000000
281340.000000
282375.000000
283393.000000
284446.000000
285512.000000
286562.000000
287604.000000
288717.000000
289830.000000
290892.000000
291941.000000
293024.000000
294108.000000
295163.000000
296239.000000
297313.000000
298365.000000
299457.000000
300553.000000
301615.000000
302645.000000
303717.000000
304779.000000
305804.000000
306883.000000
307962.000000
308993.000000
310041.000000
311134.000000
312238.000000
313297.000000
314344.000000
315415.000000
316457.000000
317480.000000
318540.000000
319556.000000
320565.000000
321633.000000
322714.000000
323746.000000
324807.000000
325908.000000
326983.000000
328039.000000
329089.000000
330174.000000
331234.000000
332251.000000
333270.000000
334348.000000
335425.000000
336477.000000
337547.000000
338665.000000
339788.000000
340870.000000
341965.000000
343090.000000
344208.000000
345272.000000
346368.000000
347482.000000
348586.000000
349669.000000
350759.000000
351818.000000
352752.000000
353657.000000
354649.000000
355643.000000
356712.000000
357814.000000
358844.000000
359891.000000
360956.000000
362033.000000
363099.000000
364115.000000
365144.000000
366205.000000
367252.000000
368267.000000
369328.000000
370400.000000
371452.000000
372486.000000
373555.000000
374627.000000
375669.000000
376737.000000
377802.000000
378830.000000
379914.000000
381053.000000
382185.000000
383285.000000
384411.000000
385532.000000
386581.000000
387636.000000
388764.000000
389846.000000
390889.000000
391986.000000
393121.000000
394255.000000
395336.000000
396463.000000
397608.000000
398748.000000
399862.000000
401018.000000
402149.000000
403236.000000
404333.000000
405448.000000
406521.000000
407569.000000
408685.000000
409809.000000
410890.000000
411955.000000
413053.000000
414114.000000
415143.000000
416177.000000
417212.000000
418228.000000
419251.000000
420311.000000
421339.000000
422364.000000
423394.000000
424444.000000
425458.000000
426446.000000
427450.000000
428418.000000
429384.000000
430381.000000
431429.000000
432493.000000
433545.000000
434566.000000
435591.000000
436680.000000
437742.000000
438771.000000
439808.000000
440892.000000
441966.000000
443000.000000
444014.000000
445067.000000
446139.000000
447179.000000
448184.000000
449195.000000
450258.000000
451330.000000
452388.000000
453417.000000
454474.000000
455562.000000
456634.000000
457737.000000
458841.000000
459932.000000
460984.000000
462060.000000
463166.000000
464283.000000
465362.000000
466421.000000
467521.000000
468632.000000
469698.000000
470735.000000
471728.000000
472787.000000
473871.000000
474937.000000
475978.000000
477005.000000
478082.000000
479154.000000
480189.000000
481251.000000
482328.000000
483383.000000
484424.000000
485457.000000
486540.000000
487682.000000
488779.000000
489838.000000
490897.000000
491915.000000
492892.000000
493875.000000
494917.000000
495960.000000
497021.000000
498065.000000
499093.000000
500158.000000
501230.000000
502240.000000
503249.000000
504279.000000
505300.000000
506297.000000
507322.000000
508342.000000
509333.000000
510354.000000
511371.000000
512357.000000
513349.000000
514353.000000
515370.000000
516343.000000
517348.000000
518382.000000
519444.000000
520491.000000
521560.000000
522625.000000
523633.000000
524654.000000
525717.000000
526753.000000
527791.000000
528844.000000
529896.000000
530906.000000
531902.000000
532958.000000
534001.000000
534988.000000
536000.000000
537046.000000
538059.000000
538994.000000
539841.000000
540717.000000
541682.000000
542675.000000
543695.000000
544715.000000
545685.000000
546683.000000
547728.000000
548760.000000
549795.000000
550885.000000
551971.000000
553028.000000
554057.000000
555119.000000
556169.000000
557188.000000
558222.000000
559264.000000
560273.000000
561310.000000
562375.000000
563393.000000
564423.000000
565508.000000
566597.000000
567659.000000
568733.000000
569840.000000
570925.000000
571988.000000
573096.000000
574210.000000
575294.000000
576363.000000
577450.000000
578541.000000
579600.000000
580654.000000
581734.000000
582807.000000
583851.000000
584916.000000
586024.000000
587113.000000
588199.000000
589323.000000
590405.000000
591464.000000
592594.000000
593708.000000
594782.000000
595930.000000
597111.000000
598276.000000
599446.000000
600600.000000
601692.000000
602771.000000
603903.000000
605040.000000
606152.000000
607236.000000
608354.000000
609475.000000
610565.000000
611676.000000
612810.000000
613923.000000
615049.000000
616180.000000
617297.000000
618404.000000
619534.000000
620687.000000
621793.000000
622923.000000
624047.000000
625141.000000
626225.000000
627309.000000
628357.000000
629405.000000
630476.000000
631524.000000
632565.000000
633643.000000
634718.000000
635796.000000
636901.000000
637988.000000
639086.000000
640205.000000
641292.000000
642385.000000
643501.000000
644600.000000
645694.000000
646821.000000
647943.000000
649050.000000
650157.000000
651295.000000
652369.000000
653348.000000
654361.000000
655374.000000
656404.000000
657477.000000
658542.000000
659563.000000
660618.000000
661717.000000
662768.000000
663771.000000
664812.000000
665912.000000
666980.000000
668005.000000
669076.000000
670167.000000
671245.000000
672313.000000
673424.000000
674497.000000
675547.000000
676642.000000
677740.000000
678789.000000
679853.000000
680949.000000
682019.000000
683060.000000
684147.000000
685244.000000
686316.000000
687365.000000
688459.000000
689577.000000
690644.000000
691715.000000
692824.000000
693896.000000
694973.000000
696065.000000
697144.000000
698211.000000
699321.000000
700469.000000
701569.000000
702692.000000
703857.000000
704984.000000
706040.000000
707157.000000
708272.000000
709363.000000
710444.000000
711565.000000
712668.000000
713716.000000
714767.000000
715841.000000
716895.000000
717954.000000
719057.000000
720125.000000
721154.000000
722223.000000
723295.000000
724349.000000
725428.000000
726509.000000
727580.000000
728664.000000
729771.000000
730851.000000
731913.000000
733020.000000
734097.000000
735149.000000
736240.000000
737352.000000
738409.000000
739512.000000
740625.000000
741673.000000
742741.000000
743810.000000
744848.000000
745830.000000
746846.000000
747878.000000
748910.000000
749892.000000
750895.000000
751943.000000
753010.000000
754053.000000
755158.000000
756264.000000
757326.000000
758389.000000
759484.000000
760561.000000
761616.000000
762702.000000
763802.000000
764888.000000
765906.000000
766919.000000
767997.000000
769063.000000
770117.000000
771191.000000
772291.000000
773368.000000
774423.000000
775496.000000
776566.000000
777651.000000
778749.000000
779911.000000
781032.000000
782110.000000
783196.000000
784294.000000
785328.000000
786357.000000
787393.000000
788448.000000
789503.000000
790521.000000
791545.000000
792603.000000
793627.000000
794639.000000
795652.000000
796695.000000
797739.000000
798768.000000
799790.000000
800830.000000
801893.000000
802961.000000
803977.000000
805011.000000
806059.000000
807114.000000
808155.000000
809230.000000
810290.000000
811306.000000
812343.000000
813417.000000
814471.000000
815519.000000
816594.000000
817703.000000
818787.000000
819859.000000
820955.000000
822041.000000
823100.000000
824186.000000
825278.000000
826313.000000
827370.000000
828417.000000
829442.000000
830480.000000
831539.000000
832584.000000
833599.000000
834641.000000
835700.000000
836730.000000
837789.000000
838848.000000
839870.000000
840894.000000
841961.000000
843032.000000
844074.000000
845146.000000
846243.000000
847295.000000
848336.000000
849383.000000
850417.000000
851441.000000
852500.000000
853563.000000
854605.000000
855680.000000
856779.000000
857839.000000
858899.000000
859985.000000
861058.000000
862093.000000
863166.000000
864251.000000
865300.000000
866325.000000
867404.000000
868486.000000
869552.000000
870605.000000
871689.000000
872792.000000
873867.000000
874933.000000
876019.000000
877140.000000
878226.000000
879297.000000
880386.000000
881483.000000
882548.000000
883609.000000
884703.000000
885802.000000
886884.000000
887941.000000
889016.000000
890109.000000
891170.000000
892195.000000
893256.000000
894312.000000
895340.000000
896387.000000
897478.000000
898563.000000
899590.000000
900608.000000
901648.000000
902710.000000
903735.000000
904744.000000
905782.000000
906827.000000
907850.000000
908915.000000
909984.000000
911030.000000
912062.000000
913129.000000
914190.000000
915217.000000
916250.000000
917275.000000
918268.000000
919257.000000
920289.000000
921327.000000
922329.000000
923354.000000
924407.000000
925454.000000
926487.000000
927538.000000
928580.000000
929591.000000
930624.000000
931675.000000
932730.000000
933739.000000
934769.000000
935809.000000
936841.000000
937868.000000
938924.000000
939978.000000
941004.000000
942058.000000
943134.000000
944187.000000
945236.000000
946311.000000
947398.000000
948452.000000
949537.000000
950626.000000
951683.000000
952776.000000
953868.000000
954902.000000
955925.000000
956979.000000
958043.000000
959059.000000
960074.000000
961136.000000
962222.000000
963281.000000
964348.000000
965441.000000
966541.000000
967619.000000
968741.000000
969878.000000
970986.000000
972106.000000
973254.000000
974360.000000
975469.000000
976600.000000
977707.000000
978790.000000
979933.000000
981092.000000
982218.000000
983321.000000
984455.000000
985587.000000
986688.000000
987776.000000
988889.000000
989967.000000
991088.000000
992244.000000
993368.000000
994464.000000
995564.000000
996679.000000
997751.000000
998815.000000
999925.000000
1001030.000000
1002094.000000
1003189.000000
1004302.000000
1005385.000000
1006478.000000
1007589.000000
1008653.000000
1009751.000000
1010878.000000
1011995.000000
1013068.000000
1014151.000000
1015246.000000
1016206.000000
1017107.000000
1018020.000000
1018959.000000
1019964.000000
1021013.000000
1022061.000000
1023085.000000
1024150.000000
1025279.000000
1026383.000000
1027439.000000
1028499.000000
1029610.000000
1030723.000000
1031808.000000
1032907.000000
1034010.000000
1035061.000000
1036122.000000
1037231.000000
1038324.000000
1039415.000000
1040505.000000
1041597.000000
1042657.000000
1043768.000000
1044867.000000
1045944.000000
1047067.000000
1048205.000000
1049288.000000
1050366.000000
1051482.000000
1052581.000000
1053642.000000
1054736.000000
1055863.000000
1056925.000000
1058019.000000
1059140.000000
1060233.000000
1061334.000000
1062450.000000
1063526.000000
1064586.000000
1065687.000000
1066775.000000
1067817.000000
1068850.000000
1069967.000000
1071093.000000
1072206.000000
1073284.000000
1074426.000000
1075568.000000
1076684.000000
1077802.000000
1078958.000000
1080120.000000
1081226.000000
1082335.000000
1083493.000000
1084618.000000
1085690.000000
1086770.000000
1087876.000000
1088972.000000
1090048.000000
1091099.000000
1092185.000000
1093305.000000
1094392.000000
1095463.000000
1096530.000000
1097613.000000
1098731.000000
1099842.000000
1100943.000000
1102029.000000
1103152.000000
1104277.000000
1105367.000000
1106436.000000
1107510.000000
1108616.000000
1109716.000000
1110811.000000
1111866.000000
1112930.000000
1114008.000000
1115086.000000
1116129.000000
1117197.000000
1118290.000000
1119368.000000
1120460.000000
1121577.000000
1122655.000000
1123715.000000
1124803.000000
1125903.000000
1126989.000000
1128043.000000
1129091.000000
1130173.000000
1131247.000000
1132318.000000
1133398.000000
1134505.000000
1135612.000000
1136705.000000
1137812.000000
1138934.000000
1140032.000000
1141127.000000
1142248.000000
1143326.000000
1144402.000000
1145503.000000
1146571.000000
1147631.000000
1148719.000000
1149804.000000
1150841.000000
1151902.000000
1152955.000000
1153971.000000
1155015.000000
1156072.000000
1157111.000000
1158157.000000
1159227.000000
1160288.000000
1161331.000000
1162405.000000
1163482.000000
1164521.000000
1165588.000000
1166672.000000
1167718.000000
1168758.000000
1169827.000000
1170857.000000
1171825.000000
1172733.000000
1173594.000000
1174509.000000
1175460.000000
1176508.000000
1177575.000000
1178624.000000
1179669.000000
1180753.000000
1181822.000000
1182869.000000
1183959.000000
1185016.000000
1186069.000000
1187173.000000
1188256.000000
1189306.000000
1190380.000000
1191481.000000
1192552.000000
1193612.000000
1194731.000000
1195834.000000
1196915.000000
1198034.000000
1199154.000000
1200249.000000
1201316.000000
1202390.000000
1203514.000000
1204651.000000
1205770.000000
1206865.000000
