ECG (ms)
782.000000
2027.000000
3268.000000
4509.000000
5749.000000
7004.000000
8263.000000
9523.000000
10797.000000
12064.000000
13331.000000
14589.000000
15837.000000
17096.000000
18364.000000
19612.000000
20879.000000
22137.000000
23366.000000
24613.000000
25868.000000
27107.000000
28355.000000
29648.000000
30928.000000
32208.000000
33524.000000
34845.000000
36160.000000
37473.000000
38791.000000
40122.000000
41455.000000
42784.000000
44082.000000
45402.000000
46733.000000
48069.000000
49373.000000
50657.000000
51924.000000
53174.000000
54418.000000
55688.000000
56929.000000
58158.000000
59389.000000
60593.000000
61773.000000
62936.000000
64069.000000
65197.000000
66342.000000
67506.000000
68679.000000
69846.000000
71035.000000
72230.000000
73401.000000
74582.000000
75766.000000
76932.000000
78120.000000
79310.000000
80492.000000
81672.000000
82855.000000
84024.000000
85211.000000
86395.000000
87574.000000
88747.000000
89932.000000
91122.000000
92300.000000
93484.000000
94698.000000
95895.000000
97100.000000
98319.000000
99526.000000
100731.000000
101937.000000
103129.000000
104326.000000
105560.000000
106818.000000
108072.000000
109346.000000
110636.000000
111903.000000
113178.000000
114498.000000
115830.000000
117139.000000
118437.000000
119743.000000
121067.000000
122411.000000
123750.000000
125098.000000
126421.000000
127752.000000
129087.000000
130417.000000
131778.000000
133110.000000
134435.000000
135768.000000
137077.000000
138380.000000
139714.000000
141023.000000
142324.000000
143653.000000
144956.000000
146280.000000
147592.000000
148895.000000
150234.000000
151564.000000
152895.000000
154239.000000
155554.000000
156867.000000
158194.000000
159492.000000
160784.000000
162066.000000
163342.000000
164606.000000
165866.000000
167104.000000
168330.000000
169594.000000
170863.000000
172117.000000
173385.000000
174621.000000
175851.000000
177088.000000
178319.000000
179550.000000
180797.000000
182044.000000
183290.000000
184557.000000
185814.000000
187062.000000
188331.000000
189609.000000
190884.000000
192188.000000
193492.000000
194774.000000
196039.000000
197280.000000
198491.000000
199707.000000
200923.000000
202119.000000
203351.000000
204574.000000
205770.000000
206964.000000
208106.000000
209273.000000
210451.000000
211660.000000
212866.000000
214078.000000
215292.000000
216497.000000
217717.000000
218948.000000
220169.000000
221403.000000
222653.000000
223893.000000
225140.000000
226413.000000
227683.000000
228948.000000
230214.000000
231451.000000
232685.000000
233922.000000
235166.000000
236408.000000
237649.000000
238877.000000
240108.000000
241347.000000
242597.000000
243849.000000
245110.000000
246370.000000
247632.000000
248879.000000
250149.000000
251398.000000
252643.000000
253899.000000
255137.000000
256354.000000
257584.000000
258809.000000
260044.000000
261338.000000
262616.000000
263906.000000
265207.000000
266490.000000
267775.000000
269048.000000
270322.000000
271592.000000
272863.000000
274118.000000
275391.000000
276655.000000
277901.000000
279140.000000
280400.000000
281653.000000
282903.000000
284160.000000
285402.000000
286636.000000
287867.000000
289087.000000
290317.000000
291545.000000
292776.000000
293990.000000
295211.000000
296419.000000
297657.000000
298935.000000
300214.000000
301493.000000
302766.000000
304012.000000
305273.000000
306505.000000
307734.000000
308970.000000
310220.000000
311481.000000
312770.000000
314059.000000
315335.000000
316610.000000
317881.000000
319119.000000
320379.000000
321623.000000
322832.000000
324060.000000
325319.000000
326561.000000
327816.000000
329088.000000
330355.000000
331608.000000
332884.000000
334146.000000
335372.000000
336623.000000
337864.000000
339124.000000
340421.000000
341693.000000
342952.000000
344198.000000
345464.000000
346717.000000
348000.000000
349322.000000
350624.000000
351914.000000
353202.000000
354466.000000
355721.000000
356983.000000
358221.000000
359436.000000
360684.000000
361937.000000
363205.000000
364493.000000
365751.000000
367014.000000
368269.000000
369531.000000
370789.000000
372053.000000
373337.000000
374615.000000
375887.000000
377149.000000
378398.000000
379640.000000
380888.000000
382148.000000
383388.000000
384636.000000
385871.000000
387106.000000
388329.000000
389558.000000
390803.000000
392014.000000
393258.000000
394491.000000
395713.000000
396984.000000
398248.000000
399482.000000
400712.000000
401935.000000
403142.000000
404384.000000
405633.000000
406885.000000
408162.000000
409406.000000
410656.000000
411913.000000
413150.000000
414369.000000
415607.000000
416831.000000
418072.000000
419332.000000
420586.000000
421848.000000
423097.000000
424340.000000
425603.000000
426865.000000
428120.000000
429370.000000
430624.000000
431844.000000
433054.000000
434286.000000
435517.000000
436782.000000
438041.000000
439279.000000
440519.000000
441766.000000
443002.000000
444252.000000
445523.000000
446790.000000
448010.000000
449249.000000
450512.000000
451769.000000
453058.000000
454338.000000
455588.000000
456857.000000
458103.000000
459312.000000
460556.000000
461833.000000
463102.000000
464400.000000
465700.000000
466969.000000
468218.000000
469472.000000
470705.000000
471902.000000
473052.000000
474193.000000
475367.000000
476586.000000
477812.000000
479107.000000
480412.000000
481704.000000
483012.000000
484303.000000
485558.000000
486822.000000
488095.000000
489361.000000
490634.000000
491896.000000
493142.000000
494410.000000
495667.000000
496909.000000
498168.000000
499433.000000
500699.000000
501988.000000
503290.000000
504575.000000
505871.000000
507151.000000
508399.000000
509651.000000
510887.000000
512123.000000
513369.000000
514612.000000
515835.000000
517050.000000
518268.000000
519485.000000
520754.000000
522028.000000
523290.000000
524583.000000
525884.000000
527140.000000
528396.000000
529664.000000
530916.000000
532160.000000
533418.000000
534666.000000
535893.000000
537132.000000
538367.000000
539575.000000
540793.000000
542009.000000
543206.000000
544424.000000
545632.000000
546854.000000
548120.000000
549374.000000
550639.000000
551922.000000
553180.000000
554452.000000
555708.000000
556946.000000
558212.000000
559461.000000
560704.000000
561973.000000
563228.000000
564457.000000
565700.000000
566940.000000
568167.000000
569420.000000
570649.000000
571855.000000
573064.000000
574287.000000
575483.000000
576680.000000
577896.000000
579102.000000
580357.000000
581604.000000
582841.000000
584088.000000
585312.000000
586527.000000
587739.000000
588937.000000
590153.000000
591381.000000
592613.000000
593859.000000
595085.000000
596314.000000
597573.000000
598816.000000
600073.000000
601303.000000
602494.000000
603676.000000
604823.000000
605941.000000
607096.000000
608285.000000
609478.000000
610709.000000
611946.000000
613196.000000
614489.000000
615770.000000
617063.000000
618370.000000
619670.000000
620929.000000
622195.000000
623456.000000
624727.000000
626015.000000
627304.000000
628580.000000
629866.000000
631136.000000
632406.000000
633636.000000
634869.000000
636101.000000
637326.000000
638570.000000
639843.000000
641098.000000
642363.000000
643621.000000
644865.000000
646086.000000
647324.000000
648553.000000
649776.000000
651034.000000
652337.000000
653615.000000
654916.000000
656220.000000
657497.000000
658773.000000
660053.000000
661311.000000
662557.000000
663817.000000
665070.000000
666302.000000
667534.000000
668787.000000
670029.000000
671262.000000
672499.000000
673724.000000
674939.000000
676180.000000
677426.000000
678663.000000
679919.000000
681164.000000
682408.000000
683664.000000
684910.000000
686176.000000
687448.000000
688700.000000
689961.000000
691217.000000
692455.000000
693712.000000
694961.000000
696194.000000
697444.000000
698693.000000
699936.000000
701178.000000
702408.000000
703617.000000
704827.000000
706036.000000
707274.000000
708508.000000
709741.000000
710980.000000
712244.000000
713529.000000
714794.000000
716046.000000
717301.000000
718548.000000
719811.000000
721081.000000
722328.000000
723581.000000
724868.000000
726118.000000
727366.000000
728630.000000
729874.000000
731116.000000
732358.000000
733561.000000
734755.000000
735902.000000
737040.000000
738224.000000
739432.000000
740663.000000
741951.000000
743216.000000
744494.000000
745797.000000
747069.000000
748356.000000
749647.000000
750909.000000
752190.000000
753478.000000
754738.000000
756001.000000
757281.000000
758535.000000
759773.000000
761030.000000
762270.000000
763503.000000
764755.000000
765997.000000
767245.000000
768502.000000
769750.000000
770995.000000
772238.000000
773479.000000
774732.000000
776009.000000
777280.000000
778541.000000
779822.000000
781090.000000
782345.000000
783595.000000
784847.000000
786112.000000
787373.000000
788636.000000
789915.000000
791178.000000
792436.000000
793726.000000
794992.000000
796260.000000
797573.000000
798840.000000
800115.000000
801412.000000
802704.000000
804008.000000
805290.000000
806558.000000
807843.000000
809108.000000
810364.000000
811641.000000
812898.000000
814150.000000
815401.000000
816622.000000
817843.000000
819055.000000
820293.000000
821594.000000
822858.000000
824116.000000
825406.000000
826683.000000
827936.000000
829206.000000
830444.000000
831669.000000
832918.000000
834187.000000
835435.000000
836695.000000
837941.000000
839178.000000
840430.000000
841693.000000
842945.000000
844202.000000
845469.000000
846722.000000
847964.000000
849210.000000
850467.000000
851722.000000
852982.000000
854237.000000
855477.000000
856731.000000
858004.000000
859263.000000
860516.000000
861784.000000
863044.000000
864345.000000
865615.000000
866867.000000
868140.000000
869402.000000
870635.000000
871887.000000
873119.000000
874340.000000
875606.000000
876852.000000
878092.000000
879383.000000
880656.000000
881924.000000
883214.000000
884455.000000
885650.000000
886805.000000
887933.000000
889122.000000
890339.000000
891584.000000
892868.000000
894149.000000
895466.000000
896798.000000
898103.000000
899437.000000
900743.000000
901998.000000
903255.000000
904509.000000
905742.000000
907004.000000
908291.000000
909567.000000
910841.000000
912121.000000
913386.000000
914684.000000
915989.000000
917279.000000
918576.000000
919873.000000
921141.000000
922395.000000
923649.000000
924896.000000
926132.000000
927372.000000
928622.000000
929896.000000
931142.000000
932375.000000
933637.000000
934908.000000
936152.000000
937383.000000
938618.000000
939866.000000
941098.000000
942345.000000
943647.000000
944866.000000
946091.000000
947305.000000
948517.000000
949768.000000
950989.000000
952273.000000
953509.000000
954751.000000
956017.000000
957262.000000
958543.000000
959851.000000
961129.000000
962404.000000
963702.000000
964992.000000
966265.000000
967548.000000
968863.000000
970163.000000
971441.000000
972732.000000
974029.000000
975307.000000
976568.000000
977835.000000
979089.000000
980341.000000
981595.000000
982844.000000
984067.000000
985312.000000
986558.000000
987805.000000
989085.000000
990366.000000
991621.000000
992903.000000
994164.000000
995400.000000
996642.000000
997885.000000
999124.000000
1000380.000000
1001636.000000
1002875.000000
1004099.000000
1005339.000000
1006562.000000
1007786.000000
1009031.000000
1010258.000000
1011480.000000
1012717.000000
1013931.000000
1015167.000000
1016426.000000
1017669.000000
1018959.000000
1020226.000000
1021461.000000
1022713.000000
1023944.000000
1025166.000000
1026399.000000
1027631.000000
1028890.000000
1030162.000000
1031440.000000
1032747.000000
1034042.000000
1035323.000000
1036617.000000
1037904.000000
1039177.000000
1040458.000000
1041725.000000
1042969.000000
1044217.000000
1045466.000000
1046707.000000
1047913.000000
1049120.000000
1050350.000000
1051584.000000
1052845.000000
1054119.000000
1055389.000000
1056674.000000
1057936.000000
1059152.000000
1060324.000000
1061495.000000
1062715.000000
1063938.000000
1065169.000000
1066408.000000
1067657.000000
1068935.000000
1070179.000000
1071438.000000
1072710.000000
1073963.000000
1075225.000000
1076502.000000
1077768.000000
1079052.000000
1080332.000000
1081588.000000
1082860.000000
1084129.000000
1085399.000000
1086674.000000
1087932.000000
1089183.000000
1090458.000000
1091725.000000
1093003.000000
1094292.000000
1095595.000000
1096894.000000
1098157.000000
1099444.000000
1100749.000000
1102071.000000
1103428.000000
1104770.000000
1106066.000000
1107370.000000
1108649.000000
1109904.000000
1111165.000000
1112425.000000
1113673.000000
1114966.000000
1116258.000000
1117526.000000
1118783.000000
1120031.000000
1121267.000000
1122513.000000
1123751.000000
1124982.000000
1126230.000000
1127484.000000
1128735.000000
1129999.000000
1131273.000000
1132536.000000
1133819.000000
1135090.000000
1136334.000000
1137582.000000
1138821.000000
1140045.000000
1141278.000000
1142509.000000
1143746.000000
1145016.000000
1146281.000000
1147534.000000
1148779.000000
1149991.000000
1151187.000000
1152341.000000
1153495.000000
1154687.000000
1155891.000000
1157107.000000
1158367.000000
1159620.000000
1160917.000000
1162233.000000
1163510.000000
1164808.000000
1166106.000000
1167398.000000
1168704.000000
1170018.000000
1171331.000000
1172678.000000
1174006.000000
1175322.000000
1176644.000000
1177954.000000
1179240.000000
1180515.000000
1181782.000000
1183033.000000
1184277.000000
1185547.000000
1186833.000000
1188098.000000
1189373.000000
1190668.000000
1191952.000000
1193223.000000
1194489.000000
1195749.000000
1197005.000000
1198297.000000
1199596.000000
1200862.000000
1202120.000000
1203408.000000
1204704.000000
1205988.000000
1207295.000000
1208593.000000
1209864.000000
1211146.000000
1212412.000000
1213670.000000
1214962.000000
1216246.000000
1217506.000000
1218780.000000
1220053.000000
1221321.000000
1222613.000000
1223895.000000
1225164.000000
1226442.000000
1227725.000000
1228993.000000
1230268.000000
1231545.000000
1232809.000000
1234061.000000
1235342.000000
1236607.000000
1237859.000000
1239136.000000
1240406.000000
1241642.000000
1242885.000000
1244116.000000
1245344.000000
1246588.000000
1247794.000000
1249038.000000
1250296.000000
1251545.000000
1252840.000000
1254128.000000
1255408.000000
1256727.000000
1258040.000000
1259330.000000
1260634.000000
1261919.000000
1263188.000000
1264473.000000
1265771.000000
1267036.000000
1268316.000000
1269612.000000
1270886.000000
1272147.000000
1273439.000000
1274730.000000
1276008.000000
1277297.000000
1278574.000000
1279839.000000
1281112.000000
1282385.000000
1283639.000000
1284910.000000
1286194.000000
1287467.000000
1288732.000000
1290011.000000
1291282.000000
1292550.000000
1293835.000000
1295123.000000
1296422.000000
1297737.000000
1299039.000000
1300318.000000
1301616.000000
1302912.000000
1304189.000000
1305500.000000
1306813.000000
1308125.000000
1309455.000000
1310744.000000
1312048.000000
1313307.000000
1314526.000000
1315763.000000
1316995.000000
1318242.000000
1319529.000000
1320798.000000
1322108.000000
1323440.000000
1324725.000000
1326040.000000
1327342.000000
1328630.000000
1329932.000000
1331238.000000
1332517.000000
1333806.000000
1335105.000000
1336379.000000
1337638.000000
1338891.000000
1340125.000000
1341339.000000
1342559.000000
1343807.000000
1345049.000000
1346279.000000
1347510.000000
1348730.000000
1349968.000000
1351258.000000
1352556.000000
1353823.000000
1355121.000000
1356421.000000
1357705.000000
1359016.000000
1360311.000000
1361590.000000
1362849.000000
1364103.000000
1365381.000000
1366649.000000
1367909.000000
1369199.000000
1370495.000000
1371778.000000
1373100.000000
1374410.000000
1375696.000000
1376981.000000
1378281.000000
1379553.000000
1380818.000000
1382110.000000
1383396.000000
1384657.000000
1385935.000000
1387196.000000
1388430.000000
1389690.000000
1390974.000000
1392262.000000
1393612.000000
1394944.000000
1396269.000000
1397590.000000
1398889.000000
1400169.000000
1401484.000000
1402811.000000
1404110.000000
1405430.000000
1406736.000000
1408015.000000
1409311.000000
1410612.000000
1411892.000000
1413195.000000
1414495.000000
1415771.000000
1417030.000000
1418312.000000
1419570.000000
1420806.000000
1422091.000000
1423390.000000
1424675.000000
1425984.000000
1427305.000000
1428589.000000
1429857.000000
1431140.000000
1432420.000000
1433686.000000
1434986.000000
1436287.000000
1437549.000000
1438818.000000
1440092.000000
1441362.000000
1442628.000000
1443870.000000
1445079.000000
1446290.000000
1447486.000000
1448714.000000
1449954.000000
1451175.000000
1452431.000000
1453712.000000
1454998.000000
1456315.000000
1457635.000000
1458920.000000
1460234.000000
1461536.000000
1462815.000000
1464117.000000
1465438.000000
1466738.000000
1468019.000000
1469309.000000
1470588.000000
1471857.000000
1473159.000000
1474471.000000
1475756.000000
1477038.000000
1478357.000000
1479662.000000
1480943.000000
1482216.000000
1483500.000000
1484787.000000
1486071.000000
1487362.000000
1488630.000000
1489865.000000
1491117.000000
1492364.000000
1493582.000000
1494806.000000
1496013.000000
1497214.000000
1498452.000000
1499677.000000
1500895.000000
1502136.000000
1503377.000000
1504658.000000
1505949.000000
1507228.000000
1508537.000000
1509824.000000
1511082.000000
1512348.000000
1513603.000000
1514844.000000
1516115.000000
1517391.000000
1518695.000000
1520033.000000
1521354.000000
1522657.000000
1523959.000000
1525262.000000
1526550.000000
1527846.000000
1529144.000000
1530438.000000
1531707.000000
1532990.000000
1534259.000000
1535510.000000
1536761.000000
1538022.000000
1539282.000000
1540555.000000
1541822.000000
1543094.000000
1544352.000000
1545585.000000
1546848.000000
1548111.000000
1549375.000000
1550674.000000
1551936.000000
1553177.000000
1554391.000000
1555545.000000
1556755.000000
1557976.000000
1559201.000000
1560451.000000
1561672.000000
1562915.000000
1564156.000000
1565413.000000
1566719.000000
1568017.000000
1569325.000000
1570648.000000
1571963.000000
1573306.000000
1574642.000000
1575934.000000
1577220.000000
1578513.000000
1579819.000000
1581132.000000
1582442.000000
1583729.000000
1585027.000000
1586356.000000
1587684.000000
1589039.000000
1590372.000000
1591685.000000
1592995.000000
1594299.000000
1595569.000000
1596844.000000
1598118.000000
1599391.000000
1600688.000000
1601966.000000
1603248.000000
1604544.000000
1605835.000000
1607135.000000
1608449.000000
1609750.000000
1611033.000000
1612299.000000
1613565.000000
1614847.000000
1616116.000000
1617390.000000
1618696.000000
1619997.000000
1621284.000000
1622570.000000
1623839.000000
1625122.000000
1626399.000000
1627658.000000
1628920.000000
1630202.000000
1631484.000000
1632757.000000
1634030.000000
1635286.000000
1636532.000000
1637785.000000
1639048.000000
1640297.000000
1641541.000000
1642772.000000
1644019.000000
1645278.000000
1646532.000000
1647795.000000
1649061.000000
1650299.000000
1651562.000000
1652827.000000
1654089.000000
1655367.000000
1656629.000000
1657906.000000
1659176.000000
1660439.000000
1661698.000000
1662949.000000
1664217.000000
1665505.000000
1666787.000000
1668087.000000
1669381.000000
1670670.000000
1671952.000000
1673228.000000
1674505.000000
1675776.000000
1677036.000000
1678305.000000
1679582.000000
1680856.000000
1682127.000000
1683378.000000
1684656.000000
1685941.000000
1687226.000000
1688538.000000
1689808.000000
1691073.000000
1692347.000000
1693607.000000
1694883.000000
1696168.000000
1697444.000000
1698702.000000
1699928.000000
1701151.000000
1702400.000000
1703642.000000
1704910.000000
1706195.000000
1707484.000000
1708791.000000
1710084.000000
1711360.000000
1712653.000000
1713911.000000
1715159.000000
1716435.000000
1717704.000000
1718990.000000
1720274.000000
1721558.000000
1722850.000000
1724126.000000
1725389.000000
1726659.000000
1727907.000000
1729140.000000
1730412.000000
1731685.000000
1732969.000000
1734267.000000
1735533.000000
1736814.000000
1738108.000000
1739387.000000
1740658.000000
1741936.000000
1743187.000000
1744418.000000
1745683.000000
1746958.000000
1748255.000000
1749565.000000
1750859.000000
1752156.000000
1753451.000000
1754720.000000
1755978.000000
1757259.000000
1758533.000000
1759815.000000
1761120.000000
1762413.000000
1763691.000000
1764953.000000
1766220.000000
1767450.000000
1768707.000000
1769962.000000
1771228.000000
1772528.000000
1773796.000000
1775093.000000
1776376.000000
1777653.000000
1778945.000000
1780199.000000
1781478.000000
1782762.000000
1784040.000000
1785321.000000
1786597.000000
1787857.000000
1789140.000000
1790400.000000
1791668.000000
1792960.000000
1794239.000000
1795514.000000
1796776.000000
