ECG (ms)
633.000000
1677.000000
2765.000000
3829.000000
4811.000000
5712.000000
6549.000000
7456.000000
8442.000000
9572.000000
10478.000000
11357.000000
12534.000000
13625.000000
14782.000000
15896.000000
16941.000000
18034.000000
19159.000000
20217.000000
21311.000000
22420.000000
23495.000000
24700.000000
25868.000000
26982.000000
28131.000000
29282.000000
30377.000000
31566.000000
32733.000000
33860.000000
35088.000000
36274.000000
37404.000000
38598.000000
39756.000000
40878.000000
42033.000000
43169.000000
44308.000000
45510.000000
46659.000000
47814.000000
48997.000000
50085.000000
51213.000000
52387.000000
53534.000000
54628.000000
55771.000000
56872.000000
58005.000000
59123.000000
60261.000000
61413.000000
62496.000000
63573.000000
64730.000000
65900.000000
67027.000000
68205.000000
69311.000000
70359.000000
71313.000000
72296.000000
73410.000000
74518.000000
75641.000000
76733.000000
77834.000000
78946.000000
80065.000000
81128.000000
82209.000000
83338.000000
84445.000000
85519.000000
86749.000000
87906.000000
88982.000000
90069.000000
91151.000000
92236.000000
93338.000000
94482.000000
95558.000000
96624.000000
97726.000000
98786.000000
99824.000000
100866.000000
101952.000000
103014.000000
104136.000000
105237.000000
106318.000000
107387.000000
108471.000000
109553.000000
110569.000000
111599.000000
112694.000000
113766.000000
114818.000000
115915.000000
117016.000000
118081.000000
119177.000000
120278.000000
121322.000000
122397.000000
123540.000000
124643.000000
125731.000000
126872.000000
127987.000000
129083.000000
130225.000000
131330.000000
132398.000000
133526.000000
134663.000000
135781.000000
136861.000000
138003.000000
139145.000000
140231.000000
141367.000000
142516.000000
143616.000000
144771.000000
145903.000000
146998.000000
148142.000000
149268.000000
150331.000000
151423.000000
152510.000000
153585.000000
154698.000000
155864.000000
156995.000000
158144.000000
159317.000000
160433.000000
161576.000000
162753.000000
163851.000000
164985.000000
166086.000000
167142.000000
168252.000000
169398.000000
170511.000000
171683.000000
172855.000000
173950.000000
175068.000000
176202.000000
177322.000000
178418.000000
179485.000000
180615.000000
181753.000000
182835.000000
183907.000000
184872.000000
185749.000000
186713.000000
187842.000000
188906.000000
189999.000000
191080.000000
192122.000000
193239.000000
194336.000000
195384.000000
196437.000000
197514.000000
198568.000000
199607.000000
200723.000000
201804.000000
202836.000000
203908.000000
204954.000000
205980.000000
207009.000000
208062.000000
209127.000000
210185.000000
211238.000000
212291.000000
213291.000000
214268.000000
215279.000000
216315.000000
217364.000000
218463.000000
219619.000000
220696.000000
221777.000000
222873.000000
223924.000000
224954.000000
226019.000000
227079.000000
228128.000000
229252.000000
230322.000000
231368.000000
232461.000000
233515.000000
234547.000000
235586.000000
236554.000000
237453.000000
238284.000000
239264.000000
240348.000000
241491.000000
242594.000000
243622.000000
244694.000000
245763.000000
246787.000000
247852.000000
248923.000000
249943.000000
250975.000000
252061.000000
253092.000000
254106.000000
255173.000000
256223.000000
257232.000000
258286.000000
259358.000000
260378.000000
261444.000000
262537.000000
263582.000000
264662.000000
265750.000000
266793.000000
267858.000000
268943.000000
270018.000000
271117.000000
272216.000000
273287.000000
274410.000000
275530.000000
276615.000000
277697.000000
278832.000000
279949.000000
281055.000000
282199.000000
283342.000000
284444.000000
285545.000000
286669.000000
287729.000000
288829.000000
289914.000000
290964.000000
292022.000000
293123.000000
294228.000000
295310.000000
296455.000000
297556.000000
298672.000000
299810.000000
300946.000000
302039.000000
303158.000000
304306.000000
305372.000000
306465.000000
307560.000000
308580.000000
309683.000000
310827.000000
311922.000000
313055.000000
314160.000000
315207.000000
316323.000000
317469.000000
318561.000000
319625.000000
320775.000000
321893.000000
322998.000000
324173.000000
325348.000000
326472.000000
327642.000000
328827.000000
329942.000000
331082.000000
332251.000000
333384.000000
334533.000000
335683.000000
336800.000000
337947.000000
339087.000000
340196.000000
341286.000000
342396.000000
343531.000000
344664.000000
345777.000000
346909.000000
348028.000000
349145.000000
350287.000000
351370.000000
352480.000000
353596.000000
354685.000000
355822.000000
356990.000000
358082.000000
359163.000000
360268.000000
361331.000000
362389.000000
363466.000000
364519.000000
365652.000000
366765.000000
367826.000000
368905.000000
369982.000000
370925.000000
371769.000000
372580.000000
373363.000000
374235.000000
375333.000000
376453.000000
377553.000000
378603.000000
379592.000000
380633.000000
381656.000000
382705.000000
383812.000000
384918.000000
385987.000000
387054.000000
388131.000000
389173.000000
390200.000000
391284.000000
392403.000000
393462.000000
394546.000000
395672.000000
396746.000000
397817.000000
398913.000000
399970.000000
401021.000000
402114.000000
403207.000000
404260.000000
405333.000000
406443.000000
407554.000000
408634.000000
409717.000000
410839.000000
411935.000000
412999.000000
414114.000000
415267.000000
416355.000000
417458.000000
418587.000000
419691.000000
420828.000000
421997.000000
423119.000000
424235.000000
425380.000000
426538.000000
427646.000000
428805.000000
429936.000000
431048.000000
432195.000000
433277.000000
434326.000000
435408.000000
436493.000000
437574.000000
438675.000000
439776.000000
440860.000000
441986.000000
443098.000000
444188.000000
445310.000000
446409.000000
447461.000000
448514.000000
449626.000000
450704.000000
451778.000000
452916.000000
454040.000000
455147.000000
456243.000000
457339.000000
458443.000000
459534.000000
460591.000000
461726.000000
462850.000000
463949.000000
465070.000000
466207.000000
467312.000000
468395.000000
469526.000000
470603.000000
471705.000000
472862.000000
473952.000000
475049.000000
476207.000000
477309.000000
478417.000000
479544.000000
480639.000000
481706.000000
482811.000000
483878.000000
484946.000000
486068.000000
487165.000000
488220.000000
489313.000000
490408.000000
491487.000000
492562.000000
493685.000000
494801.000000
495909.000000
497051.000000
498214.000000
499345.000000
500468.000000
501592.000000
502695.000000
503754.000000
504825.000000
505985.000000
507189.000000
508327.000000
509470.000000
510641.000000
511760.000000
512826.000000
513919.000000
515002.000000
516049.000000
517171.000000
518302.000000
519386.000000
520537.000000
521690.000000
522801.000000
523946.000000
525035.000000
526109.000000
527227.000000
528331.000000
529406.000000
530501.000000
531555.000000
532595.000000
533677.000000
534749.000000
535806.000000
536883.000000
537976.000000
539028.000000
540121.000000
541245.000000
542359.000000
543427.000000
544509.000000
545606.000000
546634.000000
547691.000000
548776.000000
549825.000000
550875.000000
551981.000000
553072.000000
554114.000000
555213.000000
556301.000000
557341.000000
558387.000000
559444.000000
560471.000000
561539.000000
562650.000000
563718.000000
564765.000000
565858.000000
566926.000000
567961.000000
569036.000000
570108.000000
571195.000000
572246.000000
573317.000000
574393.000000
575459.000000
576534.000000
577664.000000
578788.000000
579873.000000
581015.000000
582139.000000
583202.000000
584262.000000
585206.000000
586059.000000
586857.000000
587663.000000
589036.000000
590153.000000
591291.000000
592408.000000
593481.000000
594650.000000
595793.000000
596866.000000
597983.000000
599112.000000
600183.000000
601302.000000
602490.000000
603598.000000
604721.000000
605876.000000
606989.000000
608057.000000
609158.000000
610332.000000
611450.000000
612610.000000
613779.000000
614932.000000
616069.000000
617254.000000
618429.000000
619556.000000
620724.000000
621862.000000
622973.000000
624139.000000
625299.000000
626424.000000
627599.000000
628760.000000
629873.000000
631025.000000
632150.000000
633240.000000
634372.000000
635516.000000
636614.000000
637760.000000
638924.000000
640067.000000
641233.000000
642359.000000
643447.000000
644547.000000
645670.000000
646819.000000
647943.000000
649166.000000
650380.000000
651550.000000
652738.000000
653930.000000
655049.000000
656178.000000
657307.000000
658393.000000
659484.000000
660635.000000
661776.000000
662910.000000
664098.000000
665282.000000
666449.000000
667635.000000
668751.000000
669868.000000
671012.000000
672138.000000
673249.000000
674386.000000
675525.000000
676611.000000
677731.000000
678859.000000
679935.000000
681036.000000
682142.000000
683240.000000
684355.000000
685479.000000
686570.000000
687682.000000
688796.000000
689858.000000
690974.000000
692109.000000
693224.000000
694292.000000
695367.000000
696479.000000
697582.000000
698685.000000
699837.000000
701015.000000
702118.000000
703251.000000
704391.000000
705513.000000
706684.000000
707827.000000
709017.000000
710209.000000
711306.000000
712381.000000
713518.000000
714643.000000
715766.000000
716957.000000
718126.000000
719279.000000
720450.000000
721600.000000
722714.000000
723873.000000
725022.000000
726125.000000
727237.000000
728367.000000
729457.000000
730574.000000
731658.000000
732728.000000
733827.000000
734959.000000
736036.000000
737163.000000
738292.000000
739355.000000
740446.000000
741576.000000
742667.000000
743767.000000
744891.000000
745959.000000
747061.000000
748205.000000
749330.000000
750414.000000
751541.000000
752632.000000
753682.000000
754791.000000
755937.000000
757052.000000
758195.000000
759324.000000
760405.000000
761565.000000
762724.000000
763821.000000
764936.000000
766041.000000
767116.000000
768186.000000
769309.000000
770430.000000
771556.000000
772649.000000
773797.000000
774924.000000
776014.000000
777130.000000
778245.000000
779320.000000
780389.000000
781520.000000
782645.000000
783716.000000
784769.000000
785898.000000
786891.000000
787809.000000
788645.000000
789677.000000
790564.000000
791432.000000
792543.000000
793592.000000
794667.000000
795733.000000
796730.000000
797664.000000
798706.000000
799852.000000
800956.000000
802063.000000
803172.000000
804239.000000
805280.000000
806361.000000
807466.000000
808500.000000
809531.000000
810590.000000
811648.000000
812675.000000
813788.000000
814911.000000
815983.000000
817069.000000
818168.000000
819229.000000
820288.000000
821385.000000
822436.000000
823468.000000
824566.000000
825657.000000
826694.000000
827757.000000
828843.000000
829884.000000
830914.000000
832014.000000
833076.000000
834114.000000
835183.000000
836242.000000
837303.000000
838401.000000
839512.000000
840586.000000
841640.000000
842752.000000
843904.000000
844992.000000
846079.000000
847186.000000
848230.000000
849259.000000
850382.000000
851528.000000
852646.000000
853792.000000
854931.000000
856020.000000
857139.000000
858234.000000
859311.000000
860516.000000
861724.000000
862860.000000
864048.000000
865245.000000
866378.000000
867490.000000
868594.000000
869651.000000
870785.000000
871922.000000
873006.000000
874154.000000
875341.000000
876472.000000
877633.000000
878810.000000
879968.000000
881104.000000
882279.000000
883430.000000
884555.000000
885725.000000
886868.000000
887938.000000
889082.000000
890242.000000
891371.000000
892499.000000
893496.000000
894440.000000
895456.000000
896560.000000
897682.000000
898805.000000
