ECG (ms)
380.000000
1247.000000
2097.000000
2960.000000
3836.000000
4706.000000
5571.000000
6461.000000
7361.000000
8254.000000
9183.000000
10116.000000
11051.000000
12000.000000
12930.000000
13823.000000
14713.000000
15603.000000
16477.000000
17393.000000
18353.000000
19321.000000
20313.000000
21318.000000
22303.000000
23258.000000
24213.000000
25157.000000
25658.000000
26789.000000
27761.000000
28697.000000
29637.000000
30579.000000
31513.000000
32443.000000
33398.000000
34351.000000
35279.000000
36215.000000
37143.000000
38042.000000
38922.000000
39803.000000
40697.000000
41574.000000
42464.000000
43347.000000
44210.000000
45079.000000
45950.000000
46788.000000
47610.000000
48444.000000
49271.000000
50120.000000
50973.000000
51814.000000
52646.000000
53496.000000
54347.000000
55188.000000
56046.000000
56924.000000
57789.000000
58636.000000
59510.000000
60402.000000
61285.000000
62205.000000
63151.000000
64107.000000
65031.000000
65957.000000
66870.000000
67758.000000
68640.000000
69551.000000
70479.000000
71400.000000
72356.000000
73312.000000
74243.000000
75168.000000
76072.000000
76939.000000
77810.000000
78708.000000
79613.000000
80515.000000
81454.000000
82403.000000
83333.000000
84251.000000
85160.000000
86089.000000
86996.000000
87911.000000
88863.000000
89831.000000
90783.000000
91739.000000
92691.000000
93612.000000
94549.000000
95482.000000
96404.000000
97334.000000
98291.000000
99268.000000
100240.000000
101196.000000
102154.000000
103101.000000
104016.000000
104934.000000
105862.000000
106795.000000
107745.000000
108730.000000
109701.000000
110649.000000
111593.000000
112496.000000
113365.000000
114260.000000
115185.000000
116106.000000
117049.000000
118020.000000
118970.000000
119910.000000
120833.000000
121720.000000
122597.000000
123485.000000
124371.000000
125240.000000
126134.000000
127086.000000
128070.000000
129053.000000
130044.000000
131004.000000
131900.000000
132767.000000
133622.000000
134470.000000
135343.000000
136309.000000
137309.000000
138314.000000
139332.000000
140320.000000
141272.000000
142227.000000
143177.000000
144117.000000
145099.000000
146122.000000
147126.000000
148148.000000
149172.000000
150155.000000
151129.000000
152083.000000
152997.000000
153875.000000
154782.000000
155696.000000
156593.000000
157530.000000
158502.000000
159454.000000
160405.000000
161354.000000
162274.000000
163163.000000
164056.000000
164958.000000
165832.000000
166716.000000
167618.000000
168537.000000
169445.000000
170361.000000
171291.000000
172236.000000
173185.000000
174109.000000
175045.000000
175993.000000
176925.000000
177870.000000
178837.000000
179823.000000
180790.000000
181723.000000
182639.000000
183515.000000
184378.000000
185275.000000
186204.000000
187134.000000
188084.000000
189031.000000
189929.000000
190808.000000
191699.000000
192589.000000
193476.000000
194424.000000
195393.000000
196356.000000
197338.000000
198314.000000
199270.000000
200201.000000
201122.000000
202015.000000
202892.000000
203820.000000
204778.000000
205735.000000
206716.000000
207691.000000
208631.000000
209579.000000
210545.000000
211496.000000
212478.000000
213468.000000
214451.000000
215432.000000
216432.000000
217418.000000
218381.000000
219360.000000
220342.000000
221307.000000
222283.000000
223260.000000
224219.000000
225175.000000
226141.000000
227112.000000
228062.000000
229001.000000
229936.000000
230843.000000
231731.000000
232639.000000
233545.000000
234412.000000
235282.000000
236159.000000
237021.000000
237856.000000
238707.000000
239556.000000
240387.000000
241241.000000
242130.000000
243011.000000
243889.000000
244830.000000
245791.000000
246731.000000
247679.000000
248630.000000
249563.000000
250473.000000
251389.000000
252304.000000
253205.000000
254132.000000
255095.000000
256072.000000
257079.000000
258092.000000
259075.000000
260042.000000
261006.000000
261963.000000
262901.000000
263848.000000
264820.000000
265809.000000
266771.000000
267731.000000
268679.000000
269601.000000
270503.000000
271396.000000
272298.000000
273189.000000
274063.000000
274945.000000
275783.000000
276581.000000
277363.000000
278129.000000
278925.000000
279723.000000
280525.000000
281315.000000
282134.000000
282966.000000
283796.000000
284628.000000
285494.000000
286380.000000
287238.000000
288097.000000
288963.000000
289825.000000
290667.000000
291538.000000
292434.000000
293331.000000
294218.000000
295138.000000
296052.000000
296932.000000
297826.000000
298723.000000
299609.000000
300503.000000
301422.000000
302344.000000
303277.000000
304225.000000
305157.000000
306079.000000
306972.000000
307811.000000
308629.000000
309445.000000
310240.000000
311045.000000
311884.000000
312732.000000
313572.000000
314451.000000
315340.000000
316189.000000
317040.000000
317893.000000
318722.000000
319534.000000
320362.000000
321204.000000
322032.000000
322886.000000
323756.000000
324602.000000
325432.000000
326275.000000
327122.000000
327953.000000
328814.000000
329699.000000
330570.000000
331458.000000
332375.000000
333270.000000
334141.000000
335016.000000
335871.000000
336699.000000
337542.000000
338398.000000
339248.000000
340084.000000
340940.000000
341771.000000
342585.000000
343417.000000
344246.000000
345097.000000
345957.000000
346798.000000
347634.000000
348496.000000
349373.000000
350233.000000
351072.000000
351933.000000
352813.000000
353696.000000
354582.000000
355487.000000
356389.000000
357254.000000
358129.000000
359003.000000
359867.000000
360724.000000
361601.000000
362480.000000
363350.000000
364231.000000
365111.000000
365981.000000
366824.000000
367680.000000
368534.000000
369372.000000
370216.000000
371071.000000
371903.000000
372719.000000
373556.000000
374387.000000
375191.000000
376005.000000
376834.000000
377670.000000
378497.000000
379365.000000
380241.000000
381093.000000
381957.000000
382841.000000
383721.000000
384582.000000
385450.000000
386321.000000
387169.000000
388014.000000
388888.000000
389782.000000
390664.000000
391564.000000
392475.000000
393374.000000
394248.000000
395124.000000
396008.000000
396875.000000
397739.000000
398651.000000
399585.000000
400514.000000
401460.000000
402411.000000
403327.000000
404199.000000
405043.000000
405861.000000
406650.000000
407437.000000
408263.000000
409139.000000
410017.000000
410922.000000
411852.000000
412758.000000
413628.000000
414488.000000
415330.000000
416135.000000
416944.000000
417762.000000
418575.000000
419388.000000
420229.000000
421060.000000
421864.000000
422681.000000
423512.000000
424346.000000
425161.000000
425995.000000
426837.000000
427666.000000
428483.000000
429329.000000
430187.000000
431035.000000
431885.000000
432764.000000
433652.000000
434533.000000
435410.000000
436297.000000
437186.000000
438057.000000
438867.000000
439623.000000
440395.000000
441217.000000
442098.000000
443022.000000
443936.000000
444824.000000
445692.000000
446497.000000
447268.000000
448038.000000
448814.000000
449629.000000
450497.000000
451413.000000
452327.000000
453267.000000
454202.000000
455103.000000
455961.000000
456807.000000
457663.000000
458497.000000
459313.000000
460148.000000
460996.000000
461825.000000
462608.000000
463370.000000
464174.000000
464999.000000
465860.000000
466725.000000
467575.000000
468420.000000
469250.000000
470057.000000
470840.000000
471622.000000
472409.000000
473189.000000
473990.000000
474833.000000
475719.000000
476615.000000
477537.000000
478465.000000
479372.000000
480243.000000
481095.000000
481923.000000
482719.000000
483507.000000
484319.000000
485178.000000
486076.000000
487034.000000
488005.000000
488953.000000
489866.000000
490759.000000
491623.000000
492451.000000
493270.000000
494101.000000
494941.000000
495770.000000
496630.000000
497509.000000
498374.000000
499221.000000
500086.000000
500955.000000
501790.000000
502608.000000
503426.000000
504252.000000
505072.000000
505938.000000
506832.000000
507733.000000
508613.000000
509441.000000
510198.000000
510921.000000
511697.000000
512518.000000
513378.000000
514267.000000
515165.000000
516048.000000
516925.000000
517800.000000
518664.000000
519504.000000
520344.000000
521184.000000
522005.000000
522838.000000
523686.000000
524548.000000
525421.000000
526290.000000
527176.000000
528074.000000
528952.000000
529795.000000
530645.000000
531495.000000
532333.000000
533172.000000
534077.000000
535036.000000
535974.000000
536908.000000
537840.000000
538749.000000
539622.000000
540476.000000
541328.000000
542187.000000
543030.000000
543888.000000
544768.000000
545666.000000
546569.000000
547457.000000
548360.000000
549261.000000
550158.000000
551018.000000
551857.000000
552680.000000
553483.000000
554288.000000
555109.000000
555967.000000
556843.000000
557705.000000
558552.000000
559390.000000
560208.000000
561012.000000
561832.000000
562657.000000
563457.000000
564242.000000
565040.000000
565816.000000
566562.000000
567318.000000
568073.000000
568847.000000
569644.000000
570478.000000
571317.000000
572159.000000
573013.000000
573847.000000
574643.000000
575448.000000
576253.000000
577063.000000
577866.000000
578710.000000
579591.000000
580485.000000
581390.000000
582309.000000
583221.000000
584093.000000
584940.000000
585770.000000
586596.000000
587410.000000
588238.000000
589091.000000
589955.000000
590797.000000
591654.000000
592498.000000
593305.000000
594118.000000
594944.000000
595765.000000
596579.000000
597429.000000
598313.000000
599201.000000
600088.000000
600988.000000
601881.000000
602726.000000
603557.000000
604389.000000
605208.000000
606028.000000
606874.000000
607733.000000
608583.000000
609436.000000
610303.000000
611169.000000
612015.000000
612874.000000
613739.000000
614584.000000
615441.000000
616305.000000
617141.000000
617973.000000
618820.000000
619679.000000
620524.000000
621392.000000
622301.000000
623227.000000
624134.000000
625052.000000
625951.000000
626816.000000
627651.000000
628506.000000
629396.000000
630312.000000
631253.000000
632227.000000
633186.000000
634138.000000
635087.000000
636013.000000
636885.000000
637733.000000
638565.000000
639393.000000
640219.000000
641096.000000
642003.000000
642912.000000
643407.000000
644512.000000
645444.000000
646314.000000
647164.000000
648003.000000
648824.000000
649664.000000
650541.000000
651429.000000
652316.000000
653260.000000
654247.000000
655204.000000
656139.000000
657033.000000
657883.000000
658691.000000
659501.000000
660315.000000
661133.000000
661928.000000
662775.000000
663647.000000
664483.000000
665277.000000
666091.000000
666911.000000
667731.000000
668576.000000
669431.000000
670254.000000
671091.000000
671931.000000
672761.000000
673579.000000
674426.000000
675284.000000
676132.000000
676968.000000
677819.000000
678677.000000
679520.000000
680376.000000
681250.000000
682141.000000
683020.000000
683914.000000
684806.000000
685674.000000
686517.000000
687355.000000
688188.000000
688992.000000
689759.000000
690481.000000
691258.000000
692154.000000
693120.000000
694080.000000
695012.000000
695872.000000
696679.000000
697473.000000
698244.000000
699025.000000
699820.000000
700646.000000
701517.000000
702401.000000
703292.000000
704200.000000
705100.000000
705987.000000
706835.000000
707664.000000
708492.000000
709309.000000
710126.000000
710949.000000
711803.000000
712671.000000
713517.000000
714361.000000
715214.000000
716061.000000
716891.000000
717720.000000
718548.000000
719368.000000
720171.000000
720978.000000
721803.000000
722642.000000
723467.000000
724285.000000
725102.000000
725924.000000
726730.000000
727545.000000
728382.000000
729224.000000
730050.000000
730901.000000
731765.000000
732610.000000
733434.000000
734271.000000
735111.000000
735919.000000
736713.000000
737505.000000
738297.000000
739074.000000
739866.000000
740684.000000
741517.000000
742346.000000
743208.000000
744076.000000
744921.000000
745747.000000
746578.000000
747399.000000
748204.000000
749015.000000
749867.000000
750763.000000
751656.000000
752562.000000
753468.000000
754336.000000
755171.000000
755994.000000
756803.000000
757601.000000
758434.000000
759276.000000
760115.000000
760937.000000
761760.000000
762579.000000
763377.000000
764184.000000
764999.000000
765811.000000
766602.000000
767425.000000
768256.000000
769065.000000
769857.000000
770665.000000
771472.000000
772264.000000
773049.000000
773848.000000
774655.000000
775457.000000
776234.000000
777022.000000
777815.000000
778608.000000
779431.000000
780259.000000
781071.000000
781867.000000
782693.000000
783526.000000
784347.000000
785163.000000
785985.000000
786813.000000
787606.000000
788387.000000
789176.000000
789968.000000
790765.000000
791587.000000
792432.000000
793271.000000
794083.000000
794904.000000
795716.000000
796513.000000
797325.000000
798154.000000
798983.000000
799807.000000
800672.000000
801552.000000
802408.000000
803233.000000
804070.000000
804901.000000
805716.000000
806519.000000
807327.000000
808133.000000
808930.000000
809756.000000
810608.000000
811439.000000
812247.000000
813063.000000
813876.000000
814677.000000
815498.000000
816344.000000
817198.000000
818030.000000
818877.000000
819725.000000
820569.000000
821386.000000
822218.000000
823042.000000
823845.000000
824647.000000
825474.000000
826332.000000
827195.000000
828058.000000
828927.000000
829791.000000
830639.000000
831479.000000
832317.000000
833141.000000
833942.000000
834758.000000
835591.000000
836430.000000
837261.000000
838108.000000
838951.000000
839766.000000
840580.000000
841397.000000
842218.000000
843014.000000
843830.000000
844663.000000
845512.000000
846355.000000
847230.000000
848110.000000
848979.000000
849818.000000
850672.000000
851538.000000
852388.000000
853248.000000
854132.000000
855030.000000
855908.000000
856759.000000
857609.000000
858442.000000
859247.000000
860071.000000
860895.000000
861701.000000
862532.000000
863370.000000
864196.000000
865032.000000
865877.000000
866705.000000
867521.000000
868328.000000
869105.000000
869867.000000
870644.000000
871423.000000
872264.000000
873144.000000
874035.000000
874911.000000
875806.000000
876675.000000
877503.000000
878333.000000
879166.000000
880005.000000
880837.000000
881699.000000
882588.000000
883464.000000
884306.000000
885089.000000
885884.000000
886703.000000
887537.000000
888364.000000
889183.000000
890004.000000
890819.000000
891615.000000
892433.000000
893274.000000
894127.000000
894986.000000
895878.000000
896798.000000
897695.000000
898575.000000
899449.000000
900293.000000
