ECG (ms)
230.000000
1020.000000
1812.000000
2596.000000
3367.000000
4112.000000
4856.000000
5602.000000
6355.000000
7142.000000
7983.000000
8888.000000
9808.000000
10706.000000
11565.000000
12398.000000
13220.000000
14030.000000
14824.000000
15602.000000
16369.000000
17130.000000
17909.000000
18708.000000
19547.000000
20386.000000
21205.000000
22009.000000
22807.000000
23593.000000
24372.000000
25145.000000
25912.000000
26675.000000
27456.000000
28249.000000
29058.000000
29872.000000
30681.000000
31468.000000
32244.000000
33007.000000
33768.000000
34528.000000
35293.000000
36044.000000
36791.000000
37515.000000
38231.000000
38968.000000
39766.000000
40579.000000
41397.000000
42180.000000
42939.000000
43676.000000
44401.000000
45105.000000
45820.000000
46542.000000
47297.000000
48093.000000
48890.000000
49659.000000
50417.000000
51168.000000
51904.000000
52625.000000
53349.000000
54060.000000
54777.000000
55515.000000
56343.000000
57295.000000
58132.000000
58947.000000
59752.000000
60547.000000
61328.000000
62101.000000
62867.000000
63603.000000
64329.000000
65067.000000
65839.000000
66731.000000
67567.000000
68416.000000
69269.000000
70117.000000
70929.000000
71727.000000
72499.000000
73252.000000
73988.000000
74697.000000
75412.000000
76194.000000
77005.000000
77836.000000
78668.000000
79485.000000
80278.000000
81053.000000
81816.000000
82571.000000
83307.000000
84032.000000
84720.000000
85426.000000
86178.000000
86936.000000
87691.000000
88423.000000
89143.000000
89860.000000
90580.000000
91326.000000
92090.000000
92831.000000
93565.000000
94276.000000
94972.000000
95663.000000
96342.000000
97031.000000
97743.000000
98459.000000
99190.000000
99894.000000
100606.000000
101306.000000
101999.000000
102715.000000
103440.000000
104168.000000
104922.000000
105653.000000
106356.000000
107055.000000
107759.000000
108487.000000
109227.000000
109997.000000
110779.000000
111528.000000
112263.000000
112994.000000
113774.000000
114580.000000
115372.000000
116134.000000
116858.000000
117579.000000
118298.000000
119048.000000
119833.000000
120664.000000
121518.000000
122299.000000
123027.000000
123766.000000
124533.000000
125328.000000
126143.000000
126997.000000
127838.000000
128622.000000
129379.000000
130115.000000
130848.000000
131631.000000
132579.000000
133414.000000
134251.000000
135089.000000
135915.000000
136727.000000
137518.000000
138304.000000
139096.000000
139899.000000
140727.000000
141557.000000
142389.000000
143222.000000
144039.000000
144851.000000
145663.000000
146492.000000
147326.000000
148160.000000
148989.000000
149801.000000
150598.000000
151394.000000
152200.000000
153027.000000
153870.000000
154706.000000
155537.000000
156356.000000
157161.000000
157969.000000
158784.000000
159617.000000
160464.000000
161301.000000
162134.000000
162953.000000
163781.000000
164614.000000
165439.000000
166249.000000
167029.000000
167783.000000
168546.000000
169301.000000
170074.000000
170888.000000
171746.000000
172610.000000
173469.000000
174312.000000
175138.000000
175947.000000
176742.000000
177531.000000
178330.000000
179142.000000
179955.000000
180770.000000
181572.000000
182375.000000
183168.000000
183948.000000
184722.000000
185501.000000
186291.000000
187096.000000
187922.000000
188746.000000
189565.000000
190365.000000
191152.000000
191932.000000
192696.000000
193459.000000
194236.000000
195024.000000
195835.000000
196669.000000
197501.000000
198328.000000
199139.000000
199940.000000
200725.000000
201507.000000
202289.000000
203082.000000
203894.000000
204718.000000
205553.000000
206391.000000
207238.000000
208076.000000
208888.000000
209685.000000
210472.000000
211274.000000
212092.000000
212934.000000
213791.000000
214646.000000
215489.000000
216332.000000
217146.000000
217950.000000
218736.000000
219527.000000
220366.000000
221258.000000
222166.000000
223074.000000
223962.000000
224832.000000
225698.000000
226559.000000
227407.000000
228235.000000
229050.000000
229866.000000
230695.000000
231553.000000
232423.000000
233309.000000
234204.000000
235090.000000
235963.000000
236809.000000
237640.000000
238453.000000
239260.000000
240063.000000
240876.000000
241706.000000
242562.000000
243427.000000
244294.000000
245151.000000
245985.000000
246793.000000
247570.000000
248332.000000
249083.000000
249849.000000
250667.000000
251537.000000
252412.000000
253288.000000
254156.000000
254993.000000
255817.000000
256608.000000
257375.000000
258135.000000
258911.000000
259719.000000
260567.000000
261420.000000
262262.000000
263115.000000
263956.000000
264762.000000
265547.000000
266320.000000
267090.000000
267877.000000
268674.000000
269491.000000
270306.000000
271113.000000
271915.000000
272698.000000
273466.000000
274219.000000
274972.000000
275750.000000
276542.000000
277350.000000
278158.000000
278954.000000
279742.000000
280525.000000
281294.000000
282044.000000
282779.000000
283500.000000
284206.000000
284907.000000
285658.000000
286466.000000
287257.000000
288035.000000
288818.000000
289568.000000
290296.000000
291019.000000
291728.000000
292452.000000
293205.000000
293975.000000
294762.000000
295556.000000
296333.000000
297093.000000
297824.000000
298559.000000
299282.000000
300000.000000
300744.000000
301513.000000
302295.000000
303087.000000
303885.000000
304636.000000
305366.000000
306083.000000
306809.000000
307566.000000
308357.000000
309345.000000
310165.000000
310968.000000
311761.000000
312541.000000
313318.000000
314110.000000
314923.000000
315750.000000
316574.000000
317399.000000
318206.000000
318997.000000
319799.000000
320616.000000
321456.000000
322291.000000
323124.000000
323947.000000
324752.000000
325554.000000
326339.000000
327126.000000
327932.000000
328765.000000
329610.000000
330471.000000
331324.000000
332169.000000
333001.000000
333806.000000
334586.000000
335373.000000
336173.000000
336992.000000
337834.000000
338673.000000
339510.000000
340344.000000
341187.000000
342030.000000
342875.000000
343704.000000
344515.000000
345314.000000
346099.000000
346884.000000
347699.000000
348532.000000
349384.000000
350227.000000
351061.000000
351880.000000
352673.000000
353459.000000
354246.000000
355070.000000
355940.000000
356819.000000
357695.000000
358558.000000
359401.000000
360239.000000
361056.000000
361864.000000
362660.000000
363455.000000
364259.000000
365079.000000
365914.000000
366753.000000
367593.000000
368422.000000
369233.000000
370025.000000
370812.000000
371591.000000
372381.000000
373208.000000
374055.000000
374927.000000
375803.000000
376683.000000
377533.000000
378358.000000
379161.000000
379959.000000
380770.000000
381600.000000
382452.000000
383317.000000
384200.000000
385062.000000
385905.000000
386723.000000
387516.000000
388305.000000
389109.000000
389931.000000
390778.000000
391641.000000
392503.000000
393360.000000
394206.000000
395040.000000
395866.000000
396686.000000
397520.000000
398375.000000
399245.000000
400107.000000
400962.000000
401808.000000
402647.000000
403465.000000
404264.000000
405065.000000
405870.000000
406696.000000
407541.000000
408380.000000
409187.000000
409962.000000
410751.000000
411542.000000
412321.000000
413121.000000
413953.000000
414804.000000
415657.000000
416505.000000
417335.000000
418159.000000
418965.000000
419759.000000
420544.000000
421322.000000
422120.000000
422942.000000
423790.000000
424652.000000
425504.000000
426348.000000
427171.000000
427976.000000
428780.000000
429582.000000
430418.000000
431279.000000
432153.000000
433026.000000
433891.000000
434728.000000
435547.000000
436351.000000
437165.000000
437988.000000
438817.000000
439665.000000
440520.000000
441379.000000
442225.000000
443049.000000
443866.000000
444676.000000
445469.000000
446287.000000
447137.000000
448020.000000
448887.000000
449751.000000
450616.000000
451465.000000
452296.000000
453107.000000
453916.000000
454737.000000
455559.000000
456395.000000
457235.000000
458066.000000
458886.000000
459689.000000
460480.000000
461269.000000
462063.000000
462872.000000
463708.000000
464547.000000
465401.000000
466241.000000
467059.000000
467861.000000
468651.000000
469434.000000
470229.000000
471057.000000
471927.000000
472809.000000
473691.000000
474556.000000
475403.000000
476238.000000
477058.000000
477860.000000
478651.000000
479436.000000
480228.000000
481051.000000
481911.000000
482782.000000
483649.000000
484506.000000
485354.000000
486200.000000
487019.000000
487820.000000
488612.000000
489398.000000
490187.000000
490998.000000
491840.000000
492710.000000
493579.000000
494447.000000
495293.000000
496113.000000
496911.000000
497680.000000
498431.000000
499186.000000
499954.000000
500742.000000
501563.000000
502426.000000
503303.000000
504173.000000
505020.000000
505842.000000
506628.000000
507387.000000
508123.000000
508848.000000
509582.000000
510379.000000
511219.000000
512092.000000
512967.000000
513834.000000
514668.000000
515480.000000
516254.000000
517018.000000
517783.000000
518561.000000
519346.000000
520124.000000
520887.000000
521631.000000
522355.000000
523061.000000
523759.000000
524457.000000
525185.000000
525946.000000
526722.000000
527487.000000
528247.000000
528991.000000
529729.000000
530435.000000
531125.000000
531806.000000
532486.000000
533175.000000
533907.000000
534680.000000
535455.000000
536263.000000
537050.000000
537831.000000
538573.000000
539290.000000
539981.000000
540652.000000
541319.000000
541996.000000
542732.000000
543633.000000
544472.000000
545295.000000
546098.000000
546869.000000
547625.000000
548361.000000
549119.000000
549866.000000
550605.000000
551328.000000
552022.000000
552710.000000
553397.000000
554112.000000
554876.000000
555692.000000
556655.000000
557491.000000
558297.000000
559059.000000
559819.000000
560545.000000
561256.000000
561956.000000
562734.000000
563604.000000
564443.000000
565281.000000
566112.000000
566923.000000
567725.000000
568504.000000
569279.000000
570044.000000
570814.000000
571584.000000
572337.000000
573092.000000
573855.000000
574624.000000
575370.000000
576135.000000
576865.000000
577604.000000
578341.000000
579053.000000
579760.000000
580536.000000
581355.000000
582153.000000
582935.000000
583680.000000
584425.000000
585181.000000
585974.000000
586732.000000
587452.000000
588158.000000
588873.000000
589623.000000
590429.000000
591397.000000
592221.000000
593029.000000
593846.000000
594649.000000
595453.000000
596245.000000
597034.000000
597812.000000
598587.000000
599369.000000
600155.000000
600935.000000
601713.000000
602485.000000
603257.000000
604033.000000
604817.000000
605606.000000
606387.000000
607165.000000
607942.000000
608729.000000
609517.000000
610290.000000
611059.000000
611826.000000
612591.000000
613361.000000
614129.000000
614898.000000
615674.000000
616446.000000
617222.000000
618005.000000
618793.000000
619569.000000
620354.000000
621131.000000
621906.000000
622685.000000
623462.000000
624233.000000
625010.000000
625781.000000
626552.000000
627324.000000
628092.000000
628857.000000
629633.000000
630419.000000
631208.000000
631996.000000
632780.000000
633554.000000
634321.000000
635090.000000
635867.000000
636655.000000
637426.000000
638191.000000
638931.000000
639663.000000
640395.000000
641145.000000
641935.000000
642784.000000
643628.000000
644445.000000
645246.000000
646003.000000
646733.000000
647446.000000
648169.000000
648910.000000
649711.000000
650607.000000
651448.000000
652273.000000
653089.000000
653889.000000
654688.000000
655492.000000
656308.000000
657123.000000
657931.000000
658725.000000
659502.000000
660267.000000
661018.000000
661748.000000
662496.000000
663242.000000
663976.000000
664691.000000
665395.000000
666121.000000
666864.000000
667595.000000
668303.000000
669033.000000
669778.000000
670514.000000
671243.000000
671968.000000
672726.000000
673502.000000
674287.000000
675086.000000
675857.000000
676614.000000
677356.000000
678098.000000
678888.000000
679695.000000
680602.000000
681452.000000
682263.000000
683050.000000
683832.000000
684583.000000
685323.000000
686070.000000
686865.000000
687848.000000
688725.000000
689593.000000
690460.000000
691304.000000
692130.000000
692939.000000
693737.000000
694528.000000
695313.000000
696096.000000
696907.000000
697738.000000
698585.000000
699446.000000
700308.000000
701157.000000
701990.000000
702801.000000
703603.000000
704395.000000
705182.000000
705992.000000
706839.000000
707700.000000
708574.000000
709444.000000
710304.000000
711148.000000
711975.000000
712798.000000
713595.000000
714387.000000
715182.000000
715996.000000
716837.000000
717723.000000
718614.000000
719492.000000
720350.000000
721196.000000
722025.000000
722840.000000
723647.000000
724441.000000
725227.000000
726011.000000
726811.000000
727638.000000
728499.000000
729368.000000
730233.000000
731094.000000
731954.000000
732799.000000
733633.000000
734456.000000
735269.000000
736072.000000
736867.000000
737687.000000
738564.000000
739466.000000
740382.000000
741294.000000
742183.000000
743029.000000
743850.000000
744671.000000
745501.000000
746342.000000
747191.000000
748042.000000
748890.000000
749728.000000
750563.000000
751400.000000
752243.000000
753096.000000
753959.000000
754832.000000
755689.000000
756526.000000
757356.000000
758191.000000
759022.000000
759871.000000
760715.000000
761558.000000
762373.000000
763159.000000
763911.000000
764664.000000
765412.000000
766189.000000
767032.000000
767924.000000
768801.000000
769674.000000
770535.000000
771393.000000
772240.000000
773082.000000
773911.000000
774719.000000
775516.000000
776301.000000
777083.000000
777877.000000
778679.000000
779479.000000
780269.000000
781052.000000
781831.000000
782603.000000
783383.000000
784175.000000
784985.000000
785798.000000
786622.000000
787435.000000
788232.000000
789013.000000
789792.000000
790576.000000
791372.000000
792195.000000
793043.000000
793897.000000
794744.000000
795578.000000
796404.000000
797227.000000
798035.000000
798835.000000
799642.000000
800469.000000
801336.000000
802219.000000
803120.000000
803978.000000
804834.000000
805678.000000
806502.000000
807319.000000
808142.000000
808977.000000
809853.000000
810724.000000
811603.000000
812472.000000
813337.000000
814187.000000
815044.000000
815878.000000
816717.000000
817567.000000
818411.000000
819249.000000
820072.000000
820881.000000
821678.000000
822454.000000
823220.000000
823991.000000
824778.000000
825588.000000
826398.000000
827203.000000
828011.000000
828813.000000
829617.000000
830420.000000
831208.000000
831976.000000
832729.000000
833479.000000
834229.000000
834983.000000
835734.000000
836479.000000
837209.000000
837940.000000
838670.000000
839414.000000
840152.000000
840870.000000
841592.000000
842298.000000
843012.000000
843726.000000
844439.000000
845165.000000
845880.000000
846599.000000
847337.000000
848098.000000
848855.000000
849600.000000
850333.000000
851077.000000
851837.000000
852612.000000
853361.000000
854105.000000
854849.000000
855625.000000
856408.000000
857180.000000
857937.000000
858672.000000
859384.000000
860093.000000
860816.000000
861562.000000
862307.000000
863052.000000
863794.000000
864558.000000
865329.000000
866123.000000
866889.000000
867634.000000
868364.000000
869095.000000
869841.000000
870623.000000
871410.000000
872179.000000
872953.000000
873700.000000
874450.000000
875188.000000
875945.000000
876692.000000
877443.000000
878188.000000
878921.000000
879712.000000
880537.000000
881345.000000
882117.000000
882866.000000
883606.000000
884330.000000
885063.000000
885798.000000
886548.000000
887312.000000
888078.000000
888838.000000
889626.000000
890425.000000
891238.000000
892079.000000
892875.000000
893612.000000
894338.000000
895074.000000
895846.000000
896657.000000
897488.000000
898405.000000
899207.000000
900019.000000
900856.000000
