ECG (ms)
275.000000
1243.000000
2243.000000
3199.000000
4164.000000
5174.000000
6074.000000
6865.000000
7630.000000
8415.000000
9309.000000
10358.000000
11432.000000
12441.000000
13320.000000
14134.000000
14984.000000
16086.000000
17147.000000
18170.000000
19163.000000
20071.000000
20893.000000
21742.000000
22769.000000
23817.000000
24873.000000
25837.000000
26662.000000
27449.000000
28301.000000
29318.000000
30410.000000
31447.000000
32374.000000
33185.000000
33953.000000
34720.000000
35543.000000
36493.000000
37553.000000
38643.000000
39580.000000
40406.000000
41198.000000
42057.000000
43053.000000
44032.000000
45003.000000
45879.000000
46677.000000
47441.000000
48222.000000
49089.000000
50093.000000
51075.000000
52050.000000
52948.000000
53765.000000
54542.000000
55316.000000
56134.000000
57098.000000
58102.000000
59090.000000
60010.000000
60874.000000
61678.000000
62453.000000
63225.000000
64104.000000
65074.000000
66084.000000
67040.000000
67898.000000
68694.000000
69480.000000
70350.000000
71380.000000
72432.000000
73430.000000
74394.000000
75288.000000
76093.000000
76870.000000
77664.000000
78504.000000
79378.000000
80227.000000
81036.000000
81859.000000
82659.000000
83435.000000
84247.000000
85145.000000
86168.000000
87240.000000
88271.000000
89168.000000
89974.000000
90743.000000
91514.000000
92370.000000
93438.000000
94527.000000
95586.000000
96580.000000
97504.000000
98364.000000
99178.000000
99947.000000
100707.000000
101550.000000
102640.000000
103698.000000
104711.000000
105661.000000
106508.000000
107295.000000
108057.000000
108880.000000
109879.000000
110931.000000
111979.000000
112876.000000
113701.000000
114498.000000
115359.000000
116427.000000
117479.000000
118476.000000
119303.000000
120089.000000
120921.000000
121879.000000
122931.000000
123962.000000
124841.000000
125654.000000
126480.000000
127427.000000
128494.000000
129504.000000
130473.000000
131362.000000
132163.000000
132934.000000
133763.000000
134785.000000
135843.000000
136864.000000
137860.000000
138706.000000
139508.000000
140357.000000
141321.000000
142314.000000
143347.000000
144314.000000
145276.000000
146168.000000
146973.000000
147752.000000
148576.000000
149531.000000
150569.000000
151575.000000
152578.000000
153512.000000
154343.000000
155119.000000
155878.000000
156638.000000
157452.000000
158416.000000
159460.000000
160464.000000
161326.000000
162119.000000
162925.000000
163814.000000
164725.000000
165634.000000
166455.000000
167228.000000
168053.000000
168937.000000
169800.000000
170697.000000
171488.000000
172264.000000
173013.000000
173799.000000
174573.000000
175333.000000
176161.000000
177086.000000
177957.000000
178767.000000
179582.000000
180446.000000
181380.000000
182304.000000
183114.000000
183946.000000
184815.000000
185750.000000
186684.000000
187667.000000
188620.000000
189592.000000
190473.000000
191266.000000
192058.000000
192897.000000
193859.000000
194832.000000
195782.000000
196610.000000
197373.000000
198152.000000
198968.000000
199893.000000
200896.000000
201778.000000
202572.000000
203401.000000
204267.000000
205242.000000
206205.000000
207035.000000
207850.000000
208704.000000
209595.000000
210554.000000
211448.000000
212345.000000
213180.000000
214080.000000
215137.000000
216118.000000
217100.000000
218029.000000
218846.000000
219660.000000
220555.000000
221501.000000
222347.000000
223142.000000
224023.000000
225003.000000
225965.000000
226801.000000
227603.000000
228467.000000
229391.000000
230394.000000
231346.000000
232181.000000
232977.000000
233863.000000
234809.000000
235760.000000
236623.000000
237410.000000
238199.000000
239072.000000
240075.000000
241047.000000
241890.000000
242851.000000
243830.000000
244801.000000
245631.000000
246437.000000
247282.000000
248173.000000
249159.000000
250113.000000
251000.000000
251805.000000
252598.000000
253434.000000
254360.000000
255312.000000
256244.000000
257080.000000
257874.000000
258723.000000
259684.000000
260677.000000
261642.000000
262467.000000
263242.000000
264049.000000
264958.000000
266013.000000
266981.000000
267815.000000
268671.000000
269582.000000
270499.000000
271418.000000
272253.000000
273056.000000
273922.000000
274850.000000
275801.000000
276660.000000
277454.000000
278298.000000
279170.000000
280044.000000
280847.000000
281664.000000
282541.000000
283466.000000
284299.000000
285119.000000
285968.000000
286825.000000
287626.000000
288401.000000
289210.000000
290076.000000
290960.000000
291768.000000
292602.000000
293485.000000
294413.000000
295237.000000
296052.000000
296950.000000
297952.000000
298879.000000
299700.000000
300545.000000
301489.000000
302422.000000
303266.000000
304065.000000
304894.000000
305790.000000
306727.000000
307565.000000
308386.000000
309317.000000
310279.000000
311168.000000
312100.000000
313088.000000
314070.000000
314903.000000
315809.000000
316755.000000
317708.000000
318554.000000
319471.000000
320517.000000
321500.000000
322328.000000
323145.000000
324046.000000
325008.000000
326005.000000
326879.000000
327788.000000
328700.000000
329638.000000
330453.000000
331270.000000
332199.000000
333164.000000
334028.000000
334876.000000
335817.000000
336795.000000
337651.000000
338446.000000
339251.000000
340136.000000
341132.000000
342075.000000
342934.000000
343788.000000
344744.000000
345721.000000
346609.000000
347409.000000
348178.000000
349012.000000
349942.000000
350871.000000
351739.000000
352570.000000
353452.000000
354426.000000
355395.000000
356283.000000
357152.000000
358163.000000
359196.000000
360116.000000
360954.000000
361831.000000
362735.000000
363637.000000
364474.000000
365341.000000
366289.000000
367159.000000
368011.000000
368994.000000
369932.000000
370777.000000
371574.000000
372416.000000
373333.000000
374275.000000
375101.000000
376026.000000
377144.000000
378194.000000
379111.000000
379964.000000
380917.000000
381973.000000
382884.000000
383706.000000
384574.000000
385495.000000
386460.000000
387492.000000
388461.000000
389312.000000
390219.000000
391154.000000
392107.000000
392963.000000
393753.000000
394537.000000
395326.000000
396225.000000
397215.000000
398030.000000
398809.000000
399625.000000
400592.000000
401622.000000
402541.000000
403338.000000
404130.000000
404977.000000
405965.000000
407029.000000
408059.000000
408947.000000
409768.000000
410683.000000
411780.000000
412793.000000
413756.000000
414590.000000
415422.000000
416410.000000
417439.000000
418447.000000
419460.000000
420331.000000
421149.000000
422039.000000
422988.000000
423967.000000
424875.000000
425705.000000
426486.000000
427285.000000
428123.000000
429208.000000
430311.000000
431372.000000
432425.000000
433352.000000
434197.000000
434998.000000
435790.000000
436647.000000
437694.000000
438761.000000
439828.000000
440773.000000
441597.000000
442375.000000
443145.000000
443984.000000
444974.000000
445956.000000
446948.000000
447941.000000
448890.000000
449843.000000
450725.000000
451651.000000
452511.000000
453330.000000
454157.000000
455319.000000
456372.000000
457369.000000
458344.000000
459266.000000
460090.000000
460896.000000
461746.000000
462756.000000
463818.000000
464740.000000
465588.000000
466481.000000
467437.000000
468415.000000
469396.000000
470408.000000
471364.000000
472212.000000
473083.000000
474096.000000
475132.000000
476168.000000
477059.000000
477870.000000
478723.000000
479792.000000
480877.000000
481803.000000
482689.000000
483619.000000
484628.000000
485674.000000
486695.000000
487588.000000
488489.000000
489405.000000
490382.000000
491328.000000
492277.000000
493182.000000
494026.000000
494936.000000
495825.000000
496632.000000
497439.000000
498300.000000
499271.000000
500114.000000
500994.000000
501961.000000
502949.000000
503804.000000
504650.000000
505546.000000
506483.000000
507427.000000
508355.000000
509292.000000
510206.000000
511186.000000
512133.000000
513012.000000
513925.000000
514900.000000
515808.000000
516627.000000
517504.000000
518427.000000
519284.000000
520126.000000
521025.000000
521938.000000
522744.000000
523624.000000
524587.000000
525455.000000
526271.000000
527164.000000
528139.000000
529165.000000
530086.000000
530920.000000
531806.000000
532801.000000
533777.000000
534736.000000
535590.000000
536394.000000
537236.000000
538166.000000
539104.000000
539939.000000
540839.000000
541864.000000
542846.000000
543694.000000
544599.000000
545551.000000
546413.000000
547249.000000
548171.000000
549186.000000
550175.000000
551048.000000
551856.000000
552714.000000
553622.000000
554551.000000
555374.000000
556166.000000
557022.000000
557916.000000
558847.000000
559704.000000
560513.000000
561358.000000
562255.000000
563199.000000
564076.000000
564898.000000
565769.000000
566682.000000
567593.000000
568412.000000
569259.000000
570145.000000
571024.000000
571818.000000
572680.000000
573625.000000
574493.000000
575299.000000
576162.000000
577113.000000
578068.000000
578896.000000
579767.000000
580666.000000
581616.000000
582442.000000
583318.000000
584303.000000
585305.000000
586151.000000
586993.000000
587988.000000
588996.000000
589935.000000
590777.000000
591668.000000
592646.000000
593661.000000
594568.000000
595397.000000
596271.000000
597206.000000
598188.000000
599030.000000
599927.000000
600862.000000
601810.000000
602659.000000
603536.000000
604407.000000
605266.000000
606063.000000
606907.000000
607772.000000
608583.000000
609379.000000
610236.000000
611127.000000
611947.000000
612735.000000
613567.000000
614416.000000
615244.000000
616035.000000
616879.000000
617795.000000
618649.000000
619464.000000
620335.000000
621286.000000
622282.000000
623125.000000
623984.000000
624900.000000
625835.000000
626664.000000
627462.000000
628246.000000
629058.000000
630087.000000
630961.000000
631880.000000
632754.000000
633535.000000
634308.000000
635111.000000
636219.000000
637311.000000
638252.000000
639058.000000
639886.000000
640790.000000
641875.000000
642824.000000
643641.000000
644435.000000
645317.000000
646435.000000
647523.000000
648552.000000
649464.000000
650299.000000
651187.000000
652185.000000
653204.000000
654198.000000
655147.000000
655987.000000
656805.000000
657679.000000
658739.000000
659793.000000
660805.000000
661809.000000
662852.000000
663884.000000
664782.000000
665594.000000
666473.000000
667594.000000
668674.000000
669663.000000
670630.000000
671558.000000
672467.000000
673377.000000
674250.000000
675056.000000
675839.000000
676741.000000
677847.000000
678911.000000
679874.000000
680665.000000
681427.000000
682238.000000
683238.000000
684286.000000
685219.000000
686059.000000
686887.000000
687989.000000
688940.000000
689823.000000
690740.000000
691718.000000
692683.000000
693615.000000
694447.000000
695301.000000
696219.000000
697204.000000
698217.000000
699139.000000
699989.000000
700863.000000
701775.000000
702728.000000
703668.000000
704508.000000
705315.000000
706209.000000
707190.000000
708128.000000
708959.000000
709743.000000
710554.000000
711413.000000
712341.000000
713182.000000
714002.000000
714860.000000
715740.000000
716648.000000
717545.000000
718446.000000
719243.000000
720060.000000
720910.000000
721808.000000
722643.000000
723495.000000
724385.000000
725260.000000
726050.000000
726887.000000
727795.000000
728758.000000
729662.000000
730462.000000
731290.000000
732172.000000
733107.000000
733978.000000
734812.000000
735700.000000
736667.000000
737676.000000
738549.000000
739436.000000
740360.000000
741317.000000
742168.000000
743014.000000
743956.000000
744997.000000
745869.000000
746743.000000
747678.000000
748677.000000
749581.000000
750496.000000
751442.000000
752414.000000
753250.000000
754144.000000
755069.000000
756004.000000
756862.000000
757768.000000
758748.000000
759775.000000
760744.000000
761609.000000
762547.000000
763531.000000
764398.000000
765276.000000
766335.000000
767408.000000
768322.000000
769213.000000
770186.000000
771198.000000
772114.000000
773079.000000
774111.000000
775047.000000
775883.000000
776694.000000
777647.000000
778687.000000
779602.000000
780422.000000
781284.000000
782225.000000
783204.000000
784147.000000
784983.000000
785788.000000
786622.000000
787774.000000
788846.000000
789799.000000
790625.000000
791409.000000
792183.000000
793014.000000
794014.000000
795068.000000
796070.000000
796934.000000
797811.000000
798778.000000
799798.000000
800789.000000
801627.000000
802416.000000
803256.000000
804243.000000
805244.000000
806255.000000
807161.000000
807970.000000
808820.000000
809783.000000
810861.000000
811937.000000
812949.000000
813912.000000
814872.000000
815742.000000
816550.000000
817368.000000
818282.000000
819349.000000
820385.000000
821252.000000
822092.000000
823023.000000
824068.000000
825108.000000
826091.000000
826913.000000
827741.000000
828667.000000
829654.000000
830569.000000
831383.000000
832236.000000
833201.000000
834207.000000
835072.000000
835887.000000
836748.000000
837736.000000
838711.000000
839704.000000
840565.000000
841391.000000
842374.000000
843440.000000
844494.000000
845527.000000
846566.000000
847578.000000
848506.000000
849529.000000
850424.000000
851226.000000
852010.000000
852879.000000
853884.000000
854715.000000
855548.000000
856556.000000
857586.000000
858431.000000
859326.000000
860368.000000
861426.000000
862314.000000
863306.000000
864358.000000
865400.000000
866250.000000
867129.000000
868238.000000
869329.000000
870282.000000
871284.000000
872241.000000
873083.000000
873945.000000
874928.000000
875974.000000
876856.000000
877719.000000
878673.000000
879720.000000
880633.000000
881443.000000
882266.000000
883358.000000
884430.000000
885295.000000
886230.000000
887310.000000
888394.000000
889272.000000
890107.000000
891057.000000
892156.000000
893258.000000
894241.000000
895083.000000
895924.000000
896983.000000
898076.000000
899182.000000
