ECG (ms)
784.000000
1576.000000
2398.000000
3280.000000
4187.000000
5118.000000
6063.000000
6934.000000
7793.000000
8638.000000
9431.000000
10200.000000
10927.000000
11658.000000
12465.000000
13269.000000
14074.000000
14922.000000
15855.000000
16728.000000
17581.000000
18435.000000
19241.000000
20004.000000
20755.000000
21524.000000
22333.000000
23175.000000
23978.000000
24780.000000
25585.000000
26391.000000
27202.000000
28001.000000
28811.000000
29623.000000
30389.000000
31109.000000
31800.000000
32481.000000
33194.000000
34028.000000
34946.000000
35887.000000
36816.000000
37712.000000
38605.000000
39447.000000
40235.000000
41035.000000
41869.000000
42725.000000
43605.000000
44507.000000
45392.000000
46304.000000
47232.000000
48113.000000
48986.000000
49858.000000
50720.000000
51530.000000
52349.000000
53173.000000
54044.000000
54941.000000
55820.000000
56682.000000
57555.000000
58406.000000
59288.000000
60206.000000
61170.000000
62089.000000
63034.000000
63994.000000
64879.000000
65775.000000
66681.000000
67574.000000
68398.000000
69187.000000
69958.000000
70739.000000
71564.000000
72431.000000
73326.000000
74130.000000
74888.000000
75608.000000
76369.000000
77211.000000
78182.000000
79065.000000
79891.000000
80664.000000
81416.000000
82199.000000
83098.000000
84059.000000
84916.000000
85770.000000
86615.000000
87434.000000
88248.000000
89037.000000
89790.000000
90547.000000
91316.000000
92116.000000
92931.000000
93751.000000
94558.000000
95292.000000
96008.000000
96730.000000
97464.000000
98231.000000
99000.000000
99775.000000
100569.000000
101349.000000
102143.000000
102948.000000
103718.000000
104482.000000
105246.000000
106039.000000
106865.000000
107684.000000
108504.000000
109326.000000
110120.000000
110898.000000
111674.000000
112479.000000
113299.000000
114132.000000
114980.000000
115823.000000
116624.000000
117443.000000
118282.000000
119148.000000
120022.000000
120883.000000
121735.000000
122578.000000
123397.000000
124217.000000
125049.000000
125874.000000
126721.000000
127637.000000
128483.000000
129302.000000
130082.000000
130823.000000
131594.000000
132386.000000
133270.000000
134240.000000
135156.000000
136069.000000
136981.000000
137829.000000
138657.000000
139488.000000
140294.000000
141079.000000
141903.000000
142809.000000
143754.000000
144668.000000
145565.000000
146406.000000
147218.000000
148031.000000
148859.000000
149644.000000
150412.000000
151153.000000
151868.000000
152643.000000
153454.000000
154349.000000
155275.000000
156065.000000
156833.000000
157613.000000
158429.000000
159244.000000
160095.000000
160992.000000
161878.000000
162750.000000
163604.000000
164423.000000
165258.000000
166112.000000
166978.000000
167759.000000
168498.000000
169201.000000
169944.000000
170767.000000
171603.000000
172451.000000
173327.000000
174228.000000
175082.000000
175929.000000
176779.000000
177558.000000
178290.000000
179042.000000
179876.000000
180847.000000
181777.000000
182647.000000
183520.000000
184379.000000
185186.000000
185972.000000
186754.000000
187557.000000
188361.000000
189197.000000
190086.000000
190950.000000
191782.000000
192614.000000
193424.000000
194163.000000
194881.000000
195567.000000
196278.000000
197052.000000
197871.000000
198764.000000
199686.000000
200549.000000
201350.000000
202154.000000
202963.000000
203731.000000
204431.000000
205104.000000
205813.000000
206653.000000
207893.000000
208990.000000
210025.000000
211000.000000
211894.000000
212765.000000
213634.000000
214497.000000
215383.000000
216287.000000
217200.000000
218113.000000
219023.000000
219889.000000
220754.000000
221624.000000
222440.000000
223209.000000
224014.000000
224910.000000
225980.000000
227005.000000
227940.000000
228824.000000
229683.000000
230513.000000
231377.000000
232277.000000
233138.000000
233918.000000
234670.000000
235435.000000
236304.000000
237368.000000
238437.000000
239452.000000
240365.000000
241152.000000
241901.000000
242655.000000
243416.000000
244183.000000
244987.000000
245830.000000
246692.000000
247555.000000
248437.000000
249335.000000
250180.000000
250969.000000
251756.000000
252542.000000
253344.000000
254135.000000
254957.000000
255804.000000
256665.000000
257519.000000
258375.000000
259209.000000
259971.000000
260710.000000
261461.000000
262247.000000
263083.000000
263908.000000
264695.000000
265433.000000
266187.000000
266948.000000
267735.000000
268570.000000
269446.000000
270293.000000
271134.000000
271984.000000
272845.000000
273680.000000
274537.000000
275413.000000
276264.000000
277128.000000
277954.000000
278761.000000
279585.000000
280423.000000
281239.000000
282077.000000
282950.000000
283800.000000
284585.000000
285325.000000
286049.000000
286785.000000
287639.000000
288836.000000
289897.000000
290928.000000
291899.000000
292745.000000
293540.000000
294332.000000
295136.000000
295927.000000
296691.000000
297435.000000
298172.000000
298952.000000
299964.000000
301061.000000
302121.000000
303124.000000
304040.000000
304916.000000
305791.000000
306640.000000
307453.000000
308292.000000
309203.000000
310146.000000
311059.000000
311972.000000
312837.000000
313617.000000
314372.000000
315158.000000
315979.000000
316826.000000
317617.000000
318365.000000
319109.000000
319890.000000
320735.000000
321616.000000
322418.000000
323164.000000
323887.000000
324624.000000
325434.000000
326468.000000
327544.000000
328578.000000
329584.000000
330513.000000
331310.000000
332058.000000
332799.000000
333586.000000
334537.000000
335583.000000
336619.000000
337620.000000
338496.000000
339266.000000
340007.000000
340757.000000
341572.000000
342495.000000
343523.000000
344532.000000
345452.000000
346267.000000
347028.000000
347800.000000
348628.000000
349585.000000
350598.000000
351595.000000
352532.000000
353386.000000
354225.000000
355067.000000
355928.000000
356763.000000
357565.000000
358407.000000
359399.000000
360442.000000
361426.000000
362366.000000
363252.000000
364046.000000
364780.000000
365498.000000
366240.000000
367047.000000
367916.000000
368828.000000
369763.000000
370658.000000
371513.000000
372372.000000
373208.000000
373980.000000
374712.000000
375436.000000
376200.000000
377167.000000
378261.000000
379318.000000
380250.000000
381055.000000
381807.000000
382551.000000
383334.000000
384272.000000
385315.000000
386363.000000
387364.000000
388335.000000
389205.000000
389980.000000
390720.000000
391474.000000
392316.000000
393542.000000
394637.000000
395643.000000
396624.000000
397549.000000
398394.000000
399178.000000
399980.000000
400814.000000
401737.000000
402672.000000
403587.000000
404419.000000
405218.000000
406041.000000
406903.000000
407748.000000
408550.000000
409294.000000
410020.000000
410723.000000
411433.000000
412200.000000
413084.000000
413936.000000
414723.000000
415475.000000
416241.000000
417060.000000
417956.000000
418890.000000
419770.000000
420562.000000
421338.000000
422124.000000
422965.000000
423862.000000
424733.000000
425534.000000
426326.000000
427173.000000
428145.000000
429152.000000
430116.000000
430988.000000
431782.000000
432576.000000
433369.000000
434162.000000
434959.000000
435788.000000
436646.000000
437485.000000
438361.000000
439234.000000
440058.000000
440829.000000
441569.000000
442307.000000
443085.000000
443962.000000
444927.000000
445885.000000
446818.000000
447714.000000
448543.000000
449346.000000
450147.000000
450944.000000
451747.000000
452588.000000
453472.000000
454375.000000
455263.000000
456161.000000
457048.000000
457906.000000
458703.000000
459452.000000
460179.000000
460883.000000
461598.000000
462321.000000
463063.000000
463800.000000
464654.000000
465663.000000
466593.000000
467525.000000
468421.000000
469248.000000
470011.000000
470751.000000
471509.000000
472330.000000
473295.000000
474273.000000
475192.000000
476102.000000
477002.000000
477882.000000
478692.000000
479527.000000
480378.000000
481242.000000
482097.000000
482897.000000
483644.000000
484395.000000
485149.000000
485896.000000
486634.000000
487397.000000
488260.000000
489313.000000
490358.000000
491326.000000
492177.000000
492951.000000
493731.000000
494553.000000
495466.000000
496427.000000
497357.000000
498248.000000
499116.000000
499961.000000
500785.000000
501597.000000
502437.000000
503321.000000
504243.000000
505142.000000
506004.000000
506919.000000
507868.000000
508771.000000
509617.000000
510493.000000
511415.000000
512392.000000
513381.000000
514358.000000
515308.000000
516171.000000
517013.000000
517897.000000
518835.000000
519823.000000
520805.000000
521726.000000
522544.000000
523305.000000
524058.000000
524837.000000
525731.000000
526791.000000
527848.000000
528875.000000
529798.000000
530615.000000
531404.000000
532222.000000
533108.000000
534064.000000
535014.000000
535876.000000
536747.000000
537615.000000
538507.000000
539436.000000
540348.000000
541211.000000
542074.000000
542925.000000
543738.000000
544510.000000
545266.000000
545999.000000
546778.000000
547692.000000
548648.000000
549517.000000
550379.000000
551271.000000
552159.000000
553029.000000
553905.000000
554777.000000
555643.000000
556495.000000
557293.000000
558104.000000
558976.000000
559916.000000
560868.000000
561755.000000
562645.000000
563523.000000
564413.000000
565264.000000
566048.000000
566810.000000
567591.000000
568492.000000
569589.000000
570652.000000
571639.000000
572546.000000
573459.000000
574333.000000
575161.000000
575983.000000
576799.000000
577600.000000
578432.000000
579298.000000
580213.000000
581100.000000
581921.000000
582750.000000
583593.000000
584460.000000
585349.000000
586184.000000
587015.000000
587864.000000
588754.000000
589665.000000
590550.000000
591442.000000
592308.000000
593129.000000
593938.000000
594755.000000
595607.000000
596456.000000
597274.000000
598115.000000
598997.000000
599955.000000
600881.000000
601776.000000
602682.000000
603606.000000
604494.000000
605359.000000
606182.000000
606999.000000
607809.000000
608617.000000
609429.000000
610268.000000
611172.000000
612173.000000
613180.000000
614104.000000
615025.000000
615929.000000
616803.000000
617688.000000
618622.000000
619560.000000
620411.000000
621189.000000
621927.000000
622652.000000
623423.000000
624706.000000
625825.000000
626905.000000
627947.000000
628902.000000
629852.000000
630769.000000
631668.000000
632590.000000
633515.000000
634424.000000
635335.000000
636227.000000
637106.000000
637982.000000
638840.000000
639663.000000
640502.000000
641356.000000
642233.000000
643082.000000
643920.000000
644705.000000
645464.000000
646186.000000
646922.000000
647691.000000
648507.000000
649319.000000
650153.000000
651006.000000
651873.000000
652695.000000
653458.000000
654205.000000
654976.000000
655826.000000
656759.000000
657729.000000
658630.000000
659546.000000
660407.000000
661255.000000
662052.000000
662832.000000
663634.000000
664515.000000
665488.000000
666462.000000
667325.000000
668111.000000
668892.000000
669697.000000
670580.000000
671532.000000
672505.000000
673431.000000
674375.000000
675343.000000
676314.000000
677239.000000
678037.000000
678793.000000
679557.000000
680387.000000
681369.000000
682421.000000
683390.000000
684265.000000
685132.000000
686030.000000
686952.000000
687886.000000
688790.000000
689704.000000
690582.000000
691453.000000
692356.000000
693277.000000
694155.000000
695047.000000
695953.000000
696908.000000
697822.000000
698721.000000
699601.000000
700412.000000
701179.000000
701952.000000
702779.000000
703771.000000
704815.000000
705808.000000
706759.000000
707684.000000
708598.000000
709425.000000
710198.000000
710935.000000
711644.000000
712356.000000
713102.000000
713864.000000
714627.000000
715461.000000
716386.000000
717326.000000
718240.000000
719137.000000
719997.000000
720853.000000
721684.000000
722542.000000
723400.000000
724274.000000
725202.000000
726158.000000
727079.000000
727950.000000
728845.000000
729754.000000
730690.000000
731596.000000
732490.000000
733364.000000
734214.000000
735078.000000
735936.000000
736820.000000
737676.000000
738539.000000
739440.000000
740348.000000
741256.000000
742189.000000
743119.000000
743968.000000
744754.000000
745502.000000
746246.000000
747022.000000
747863.000000
748754.000000
749594.000000
750383.000000
751161.000000
751912.000000
752661.000000
753462.000000
754350.000000
755277.000000
756147.000000
757009.000000
757889.000000
758757.000000
759572.000000
760404.000000
761255.000000
762122.000000
762986.000000
763865.000000
764749.000000
765580.000000
766395.000000
767210.000000
768056.000000
768891.000000
769769.000000
770653.000000
771536.000000
772402.000000
773248.000000
774115.000000
774962.000000
775813.000000
776636.000000
777489.000000
778372.000000
779287.000000
780180.000000
781050.000000
781905.000000
782758.000000
783585.000000
784386.000000
785209.000000
786083.000000
787049.000000
788005.000000
788918.000000
789802.000000
790726.000000
791653.000000
792536.000000
793418.000000
794266.000000
795112.000000
795976.000000
796825.000000
797719.000000
798588.000000
799371.000000
800150.000000
800989.000000
801946.000000
802849.000000
803782.000000
804724.000000
805592.000000
806468.000000
807330.000000
808156.000000
809002.000000
809903.000000
810780.000000
811646.000000
812508.000000
813325.000000
814153.000000
814998.000000
815829.000000
816600.000000
817357.000000
818079.000000
818828.000000
819640.000000
820454.000000
821354.000000
822253.000000
823061.000000
823800.000000
824504.000000
825216.000000
825982.000000
827121.000000
828207.000000
829262.000000
830309.000000
831336.000000
832327.000000
833253.000000
834162.000000
835071.000000
835927.000000
836831.000000
837845.000000
838866.000000
839826.000000
840671.000000
841427.000000
842165.000000
842909.000000
843686.000000
844529.000000
845406.000000
846335.000000
847277.000000
848181.000000
849097.000000
850008.000000
850849.000000
851675.000000
852525.000000
853421.000000
854364.000000
855305.000000
856219.000000
857106.000000
858007.000000
858916.000000
859779.000000
860618.000000
861449.000000
862315.000000
863262.000000
864214.000000
865182.000000
866159.000000
867128.000000
868043.000000
868980.000000
869923.000000
870869.000000
871825.000000
872769.000000
873683.000000
874606.000000
875483.000000
876332.000000
877138.000000
877895.000000
878629.000000
879379.000000
880237.000000
881184.000000
882181.000000
883210.000000
884144.000000
885042.000000
885924.000000
886795.000000
887598.000000
888431.000000
889336.000000
890243.000000
891180.000000
892130.000000
893065.000000
893944.000000
894831.000000
895715.000000
896597.000000
897416.000000
898199.000000
899009.000000
899877.000000
900814.000000
901727.000000
902615.000000
903477.000000
904349.000000
905174.000000
905974.000000
906789.000000
907646.000000
908551.000000
909450.000000
910349.000000
911223.000000
912093.000000
912931.000000
913742.000000
914579.000000
915451.000000
916357.000000
917227.000000
918024.000000
918850.000000
919759.000000
920747.000000
921658.000000
922582.000000
923493.000000
924339.000000
925182.000000
926036.000000
926904.000000
927748.000000
928611.000000
929450.000000
930246.000000
931006.000000
931761.000000
932576.000000
933430.000000
934346.000000
935271.000000
936202.000000
937107.000000
937987.000000
938869.000000
939760.000000
940639.000000
941525.000000
942397.000000
943291.000000
944216.000000
945148.000000
946011.000000
946894.000000
947781.000000
948594.000000
949442.000000
950363.000000
951274.000000
952194.000000
953104.000000
954008.000000
954880.000000
955757.000000
956652.000000
957565.000000
958467.000000
959371.000000
960272.000000
961150.000000
962023.000000
962874.000000
963749.000000
964595.000000
965398.000000
966182.000000
966995.000000
967911.000000
968892.000000
969837.000000
970744.000000
971640.000000
972479.000000
973286.000000
974069.000000
974873.000000
975700.000000
976559.000000
977525.000000
978539.000000
979460.000000
980380.000000
981217.000000
982002.000000
982741.000000
983476.000000
984224.000000
985031.000000
986000.000000
987022.000000
987994.000000
988941.000000
989828.000000
990704.000000
991557.000000
992450.000000
993361.000000
994266.000000
995184.000000
996104.000000
997042.000000
998007.000000
998942.000000
999868.000000
1000801.000000
1001727.000000
1002636.000000
1003550.000000
1004419.000000
1005296.000000
1006199.000000
1007019.000000
1007856.000000
1008753.000000
1009709.000000
1010599.000000
1011532.000000
1012494.000000
1013420.000000
1014325.000000
1015190.000000
1015976.000000
1016733.000000
1017457.000000
1018212.000000
1019059.000000
1019909.000000
1020778.000000
1021672.000000
1022555.000000
1023390.000000
1024246.000000
1025106.000000
1026001.000000
1026903.000000
1027804.000000
1028700.000000
1029608.000000
1030532.000000
1031461.000000
1032337.000000
1033180.000000
1034006.000000
1034805.000000
1035617.000000
1036455.000000
1037283.000000
1038069.000000
1038808.000000
1039520.000000
1040245.000000
1041092.000000
1042363.000000
1043472.000000
1044533.000000
1045573.000000
1046574.000000
1047494.000000
1048392.000000
1049291.000000
1050171.000000
1051051.000000
1051931.000000
1052812.000000
1053724.000000
1054634.000000
1055543.000000
1056456.000000
1057330.000000
1058223.000000
1059147.000000
1060035.000000
1060953.000000
1061917.000000
1062973.000000
1063951.000000
1064805.000000
1065603.000000
1066424.000000
1067324.000000
1068272.000000
1069171.000000
1069984.000000
1070766.000000
1071581.000000
1072479.000000
1073462.000000
1074459.000000
1075422.000000
1076357.000000
1077280.000000
1078175.000000
1079026.000000
1079905.000000
1080798.000000
1081652.000000
1082541.000000
1083466.000000
1084362.000000
1085242.000000
1086122.000000
1086942.000000
1087703.000000
1088436.000000
1089172.000000
1090060.000000
1091327.000000
1092446.000000
1093522.000000
1094463.000000
1095291.000000
1096061.000000
1096835.000000
1097681.000000
1098618.000000
1099565.000000
1100508.000000
1101464.000000
1102382.000000
1103247.000000
1104123.000000
1105049.000000
1105990.000000
1106950.000000
1107902.000000
1108781.000000
1109585.000000
1110401.000000
1111279.000000
1112275.000000
1113344.000000
1114369.000000
1115381.000000
1116350.000000
1117255.000000
1118078.000000
1118915.000000
1119810.000000
1120833.000000
1121901.000000
1122928.000000
1123871.000000
1124822.000000
1125799.000000
1126771.000000
1127704.000000
1128582.000000
1129481.000000
1130374.000000
1131213.000000
1132080.000000
1132993.000000
1133989.000000
1135008.000000
1135980.000000
1136941.000000
1137897.000000
1138831.000000
1139735.000000
1140673.000000
1141609.000000
1142495.000000
1143430.000000
1144383.000000
1145285.000000
1146229.000000
1147201.000000
1148154.000000
1149057.000000
1149978.000000
1150920.000000
1151801.000000
1152615.000000
1153441.000000
1154347.000000
1155312.000000
1156226.000000
1157117.000000
1158054.000000
1159026.000000
1159937.000000
1160822.000000
1161684.000000
1162469.000000
1163205.000000
1163930.000000
1164699.000000
1165748.000000
1166808.000000
1167815.000000
1168756.000000
1169649.000000
1170431.000000
1171179.000000
1171898.000000
1172608.000000
1173359.000000
1174271.000000
1175276.000000
1176228.000000
1177157.000000
1178087.000000
1179009.000000
1179930.000000
1180853.000000
1181716.000000
1182596.000000
1183486.000000
1184323.000000
1185080.000000
1185818.000000
1186559.000000
1187368.000000
1188316.000000
1189293.000000
1190238.000000
1191172.000000
1192071.000000
1192935.000000
1193821.000000
1194707.000000
1195638.000000
1196547.000000
1197428.000000
1198308.000000
1199188.000000
1200033.000000
1200887.000000
1201769.000000
1202634.000000
1203450.000000
1204282.000000
1205144.000000
1205995.000000
1206790.000000
1207577.000000
1208339.000000
1209056.000000
1209784.000000
1210527.000000
1211313.000000
1212191.000000
1213154.000000
1214061.000000
1214931.000000
1215810.000000
1216687.000000
1217535.000000
1218323.000000
1219086.000000
1219814.000000
1220603.000000
1221519.000000
1222435.000000
1223340.000000
1224267.000000
1225220.000000
1226095.000000
1226892.000000
1227707.000000
1228609.000000
1229591.000000
1230545.000000
1231418.000000
1232260.000000
1233128.000000
1234046.000000
1234971.000000
1235892.000000
1236859.000000
1237850.000000
1238772.000000
1239698.000000
1240667.000000
1241655.000000
1242614.000000
1243576.000000
1244535.000000
1245461.000000
1246382.000000
1247335.000000
1248315.000000
1249237.000000
1250159.000000
1251097.000000
1252027.000000
1252931.000000
1253869.000000
1254832.000000
1255711.000000
1256574.000000
1257465.000000
1258422.000000
1259393.000000
1260259.000000
1261150.000000
1262101.000000
1263138.000000
1264122.000000
1265025.000000
1265912.000000
1266802.000000
1267676.000000
1268584.000000
1269528.000000
1270464.000000
1271395.000000
1272344.000000
1273303.000000
1274192.000000
1275098.000000
1276024.000000
1276947.000000
1277888.000000
1278852.000000
1279825.000000
1280717.000000
1281560.000000
1282474.000000
1283531.000000
1284511.000000
1285352.000000
1286108.000000
1286820.000000
1287535.000000
1288394.000000
1289740.000000
1290872.000000
1291975.000000
1293041.000000
1294046.000000
1295070.000000
1296087.000000
1297071.000000
1297988.000000
1298904.000000
1299821.000000
1300746.000000
1301647.000000
1302559.000000
1303476.000000
1304390.000000
1305273.000000
1306193.000000
1307140.000000
1308054.000000
1308915.000000
1309772.000000
1310704.000000
1311711.000000
1312680.000000
1313586.000000
1314486.000000
1315374.000000
1316229.000000
1317099.000000
1318015.000000
1318934.000000
1319885.000000
1320859.000000
1321841.000000
1322775.000000
1323636.000000
1324511.000000
1325433.000000
1326390.000000
