ECG (ms)
305.000000
1021.000000
1743.000000
2445.000000
3180.000000
3920.000000
4640.000000
5392.000000
6181.000000
6972.000000
7763.000000
8547.000000
9368.000000
10201.000000
11016.000000
11805.000000
12620.000000
13465.000000
14318.000000
15167.000000
15970.000000
16782.000000
17608.000000
18451.000000
19304.000000
20122.000000
20960.000000
21822.000000
22697.000000
23561.000000
24394.000000
25252.000000
26121.000000
26985.000000
27824.000000
28632.000000
29474.000000
30355.000000
31258.000000
32157.000000
33013.000000
33876.000000
34763.000000
35642.000000
36502.000000
37316.000000
38136.000000
38959.000000
39770.000000
40555.000000
41374.000000
42200.000000
43039.000000
43866.000000
44736.000000
45613.000000
46478.000000
47301.000000
48155.000000
48990.000000
49807.000000
50593.000000
51414.000000
52230.000000
53032.000000
53830.000000
54665.000000
55504.000000
56340.000000
57148.000000
57975.000000
58819.000000
59670.000000
60476.000000
61288.000000
62113.000000
62950.000000
63773.000000
64565.000000
65315.000000
66041.000000
66804.000000
67605.000000
68443.000000
69285.000000
70106.000000
70932.000000
71766.000000
72608.000000
73430.000000
74247.000000
75035.000000
75852.000000
76692.000000
77566.000000
78444.000000
79303.000000
80143.000000
81010.000000
81877.000000
82746.000000
83574.000000
84418.000000
85283.000000
86164.000000
87029.000000
87871.000000
88737.000000
89615.000000
90481.000000
91332.000000
92169.000000
93026.000000
93880.000000
94716.000000
95537.000000
96390.000000
97242.000000
98078.000000
98900.000000
99746.000000
100632.000000
101526.000000
102391.000000
103250.000000
104117.000000
104991.000000
105846.000000
106677.000000
107532.000000
108396.000000
109257.000000
110104.000000
110992.000000
111892.000000
112794.000000
113654.000000
114513.000000
115380.000000
116253.000000
117114.000000
117938.000000
118793.000000
119693.000000
120623.000000
121559.000000
122453.000000
123364.000000
124304.000000
125255.000000
126195.000000
127093.000000
128001.000000
128926.000000
129849.000000
130765.000000
131675.000000
132547.000000
133396.000000
134282.000000
135181.000000
136049.000000
136905.000000
137790.000000
138716.000000
139655.000000
140557.000000
141440.000000
142336.000000
143247.000000
144145.000000
145008.000000
145865.000000
146744.000000
147623.000000
148512.000000
149372.000000
150207.000000
151090.000000
151974.000000
152864.000000
153708.000000
154559.000000
155426.000000
156292.000000
157158.000000
157990.000000
158861.000000
159765.000000
160672.000000
161564.000000
162417.000000
163301.000000
164186.000000
165064.000000
165929.000000
166765.000000
167632.000000
168520.000000
169406.000000
170259.000000
171118.000000
171985.000000
172848.000000
173706.000000
174525.000000
175377.000000
176240.000000
177108.000000
177965.000000
178806.000000
179673.000000
180543.000000
181406.000000
182231.000000
183085.000000
183957.000000
184835.000000
185670.000000
186510.000000
187360.000000
188193.000000
189019.000000
189816.000000
190653.000000
191526.000000
192437.000000
193341.000000
194195.000000
195064.000000
195948.000000
196839.000000
197714.000000
198562.000000
199438.000000
200316.000000
201195.000000
202020.000000
202876.000000
203727.000000
204592.000000
205433.000000
206280.000000
207163.000000
208054.000000
208935.000000
209794.000000
210674.000000
211566.000000
212445.000000
213277.000000
214148.000000
215033.000000
215900.000000
216760.000000
217629.000000
218497.000000
219353.000000
220225.000000
221142.000000
222058.000000
222976.000000
223886.000000
224770.000000
225632.000000
226529.000000
227444.000000
228363.000000
229262.000000
230120.000000
231024.000000
231913.000000
232802.000000
233655.000000
234502.000000
235379.000000
236275.000000
237161.000000
238006.000000
238875.000000
239772.000000
240677.000000
241575.000000
242424.000000
243294.000000
244166.000000
245015.000000
245840.000000
246643.000000
247480.000000
248346.000000
249225.000000
250090.000000
250939.000000
251834.000000
252749.000000
253674.000000
254565.000000
255420.000000
256306.000000
257186.000000
258054.000000
258887.000000
259752.000000
260648.000000
261555.000000
262438.000000
263289.000000
264176.000000
265065.000000
265950.000000
266829.000000
267671.000000
268544.000000
269419.000000
270305.000000
271185.000000
272041.000000
272872.000000
273738.000000
274621.000000
275515.000000
276369.000000
277222.000000
278096.000000
278972.000000
279832.000000
280675.000000
281496.000000
282364.000000
283219.000000
284063.000000
284874.000000
285693.000000
286503.000000
287318.000000
288165.000000
289027.000000
289899.000000
290787.000000
291664.000000
292544.000000
293394.000000
294260.000000
295147.000000
296035.000000
296920.000000
297767.000000
298640.000000
299505.000000
300357.000000
301205.000000
302027.000000
302864.000000
303710.000000
304556.000000
305392.000000
306194.000000
307024.000000
307845.000000
308674.000000
309508.000000
310315.000000
311145.000000
312017.000000
312880.000000
313745.000000
314568.000000
315421.000000
316272.000000
317113.000000
317914.000000
318729.000000
319560.000000
320385.000000
321217.000000
322035.000000
322825.000000
323653.000000
324472.000000
325306.000000
326124.000000
326924.000000
327769.000000
328610.000000
329441.000000
330226.000000
330974.000000
332469.000000
333289.000000
334130.000000
334986.000000
335863.000000
336705.000000
337542.000000
338400.000000
339251.000000
340107.000000
340970.000000
341786.000000
342615.000000
343468.000000
344333.000000
345225.000000
346112.000000
346972.000000
347862.000000
348783.000000
349694.000000
350592.000000
351471.000000
352375.000000
353266.000000
354161.000000
355024.000000
355887.000000
356758.000000
357634.000000
358476.000000
359352.000000
360222.000000
361098.000000
361961.000000
362841.000000
363712.000000
364586.000000
365422.000000
366273.000000
367150.000000
368029.000000
368902.000000
369755.000000
370658.000000
371557.000000
372439.000000
373295.000000
374185.000000
375058.000000
375914.000000
376755.000000
377615.000000
378478.000000
379345.000000
380174.000000
381034.000000
381891.000000
382762.000000
383620.000000
384466.000000
385340.000000
386203.000000
387054.000000
387875.000000
388736.000000
389589.000000
390437.000000
391278.000000
392129.000000
392984.000000
393826.000000
394637.000000
395497.000000
396356.000000
397208.000000
398037.000000
398870.000000
399732.000000
400580.000000
401424.000000
402246.000000
403101.000000
403953.000000
404799.000000
405612.000000
406471.000000
407344.000000
408215.000000
409079.000000
409927.000000
410787.000000
411645.000000
412494.000000
413330.000000
414199.000000
415085.000000
415988.000000
416876.000000
417773.000000
418674.000000
419551.000000
420399.000000
421262.000000
422132.000000
423012.000000
423854.000000
424737.000000
425636.000000
426526.000000
427370.000000
428221.000000
429090.000000
429962.000000
430820.000000
431674.000000
432550.000000
433441.000000
434299.000000
435168.000000
436059.000000
436946.000000
437813.000000
438639.000000
439488.000000
440325.000000
441160.000000
441980.000000
442810.000000
443671.000000
444542.000000
445386.000000
446255.000000
447134.000000
448019.000000
448889.000000
449736.000000
450611.000000
451463.000000
452298.000000
453092.000000
453918.000000
454733.000000
455553.000000
456370.000000
457182.000000
458028.000000
458895.000000
459754.000000
460597.000000
461454.000000
462309.000000
463135.000000
463946.000000
464794.000000
465641.000000
466493.000000
467350.000000
468169.000000
469006.000000
469861.000000
470715.000000
471570.000000
472391.000000
473258.000000
474135.000000
475010.000000
475855.000000
476738.000000
477627.000000
478486.000000
479365.000000
480235.000000
481111.000000
481935.000000
482793.000000
483653.000000
484519.000000
485389.000000
486258.000000
487156.000000
488067.000000
488936.000000
489830.000000
490714.000000
491588.000000
492427.000000
493295.000000
494155.000000
495023.000000
495857.000000
496704.000000
497587.000000
498474.000000
499364.000000
500225.000000
501127.000000
502029.000000
502923.000000
503772.000000
504641.000000
505505.000000
506372.000000
507221.000000
508050.000000
508897.000000
509751.000000
510603.000000
511420.000000
512285.000000
513152.000000
514028.000000
514865.000000
515730.000000
516617.000000
517513.000000
518389.000000
519257.000000
520121.000000
520985.000000
521810.000000
522638.000000
523475.000000
524302.000000
525106.000000
525949.000000
526810.000000
527681.000000
528541.000000
529388.000000
530258.000000
531124.000000
531967.000000
532823.000000
533687.000000
534554.000000
535382.000000
536254.000000
537137.000000
538009.000000
538853.000000
539740.000000
540630.000000
541506.000000
542341.000000
543206.000000
544063.000000
544921.000000
545749.000000
546559.000000
547394.000000
548237.000000
549072.000000
549917.000000
550790.000000
551676.000000
552558.000000
553398.000000
554272.000000
555131.000000
555984.000000
556802.000000
557657.000000
558518.000000
559382.000000
560224.000000
561043.000000
561896.000000
562746.000000
563591.000000
564421.000000
565275.000000
566131.000000
566987.000000
567816.000000
568667.000000
569538.000000
570413.000000
571246.000000
572127.000000
573027.000000
573937.000000
574835.000000
575707.000000
576610.000000
577513.000000
578409.000000
579287.000000
580170.000000
581054.000000
581933.000000
582797.000000
583687.000000
584588.000000
585484.000000
586374.000000
587287.000000
588209.000000
589093.000000
589993.000000
590886.000000
591756.000000
592606.000000
593469.000000
594339.000000
595193.000000
596045.000000
596934.000000
597832.000000
598705.000000
599576.000000
600461.000000
601356.000000
602217.000000
603085.000000
603962.000000
604833.000000
605679.000000
606545.000000
607418.000000
608276.000000
609124.000000
609995.000000
610865.000000
611712.000000
612559.000000
613422.000000
614292.000000
615137.000000
616015.000000
616912.000000
617804.000000
618693.000000
619606.000000
620531.000000
621419.000000
622307.000000
623189.000000
624052.000000
624890.000000
625753.000000
626625.000000
627483.000000
628318.000000
629170.000000
630036.000000
630910.000000
631752.000000
632630.000000
633509.000000
634384.000000
635255.000000
636148.000000
637035.000000
637894.000000
638771.000000
639656.000000
640530.000000
641375.000000
642231.000000
643087.000000
643925.000000
644738.000000
645569.000000
646421.000000
647270.000000
648112.000000
648994.000000
649890.000000
650757.000000
651628.000000
652504.000000
653365.000000
654197.000000
655047.000000
655909.000000
656757.000000
657617.000000
658507.000000
659410.000000
660266.000000
661127.000000
661987.000000
662811.000000
663640.000000
664471.000000
665307.000000
666125.000000
666965.000000
667837.000000
668700.000000
669547.000000
670413.000000
671318.000000
672183.000000
673044.000000
673948.000000
674856.000000
675739.000000
676639.000000
677550.000000
678433.000000
679324.000000
680220.000000
681107.000000
681966.000000
682819.000000
683683.000000
684561.000000
685410.000000
686295.000000
687213.000000
688130.000000
689012.000000
689924.000000
690845.000000
691741.000000
692607.000000
693476.000000
694354.000000
695219.000000
696076.000000
696966.000000
697876.000000
698765.000000
699662.000000
700574.000000
701473.000000
702378.000000
703304.000000
704218.000000
705127.000000
706046.000000
706949.000000
707829.000000
708718.000000
709603.000000
710465.000000
711332.000000
712215.000000
713109.000000
713980.000000
714871.000000
715793.000000
716697.000000
717590.000000
718507.000000
719429.000000
720325.000000
721203.000000
722119.000000
723048.000000
723953.000000
724847.000000
725750.000000
726658.000000
727550.000000
728432.000000
729319.000000
730183.000000
731025.000000
731878.000000
732736.000000
733594.000000
734436.000000
735285.000000
736137.000000
736972.000000
737800.000000
738649.000000
739536.000000
740429.000000
741293.000000
742177.000000
743070.000000
743951.000000
744804.000000
745667.000000
746541.000000
747401.000000
748280.000000
749178.000000
750073.000000
750971.000000
751873.000000
752760.000000
753619.000000
754504.000000
755414.000000
756314.000000
757198.000000
758105.000000
759010.000000
759886.000000
760749.000000
761637.000000
762536.000000
763417.000000
764274.000000
765152.000000
766037.000000
766718.000000
767828.000000
768741.000000
769651.000000
770584.000000
771529.000000
772456.000000
773364.000000
774279.000000
775194.000000
776089.000000
776970.000000
777878.000000
778794.000000
779700.000000
780618.000000
781562.000000
782498.000000
783381.000000
784283.000000
785188.000000
786074.000000
786936.000000
787809.000000
788694.000000
789565.000000
790434.000000
791329.000000
792238.000000
793133.000000
794056.000000
794980.000000
795871.000000
796773.000000
797673.000000
798549.000000
799432.000000
800345.000000
801270.000000
802161.000000
803066.000000
803972.000000
804859.000000
805716.000000
806583.000000
807453.000000
808329.000000
809196.000000
810093.000000
811001.000000
811877.000000
812735.000000
813606.000000
814477.000000
815317.000000
816152.000000
816999.000000
817853.000000
818684.000000
819531.000000
820384.000000
821231.000000
822067.000000
822907.000000
823752.000000
824589.000000
825414.000000
826243.000000
827078.000000
827902.000000
828717.000000
829542.000000
830377.000000
831204.000000
832042.000000
832908.000000
833777.000000
834629.000000
835497.000000
836371.000000
837238.000000
838087.000000
838952.000000
839824.000000
840672.000000
841514.000000
842363.000000
843210.000000
844044.000000
844897.000000
845774.000000
846663.000000
847532.000000
848406.000000
849293.000000
850174.000000
851038.000000
851908.000000
852797.000000
853661.000000
854520.000000
855396.000000
856272.000000
857128.000000
857993.000000
858863.000000
859740.000000
860613.000000
861513.000000
862434.000000
863338.000000
864249.000000
865176.000000
866109.000000
867017.000000
867941.000000
868856.000000
869714.000000
870580.000000
871449.000000
872296.000000
873133.000000
873995.000000
874871.000000
875737.000000
876606.000000
877506.000000
878422.000000
879310.000000
880212.000000
881124.000000
882032.000000
882914.000000
883810.000000
884707.000000
885586.000000
886490.000000
887407.000000
888286.000000
889185.000000
890108.000000
891010.000000
891907.000000
892831.000000
893746.000000
894636.000000
895518.000000
896425.000000
897337.000000
898257.000000
899151.000000
900058.000000
900960.000000
901837.000000
902689.000000
903561.000000
904434.000000
905304.000000
906179.000000
907068.000000
