ECG (ms)
985.000000
1764.000000
2516.000000
3279.000000
4028.000000
4796.000000
5602.000000
6446.000000
7328.000000
8223.000000
9151.000000
10098.000000
10984.000000
11815.000000
12604.000000
13365.000000
14103.000000
14811.000000
15525.000000
16249.000000
16984.000000
17757.000000
18557.000000
19369.000000
20223.000000
21095.000000
22001.000000
22945.000000
23882.000000
24803.000000
25716.000000
26655.000000
27576.000000
28493.000000
29433.000000
30386.000000
31299.000000
32226.000000
33172.000000
34082.000000
34957.000000
35835.000000
36694.000000
37536.000000
38376.000000
39250.000000
40134.000000
41011.000000
41887.000000
42770.000000
43642.000000
44512.000000
45385.000000
46249.000000
47158.000000
48081.000000
49009.000000
49901.000000
50812.000000
51744.000000
52648.000000
53535.000000
54451.000000
55339.000000
56239.000000
57163.000000
58080.000000
58956.000000
59848.000000
60747.000000
61628.000000
62527.000000
63454.000000
64360.000000
65274.000000
66259.000000
67158.000000
68043.000000
68931.000000
69826.000000
70678.000000
71519.000000
72371.000000
73204.000000
74053.000000
74984.000000
75916.000000
76877.000000
77808.000000
78701.000000
79558.000000
80403.000000
81249.000000
82066.000000
82877.000000
83691.000000
84148.000000
85333.000000
86097.000000
86864.000000
87651.000000
88449.000000
89300.000000
90239.000000
91180.000000
92103.000000
93054.000000
93992.000000
94885.000000
95794.000000
96706.000000
97572.000000
98426.000000
99294.000000
100163.000000
101013.000000
101870.000000
102741.000000
103608.000000
104462.000000
105318.000000
106193.000000
107077.000000
107927.000000
108785.000000
109677.000000
110557.000000
111417.000000
112267.000000
113130.000000
113981.000000
114838.000000
115723.000000
116661.000000
117575.000000
118528.000000
119473.000000
120375.000000
121263.000000
122161.000000
123035.000000
123890.000000
124756.000000
125638.000000
126495.000000
127336.000000
128191.000000
129060.000000
129943.000000
130853.000000
131813.000000
132738.000000
133676.000000
134689.000000
135617.000000
136527.000000
137446.000000
138361.000000
139244.000000
140154.000000
141047.000000
141900.000000
142754.000000
143605.000000
144448.000000
145301.000000
146177.000000
147087.000000
147962.000000
148832.000000
149735.000000
150614.000000
151453.000000
152299.000000
153184.000000
154057.000000
154932.000000
155851.000000
156775.000000
157642.000000
158503.000000
159376.000000
160251.000000
161122.000000
162018.000000
162955.000000
163897.000000
164804.000000
165749.000000
166726.000000
167641.000000
168539.000000
169481.000000
170376.000000
171249.000000
172134.000000
173089.000000
174027.000000
174927.000000
175818.000000
176753.000000
177669.000000
178551.000000
179422.000000
180313.000000
181181.000000
182034.000000
182905.000000
183830.000000
184773.000000
185692.000000
186629.000000
187595.000000
188502.000000
189441.000000
190388.000000
191263.000000
192158.000000
193072.000000
193969.000000
194837.000000
195727.000000
196642.000000
197524.000000
198402.000000
199288.000000
200197.000000
201071.000000
201978.000000
202878.000000
203744.000000
204634.000000
205540.000000
206426.000000
207297.000000
208214.000000
209177.000000
210116.000000
211078.000000
212116.000000
213098.000000
214034.000000
215026.000000
216055.000000
216999.000000
217961.000000
218968.000000
219918.000000
220836.000000
221791.000000
222745.000000
223638.000000
224540.000000
225448.000000
226381.000000
227263.000000
228106.000000
228972.000000
229867.000000
230751.000000
231669.000000
232589.000000
233497.000000
234410.000000
235404.000000
236392.000000
237304.000000
238205.000000
239139.000000
240054.000000
240936.000000
241857.000000
242784.000000
243674.000000
244569.000000
245506.000000
246429.000000
247325.000000
248295.000000
249298.000000
250197.000000
251094.000000
251974.000000
252860.000000
253771.000000
254722.000000
255642.000000
256600.000000
257582.000000
258467.000000
259350.000000
260233.000000
261098.000000
261975.000000
262872.000000
263808.000000
264796.000000
265700.000000
266681.000000
267679.000000
268623.000000
269601.000000
270630.000000
271634.000000
272647.000000
273829.000000
274869.000000
275884.000000
276912.000000
277879.000000
278838.000000
279780.000000
280666.000000
281548.000000
282472.000000
283411.000000
284325.000000
285225.000000
286135.000000
287041.000000
287926.000000
288825.000000
289780.000000
290743.000000
291655.000000
292534.000000
293441.000000
294359.000000
295256.000000
296167.000000
297139.000000
298102.000000
299091.000000
300177.000000
301260.000000
302225.000000
303239.000000
304279.000000
305239.000000
306132.000000
307001.000000
307899.000000
308834.000000
309775.000000
310725.000000
311696.000000
312732.000000
313730.000000
314663.000000
315611.000000
316587.000000
317581.000000
318522.000000
319444.000000
320386.000000
321315.000000
322220.000000
323130.000000
324071.000000
324985.000000
325887.000000
326797.000000
327739.000000
328680.000000
329576.000000
330467.000000
331372.000000
332285.000000
333184.000000
334077.000000
334998.000000
335936.000000
336854.000000
337772.000000
338727.000000
339671.000000
340545.000000
341435.000000
342365.000000
343296.000000
344195.000000
345097.000000
346040.000000
346930.000000
347812.000000
348745.000000
349713.000000
350676.000000
351591.000000
352558.000000
353505.000000
354394.000000
355284.000000
356191.000000
357115.000000
358011.000000
358915.000000
359870.000000
360764.000000
361633.000000
362527.000000
363470.000000
364358.000000
365274.000000
366218.000000
367153.000000
368039.000000
368910.000000
369806.000000
370725.000000
371659.000000
372609.000000
373727.000000
374772.000000
375728.000000
376785.000000
377840.000000
378818.000000
379761.000000
380713.000000
381624.000000
382489.000000
383326.000000
384185.000000
385072.000000
385950.000000
386820.000000
387770.000000
388661.000000
389532.000000
390392.000000
391314.000000
392272.000000
393204.000000
394133.000000
395085.000000
396034.000000
396952.000000
397910.000000
398917.000000
399852.000000
400790.000000
401757.000000
402675.000000
403552.000000
404459.000000
405371.000000
406257.000000
407107.000000
407965.000000
408839.000000
409715.000000
410602.000000
411522.000000
412429.000000
413315.000000
414182.000000
415074.000000
415953.000000
416783.000000
417614.000000
418458.000000
419319.000000
420189.000000
421100.000000
422095.000000
423100.000000
424018.000000
424948.000000
425919.000000
426893.000000
427802.000000
428742.000000
429773.000000
430778.000000
431746.000000
432785.000000
433867.000000
434877.000000
435787.000000
436693.000000
437641.000000
438602.000000
439495.000000
440386.000000
441260.000000
442110.000000
442963.000000
443842.000000
444723.000000
445597.000000
446479.000000
447396.000000
448308.000000
449211.000000
450142.000000
451067.000000
451927.000000
452376.000000
453633.000000
454477.000000
455289.000000
456124.000000
456992.000000
457900.000000
458821.000000
459712.000000
460647.000000
461574.000000
462467.000000
463374.000000
464255.000000
465126.000000
465584.000000
466770.000000
467563.000000
468353.000000
469155.000000
469976.000000
470818.000000
471726.000000
472666.000000
473583.000000
474486.000000
475450.000000
476368.000000
477269.000000
478118.000000
478989.000000
479881.000000
480780.000000
481655.000000
482596.000000
483552.000000
484469.000000
485375.000000
486356.000000
487415.000000
488359.000000
489285.000000
490249.000000
491205.000000
492160.000000
493200.000000
494370.000000
495441.000000
496394.000000
497340.000000
498331.000000
499358.000000
500312.000000
501340.000000
502241.000000
503070.000000
503889.000000
504730.000000
505652.000000
506561.000000
507485.000000
508458.000000
509390.000000
510313.000000
511281.000000
512307.000000
513264.000000
514299.000000
515524.000000
516577.000000
517690.000000
518814.000000
519777.000000
520763.000000
521806.000000
522790.000000
523739.000000
524693.000000
525687.000000
526657.000000
527564.000000
528486.000000
529422.000000
530333.000000
531219.000000
532157.000000
533121.000000
534017.000000
534880.000000
535772.000000
536663.000000
537537.000000
537992.000000
539217.000000
540030.000000
540816.000000
541653.000000
542542.000000
543450.000000
544416.000000
545741.000000
546992.000000
548078.000000
549131.000000
550115.000000
551064.000000
552115.000000
553224.000000
554232.000000
555298.000000
556326.000000
557375.000000
558341.000000
559393.000000
560484.000000
561549.000000
562527.000000
563549.000000
564568.000000
565559.000000
566493.000000
567406.000000
568355.000000
569310.000000
570227.000000
571124.000000
572033.000000
572988.000000
573946.000000
574863.000000
575806.000000
576748.000000
577652.000000
578621.000000
579708.000000
580683.000000
581634.000000
582654.000000
583649.000000
584503.000000
585329.000000
586178.000000
587089.000000
588060.000000
589041.000000
589963.000000
590932.000000
591946.000000
592899.000000
593883.000000
594893.000000
595946.000000
596896.000000
597858.000000
598878.000000
599870.000000
600790.000000
601706.000000
602620.000000
603548.000000
604446.000000
605347.000000
606292.000000
607189.000000
608083.000000
608954.000000
609840.000000
610757.000000
611651.000000
612552.000000
613498.000000
614463.000000
615370.000000
616294.000000
617268.000000
618229.000000
619209.000000
620276.000000
621325.000000
622270.000000
623213.000000
624172.000000
625110.000000
626016.000000
626948.000000
627945.000000
628956.000000
629872.000000
630782.000000
631780.000000
632747.000000
633663.000000
634545.000000
635001.000000
636302.000000
637145.000000
637983.000000
638890.000000
639872.000000
640826.000000
641822.000000
642887.000000
643885.000000
644827.000000
645739.000000
646630.000000
647536.000000
648400.000000
649237.000000
650133.000000
651073.000000
651964.000000
652864.000000
653841.000000
654835.000000
655726.000000
656636.000000
657562.000000
658451.000000
659356.000000
660303.000000
661215.000000
662103.000000
663013.000000
663949.000000
664859.000000
665719.000000
666566.000000
667446.000000
668317.000000
669205.000000
670125.000000
671135.000000
672261.000000
673263.000000
674345.000000
675450.000000
676446.000000
677469.000000
678543.000000
679560.000000
680528.000000
681532.000000
682571.000000
683525.000000
684420.000000
685330.000000
686278.000000
687240.000000
688141.000000
689037.000000
689988.000000
690960.000000
691889.000000
692782.000000
693708.000000
694655.000000
695569.000000
696439.000000
697294.000000
698201.000000
699125.000000
700042.000000
700944.000000
701873.000000
702836.000000
703726.000000
704577.000000
705424.000000
706269.000000
707089.000000
707946.000000
708798.000000
709652.000000
710493.000000
711357.000000
712263.000000
713167.000000
714088.000000
715077.000000
716124.000000
717057.000000
717967.000000
718921.000000
719911.000000
720869.000000
721873.000000
723007.000000
724117.000000
725099.000000
726053.000000
727039.000000
727982.000000
728936.000000
729897.000000
730844.000000
731749.000000
732620.000000
733496.000000
734441.000000
735472.000000
736467.000000
737416.000000
738499.000000
739792.000000
740969.000000
742119.000000
743143.000000
744067.000000
744956.000000
745888.000000
746813.000000
747670.000000
748518.000000
749389.000000
750255.000000
751092.000000
751924.000000
752770.000000
753648.000000
754530.000000
755391.000000
756293.000000
757184.000000
758033.000000
758902.000000
759814.000000
760690.000000
761538.000000
762390.000000
763264.000000
764127.000000
764974.000000
765803.000000
766677.000000
767572.000000
768441.000000
769305.000000
770213.000000
771118.000000
772019.000000
772883.000000
773734.000000
774589.000000
775446.000000
776339.000000
777354.000000
778679.000000
779831.000000
781014.000000
781992.000000
782932.000000
783996.000000
785125.000000
786118.000000
787116.000000
788140.000000
789156.000000
790091.000000
791082.000000
792089.000000
793090.000000
794009.000000
794965.000000
795979.000000
796927.000000
797851.000000
798721.000000
799630.000000
800561.000000
801491.000000
802366.000000
803318.000000
804340.000000
805343.000000
806268.000000
807215.000000
808210.000000
809208.000000
810134.000000
811044.000000
812002.000000
812990.000000
813929.000000
814849.000000
815829.000000
816827.000000
817772.000000
818694.000000
819663.000000
820634.000000
821554.000000
822467.000000
823376.000000
824291.000000
825184.000000
826063.000000
826999.000000
827946.000000
828932.000000
829826.000000
830711.000000
831607.000000
832496.000000
833354.000000
834201.000000
835062.000000
835910.000000
836740.000000
837563.000000
838402.000000
839280.000000
840160.000000
841043.000000
841947.000000
842891.000000
843831.000000
844694.000000
845578.000000
846482.000000
847344.000000
848205.000000
849121.000000
850148.000000
851016.000000
851885.000000
852799.000000
853696.000000
854539.000000
855342.000000
856151.000000
856998.000000
857873.000000
858800.000000
860075.000000
861373.000000
862436.000000
863499.000000
864615.000000
865588.000000
866663.000000
868005.000000
869239.000000
870346.000000
871451.000000
872506.000000
873503.000000
874421.000000
875348.000000
876374.000000
877353.000000
878249.000000
879101.000000
880000.000000
880971.000000
882042.000000
883000.000000
883941.000000
885057.000000
886435.000000
887582.000000
888667.000000
889713.000000
890681.000000
891667.000000
892971.000000
894231.000000
895323.000000
896355.000000
897400.000000
898393.000000
899313.000000
900282.000000
901286.000000
902259.000000
903202.000000
904080.000000
905006.000000
905979.000000
906931.000000
907863.000000
908921.000000
909958.000000
910914.000000
911850.000000
912830.000000
913854.000000
914777.000000
915681.000000
916634.000000
917637.000000
918588.000000
919524.000000
920533.000000
921544.000000
922461.000000
923367.000000
924305.000000
925259.000000
926164.000000
927038.000000
927930.000000
928826.000000
929680.000000
930532.000000
931419.000000
932308.000000
933154.000000
933977.000000
934814.000000
935700.000000
936607.000000
937481.000000
938346.000000
939261.000000
940177.000000
941042.000000
941908.000000
942833.000000
943810.000000
944719.000000
945642.000000
946561.000000
947505.000000
948364.000000
949325.000000
950323.000000
951255.000000
952477.000000
953593.000000
954574.000000
955444.000000
956325.000000
957310.000000
958290.000000
959295.000000
960420.000000
961781.000000
962979.000000
964199.000000
965371.000000
966304.000000
967225.000000
968215.000000
969153.000000
970103.000000
971181.000000
972252.000000
973296.000000
974250.000000
975208.000000
976227.000000
977223.000000
978131.000000
979006.000000
979926.000000
980885.000000
981759.000000
982609.000000
983507.000000
984496.000000
985554.000000
986479.000000
987393.000000
988536.000000
989526.000000
990445.000000
991336.000000
992272.000000
993239.000000
994179.000000
995153.000000
996282.000000
997226.000000
998118.000000
999002.000000
999900.000000
1000782.000000
1001649.000000
1002537.000000
1003448.000000
1004381.000000
1005287.000000
1006230.000000
1007232.000000
1008183.000000
1009089.000000
1009981.000000
1010971.000000
1011993.000000
1012948.000000
1013923.000000
1014941.000000
1015957.000000
1016909.000000
1017873.000000
1018847.000000
1019790.000000
1020680.000000
1021561.000000
1022501.000000
1023524.000000
1024479.000000
1025438.000000
1026494.000000
1027517.000000
1028457.000000
1029432.000000
1030408.000000
1031355.000000
1032250.000000
1033172.000000
1034114.000000
1035039.000000
1035940.000000
1036824.000000
1037781.000000
1038740.000000
1039673.000000
1040560.000000
1041477.000000
1042411.000000
1043350.000000
1044369.000000
1045404.000000
1046420.000000
1047379.000000
1048346.000000
1049305.000000
1050232.000000
1051115.000000
1052005.000000
1052886.000000
1053775.000000
1054694.000000
1055718.000000
1056788.000000
1057774.000000
1058782.000000
1059828.000000
1060822.000000
1061773.000000
1062667.000000
1063571.000000
1064042.000000
1065306.000000
1066104.000000
1066929.000000
1067902.000000
1068894.000000
1069879.000000
1070890.000000
1071952.000000
1072917.000000
1073919.000000
1074941.000000
1075996.000000
1076933.000000
1077887.000000
1078884.000000
1079857.000000
1080760.000000
1081675.000000
1082608.000000
1083517.000000
1084397.000000
1085301.000000
1086226.000000
1087116.000000
1087981.000000
1088879.000000
1089811.000000
1090773.000000
1091689.000000
1092580.000000
1093498.000000
1094465.000000
1095433.000000
1096315.000000
1097277.000000
1098283.000000
1099184.000000
1100090.000000
1101072.000000
1102077.000000
1102997.000000
1103923.000000
1104888.000000
1105834.000000
1106718.000000
1107594.000000
1108518.000000
1109487.000000
1110368.000000
1111249.000000
1112174.000000
1113145.000000
1114059.000000
1114943.000000
1115841.000000
1116716.000000
1117574.000000
1118455.000000
1119365.000000
1120405.000000
1121424.000000
1122402.000000
1123457.000000
1124557.000000
1125557.000000
1126610.000000
1127886.000000
1129048.000000
1130031.000000
1131058.000000
1132174.000000
1133194.000000
1134163.000000
1135152.000000
1136151.000000
1137096.000000
1138105.000000
1139303.000000
1140363.000000
1141313.000000
1142288.000000
1143289.000000
1144244.000000
1145138.000000
1146078.000000
1147084.000000
1148117.000000
1149079.000000
1149984.000000
1150862.000000
1151753.000000
1152630.000000
1153530.000000
1154485.000000
1155561.000000
1156530.000000
1157457.000000
1158440.000000
1159481.000000
1160431.000000
1161404.000000
1162462.000000
1163503.000000
1164436.000000
1165377.000000
1166373.000000
1167375.000000
1168291.000000
1169203.000000
1170196.000000
1171124.000000
1172017.000000
1172878.000000
1173803.000000
1174763.000000
1175686.000000
1176576.000000
1177463.000000
1178393.000000
1179331.000000
1180224.000000
1181111.000000
1182066.000000
1183081.000000
1184005.000000
1184944.000000
1185951.000000
1186921.000000
1187816.000000
1188694.000000
1189166.000000
1190465.000000
1191278.000000
1192074.000000
1192910.000000
1193758.000000
1194617.000000
1195478.000000
1196399.000000
1197323.000000
1198214.000000
1199091.000000
1200042.000000
1201019.000000
1201933.000000
1202811.000000
1203729.000000
1204657.000000
1205508.000000
1206364.000000
1207241.000000
1208153.000000
1209009.000000
1209869.000000
1210767.000000
1211639.000000
1212482.000000
1213326.000000
1214191.000000
1215117.000000
1215988.000000
1216879.000000
1217812.000000
1218717.000000
1219581.000000
1220418.000000
1221285.000000
1222162.000000
1223021.000000
1223877.000000
1224814.000000
1225832.000000
1226856.000000
1228002.000000
1229355.000000
1230502.000000
1231676.000000
1232818.000000
1233827.000000
1234788.000000
1235689.000000
1236578.000000
1237460.000000
1238379.000000
1239370.000000
1240354.000000
1241381.000000
1242518.000000
1243634.000000
1244605.000000
1245565.000000
1246588.000000
1247616.000000
1248571.000000
1249547.000000
1250510.000000
1251455.000000
1252361.000000
1253268.000000
1254216.000000
1255175.000000
1256082.000000
1256959.000000
1257836.000000
1258746.000000
1259657.000000
1260523.000000
1261396.000000
1262302.000000
1263220.000000
1264156.000000
1265164.000000
1266249.000000
1267235.000000
1268203.000000
1269288.000000
1270309.000000
1271229.000000
1272145.000000
1273138.000000
1274216.000000
1275222.000000
1276140.000000
1277060.000000
1278044.000000
1279017.000000
1279956.000000
1281002.000000
1282240.000000
1283402.000000
1284471.000000
1285520.000000
1286519.000000
1287425.000000
1288328.000000
1289250.000000
1290165.000000
1291070.000000
1292092.000000
1293129.000000
1294079.000000
1294983.000000
1295952.000000
1296915.000000
1297843.000000
1298764.000000
1299792.000000
1300857.000000
1301887.000000
1302844.000000
1303856.000000
1304883.000000
1305898.000000
1306826.000000
1307760.000000
1308719.000000
1309746.000000
1310711.000000
1311632.000000
1312588.000000
1313629.000000
1314611.000000
1315637.000000
1316778.000000
1317864.000000
1318842.000000
1319846.000000
1320928.000000
1321999.000000
1323001.000000
1323978.000000
1324948.000000
1325894.000000
1326823.000000
1327718.000000
1328684.000000
1329709.000000
1330724.000000
1331659.000000
1332711.000000
1333696.000000
1334582.000000
1335446.000000
1336385.000000
1337352.000000
1338264.000000
1339206.000000
1340255.000000
1341184.000000
1342121.000000
1343165.000000
1344268.000000
1345247.000000
1346189.000000
1347157.000000
1348156.000000
1349090.000000
1350029.000000
1351012.000000
1352040.000000
1353040.000000
1353924.000000
1354825.000000
1355799.000000
1356872.000000
1357841.000000
1358807.000000
1359862.000000
1360866.000000
1361783.000000
1362679.000000
1363683.000000
1364761.000000
1365755.000000
1366694.000000
1367755.000000
1368901.000000
1369929.000000
1370873.000000
1371876.000000
1372847.000000
1373773.000000
1374655.000000
1375583.000000
1376534.000000
1377430.000000
1378301.000000
1379200.000000
1380112.000000
1380968.000000
1381791.000000
1382647.000000
1383530.000000
1384455.000000
1385372.000000
1386269.000000
1387254.000000
1388314.000000
1389304.000000
1390191.000000
1391067.000000
1391552.000000
1392804.000000
1393588.000000
1394340.000000
1395120.000000
1396014.000000
1396988.000000
1397983.000000
1399325.000000
1400670.000000
1401783.000000
1402947.000000
1404039.000000
1404977.000000
1405999.000000
1407074.000000
1408129.000000
1409113.000000
1410130.000000
1411189.000000
1412208.000000
1413120.000000
1414071.000000
1414976.000000
1415840.000000
1416721.000000
1417630.000000
1418542.000000
1419428.000000
1420292.000000
1421170.000000
1422066.000000
1422945.000000
1423816.000000
1424688.000000
1425595.000000
1426484.000000
1427381.000000
1428385.000000
1429591.000000
1430641.000000
1431579.000000
1432647.000000
1433720.000000
1434698.000000
1435764.000000
1436794.000000
1437771.000000
1438760.000000
1439916.000000
1441047.000000
1442059.000000
1443010.000000
1443956.000000
1444856.000000
1445731.000000
1446652.000000
1447697.000000
1448809.000000
1449810.000000
1450865.000000
1451953.000000
1452927.000000
1453955.000000
1455013.000000
1456007.000000
1456917.000000
1457814.000000
1458748.000000
1459714.000000
1460606.000000
1461488.000000
1462410.000000
1463362.000000
1464309.000000
1465227.000000
1466099.000000
1466982.000000
1467896.000000
1468809.000000
1469743.000000
1470920.000000
1472167.000000
1473204.000000
1474220.000000
1475229.000000
1476260.000000
1477208.000000
1478245.000000
1479359.000000
1480414.000000
1481339.000000
1482290.000000
1483299.000000
1484326.000000
1485250.000000
1486148.000000
1487087.000000
1488060.000000
1488963.000000
1489846.000000
1490785.000000
1491743.000000
1492640.000000
1493515.000000
1494435.000000
1495357.000000
1496232.000000
1497100.000000
1497998.000000
1498926.000000
1499800.000000
1500681.000000
1501591.000000
1502535.000000
1503408.000000
1504245.000000
1505088.000000
1505969.000000
1506854.000000
1507741.000000
1508781.000000
1509856.000000
1510884.000000
1511862.000000
1512990.000000
1514094.000000
1515113.000000
1516188.000000
1517407.000000
1518592.000000
1519627.000000
1520633.000000
1521657.000000
1522701.000000
1523655.000000
1524605.000000
1525589.000000
1526510.000000
1527367.000000
1528272.000000
1529282.000000
1530313.000000
1531229.000000
1532131.000000
1533070.000000
1534013.000000
1534937.000000
1535900.000000
1536935.000000
1537897.000000
1538785.000000
1539631.000000
1540462.000000
1541311.000000
1542166.000000
1543070.000000
1544491.000000
1545851.000000
1546865.000000
1547795.000000
1548764.000000
1549691.000000
1550715.000000
1552095.000000
1553373.000000
1554528.000000
1555734.000000
1556933.000000
1558029.000000
1558955.000000
1559870.000000
1560851.000000
1561860.000000
1562901.000000
1563804.000000
1564663.000000
1565544.000000
1566524.000000
1567620.000000
1568628.000000
1569816.000000
1570946.000000
1571961.000000
1572871.000000
1573907.000000
1575004.000000
1575992.000000
1576913.000000
1577925.000000
1578966.000000
1579946.000000
1580856.000000
1581769.000000
1582706.000000
1583596.000000
1584447.000000
1585345.000000
1586344.000000
1587322.000000
1588227.000000
1589263.000000
1590325.000000
1591272.000000
1592153.000000
1593061.000000
1594007.000000
1594929.000000
1595817.000000
1596739.000000
1597672.000000
1598538.000000
1599389.000000
1600300.000000
1601255.000000
1602169.000000
1603123.000000
1604207.000000
1605284.000000
1606187.000000
1607082.000000
1607992.000000
1608925.000000
1609853.000000
1610870.000000
1612273.000000
1613582.000000
1614713.000000
1615845.000000
1616929.000000
1617922.000000
1618805.000000
1619727.000000
1620657.000000
1621539.000000
1622485.000000
1623457.000000
1624376.000000
1625251.000000
1626154.000000
1627120.000000
1628062.000000
1628972.000000
1629870.000000
1630785.000000
1631710.000000
1632570.000000
1633409.000000
1634297.000000
1635210.000000
1636099.000000
1636992.000000
1637969.000000
1638978.000000
1639896.000000
1640816.000000
1641824.000000
1642844.000000
1643780.000000
1644724.000000
1645725.000000
1646684.000000
1647590.000000
1648544.000000
1649516.000000
1650411.000000
1651297.000000
1652217.000000
1653161.000000
1654069.000000
1654943.000000
1655866.000000
1656790.000000
1657654.000000
1658499.000000
1659384.000000
1660322.000000
1661211.000000
1662109.000000
1663139.000000
1664169.000000
1665070.000000
1665973.000000
1666922.000000
1667897.000000
1668795.000000
1669723.000000
1670713.000000
1671756.000000
1672687.000000
1673549.000000
1674382.000000
1675197.000000
1676028.000000
1676880.000000
1677805.000000
1678789.000000
1679746.000000
1680751.000000
1681751.000000
1682708.000000
1683615.000000
1684522.000000
1685348.000000
1686135.000000
1686971.000000
1687817.000000
1688688.000000
1689575.000000
1690459.000000
1691340.000000
1692197.000000
1693054.000000
1693895.000000
1694725.000000
1695557.000000
1696408.000000
1697250.000000
1698094.000000
1698951.000000
1699823.000000
1700684.000000
1701522.000000
1702362.000000
1703189.000000
1704017.000000
1704855.000000
1705710.000000
1706600.000000
1707499.000000
1708390.000000
1709265.000000
1710133.000000
1710990.000000
1711875.000000
1712738.000000
1713612.000000
1714505.000000
1715393.000000
1716276.000000
1717169.000000
1718058.000000
1718934.000000
1719807.000000
1720694.000000
1721605.000000
1722504.000000
1723395.000000
1724314.000000
1725255.000000
1726155.000000
1727049.000000
1727907.000000
1728745.000000
1729566.000000
1730384.000000
1731210.000000
1732037.000000
1732872.000000
1733713.000000
1734499.000000
1735248.000000
1735987.000000
1736770.000000
1737573.000000
1738451.000000
1739357.000000
1740253.000000
1741112.000000
1742004.000000
1742900.000000
1743787.000000
1744689.000000
1745615.000000
1746539.000000
1747456.000000
1748437.000000
1749375.000000
1750296.000000
1751201.000000
1752114.000000
1753009.000000
1753896.000000
1754802.000000
1755741.000000
1756665.000000
1757582.000000
1758523.000000
1759483.000000
1760416.000000
1761358.000000
1762344.000000
1763261.000000
1764167.000000
1765103.000000
1766038.000000
1766956.000000
1767861.000000
1768806.000000
1769706.000000
1770544.000000
1771350.000000
1772127.000000
1772927.000000
1773761.000000
1774612.000000
1775494.000000
1776382.000000
1777273.000000
1778143.000000
1779027.000000
1779916.000000
1780788.000000
1781679.000000
1782581.000000
1783497.000000
1784376.000000
1785247.000000
1786129.000000
1786998.000000
1787856.000000
1788715.000000
1789599.000000
1790508.000000
1791398.000000
1792279.000000
1793170.000000
1794046.000000
1794916.000000
1795803.000000
1796710.000000
1797592.000000
1798474.000000
1799379.000000
1800297.000000
1801219.000000
1802117.000000
