ECG (ms)
50.000000
830.000000
1628.000000
2417.000000
3184.000000
3987.000000
4853.000000
5695.000000
6473.000000
7286.000000
8123.000000
8960.000000
9761.000000
10571.000000
11410.000000
12235.000000
13006.000000
13807.000000
14690.000000
15609.000000
16481.000000
17331.000000
18209.000000
19072.000000
19860.000000
20661.000000
21484.000000
22344.000000
23226.000000
24024.000000
24811.000000
25650.000000
26550.000000
27384.000000
28183.000000
29003.000000
29870.000000
30678.000000
31444.000000
32255.000000
33143.000000
34014.000000
34819.000000
35604.000000
36408.000000
37239.000000
38083.000000
38881.000000
39693.000000
40595.000000
41561.000000
42436.000000
43291.000000
44177.000000
45074.000000
45905.000000
46731.000000
47604.000000
48483.000000
49287.000000
50094.000000
50941.000000
51804.000000
52611.000000
53399.000000
54237.000000
55126.000000
55926.000000
56711.000000
57539.000000
58420.000000
59304.000000
60121.000000
60941.000000
61772.000000
62611.000000
63421.000000
64238.000000
65116.000000
66089.000000
67049.000000
67901.000000
68703.000000
69527.000000
70438.000000
71261.000000
72049.000000
72877.000000
73775.000000
74634.000000
75453.000000
76303.000000
77198.000000
78020.000000
78808.000000
79662.000000
80567.000000
81454.000000
82284.000000
83126.000000
83999.000000
84897.000000
85713.000000
86540.000000
87424.000000
88304.000000
89156.000000
90048.000000
90974.000000
91841.000000
92649.000000
93468.000000
94328.000000
95177.000000
95975.000000
96774.000000
97601.000000
98439.000000
99242.000000
100006.000000
100823.000000
101654.000000
102508.000000
103319.000000
104111.000000
104894.000000
105692.000000
106472.000000
107246.000000
108044.000000
108893.000000
109712.000000
110507.000000
111335.000000
112189.000000
113020.000000
113802.000000
114614.000000
115483.000000
116333.000000
117148.000000
117976.000000
118774.000000
119601.000000
120440.000000
121319.000000
122160.000000
122991.000000
123841.000000
124694.000000
125524.000000
126328.000000
127129.000000
127913.000000
128685.000000
129502.000000
130378.000000
131237.000000
132065.000000
132893.000000
133731.000000
134565.000000
135367.000000
136214.000000
137135.000000
138010.000000
138857.000000
139720.000000
140557.000000
141328.000000
142102.000000
142900.000000
143732.000000
144519.000000
145311.000000
146165.000000
147072.000000
147921.000000
148745.000000
149587.000000
150435.000000
151235.000000
152007.000000
152798.000000
153659.000000
154522.000000
155314.000000
156129.000000
157029.000000
157894.000000
158679.000000
159470.000000
160311.000000
161154.000000
161967.000000
162760.000000
163587.000000
164450.000000
165301.000000
166106.000000
166940.000000
167786.000000
168647.000000
169440.000000
170219.000000
171021.000000
171859.000000
172656.000000
173486.000000
174381.000000
175273.000000
176106.000000
176956.000000
177824.000000
178609.000000
179361.000000
180147.000000
181020.000000
181878.000000
182671.000000
183467.000000
184306.000000
185176.000000
185987.000000
186798.000000
187637.000000
188541.000000
189369.000000
190172.000000
191014.000000
191878.000000
192751.000000
193548.000000
194307.000000
195102.000000
195934.000000
196812.000000
197636.000000
198460.000000
199285.000000
200091.000000
200867.000000
201664.000000
202478.000000
203262.000000
204008.000000
204769.000000
205573.000000
206389.000000
207153.000000
207907.000000
208710.000000
209533.000000
210341.000000
211107.000000
211888.000000
212749.000000
213592.000000
214359.000000
215108.000000
215901.000000
216714.000000
217523.000000
218327.000000
219172.000000
220028.000000
220868.000000
221667.000000
222439.000000
223255.000000
224127.000000
224944.000000
225702.000000
226445.000000
227204.000000
228003.000000
228789.000000
229565.000000
230391.000000
231300.000000
232165.000000
232960.000000
233762.000000
234556.000000
235337.000000
236103.000000
236907.000000
237783.000000
238637.000000
239424.000000
240221.000000
241038.000000
241815.000000
242561.000000
243342.000000
244168.000000
244998.000000
245776.000000
246555.000000
247403.000000
248249.000000
249054.000000
249796.000000
250523.000000
251220.000000
251943.000000
252805.000000
253615.000000
254398.000000
255215.000000
256034.000000
256790.000000
257520.000000
258272.000000
259055.000000
259877.000000
260665.000000
261495.000000
262389.000000
263256.000000
264061.000000
264858.000000
265690.000000
266497.000000
267255.000000
268022.000000
268827.000000
269652.000000
270421.000000
271192.000000
272008.000000
272844.000000
273703.000000
274502.000000
275273.000000
276093.000000
276958.000000
277832.000000
278688.000000
279465.000000
280219.000000
281014.000000
281869.000000
282720.000000
283519.000000
284353.000000
285283.000000
286200.000000
287017.000000
287820.000000
288638.000000
289501.000000
290326.000000
291111.000000
291943.000000
292845.000000
293717.000000
294526.000000
295345.000000
296161.000000
296999.000000
297789.000000
298569.000000
299399.000000
300280.000000
301114.000000
301924.000000
302753.000000
303613.000000
304447.000000
305252.000000
306071.000000
306911.000000
307719.000000
308505.000000
309303.000000
310129.000000
310904.000000
311688.000000
312511.000000
313351.000000
314131.000000
314914.000000
315754.000000
316610.000000
317465.000000
318247.000000
319012.000000
319796.000000
320642.000000
321545.000000
322416.000000
323209.000000
324011.000000
324846.000000
325729.000000
326582.000000
327380.000000
328197.000000
329055.000000
329907.000000
330690.000000
331476.000000
332303.000000
333118.000000
333902.000000
334701.000000
335545.000000
336374.000000
337155.000000
337955.000000
338765.000000
339593.000000
340387.000000
341150.000000
341962.000000
342816.000000
343689.000000
344468.000000
345218.000000
346002.000000
346856.000000
347734.000000
348531.000000
349327.000000
350187.000000
351067.000000
351871.000000
352636.000000
353418.000000
354243.000000
355088.000000
355888.000000
356677.000000
357502.000000
358340.000000
359117.000000
359887.000000
360685.000000
361540.000000
362389.000000
363194.000000
364004.000000
364858.000000
365777.000000
366644.000000
367442.000000
368246.000000
369063.000000
369885.000000
370670.000000
371463.000000
372304.000000
373153.000000
373945.000000
374712.000000
375491.000000
376263.000000
377042.000000
377782.000000
378509.000000
379277.000000
380083.000000
380921.000000
381694.000000
382462.000000
383253.000000
384034.000000
384789.000000
385556.000000
386357.000000
387148.000000
387903.000000
388666.000000
389443.000000
390244.000000
390994.000000
391739.000000
392487.000000
393246.000000
393988.000000
394708.000000
395447.000000
396198.000000
396966.000000
397704.000000
398424.000000
399161.000000
399908.000000
400652.000000
401376.000000
402113.000000
402856.000000
403606.000000
404319.000000
405005.000000
405697.000000
406402.000000
407117.000000
407845.000000
408574.000000
409296.000000
410048.000000
410869.000000
411678.000000
412425.000000
413152.000000
413885.000000
414623.000000
415362.000000
416084.000000
416814.000000
417575.000000
418340.000000
419102.000000
419867.000000
420672.000000
421501.000000
422272.000000
422987.000000
423703.000000
424421.000000
425154.000000
425887.000000
426628.000000
427414.000000
428273.000000
429125.000000
429942.000000
430691.000000
431425.000000
432187.000000
432971.000000
433760.000000
434561.000000
435311.000000
436054.000000
436808.000000
437585.000000
438386.000000
439133.000000
439845.000000
440569.000000
441317.000000
442070.000000
442819.000000
443607.000000
444495.000000
445398.000000
446229.000000
446996.000000
447795.000000
448607.000000
449421.000000
450186.000000
450925.000000
451699.000000
452506.000000
453328.000000
454107.000000
454879.000000
455700.000000
456564.000000
457390.000000
458154.000000
458900.000000
459636.000000
460371.000000
461090.000000
461834.000000
462664.000000
463468.000000
464195.000000
464963.000000
465787.000000
466663.000000
467528.000000
468414.000000
469227.000000
470005.000000
470796.000000
471627.000000
472492.000000
473318.000000
474111.000000
474956.000000
475872.000000
476790.000000
477594.000000
478338.000000
479083.000000
479873.000000
480733.000000
481586.000000
482424.000000
483344.000000
484278.000000
485124.000000
485915.000000
486758.000000
487621.000000
488500.000000
489308.000000
490093.000000
490933.000000
491791.000000
492590.000000
493397.000000
494244.000000
495130.000000
495979.000000
496785.000000
497588.000000
498411.000000
499230.000000
500012.000000
500852.000000
501754.000000
502655.000000
503505.000000
504284.000000
505061.000000
505860.000000
506705.000000
507581.000000
508386.000000
509162.000000
509993.000000
510862.000000
511719.000000
512494.000000
513249.000000
514042.000000
514883.000000
515730.000000
516537.000000
517290.000000
518048.000000
518839.000000
519673.000000
520493.000000
521292.000000
522116.000000
522972.000000
523786.000000
524596.000000
525426.000000
526270.000000
527079.000000
527866.000000
528659.000000
529471.000000
530250.000000
531041.000000
531876.000000
532754.000000
533574.000000
534373.000000
535171.000000
535979.000000
536757.000000
537521.000000
538316.000000
539176.000000
540013.000000
540797.000000
541587.000000
542391.000000
543171.000000
543931.000000
544732.000000
545575.000000
546483.000000
547378.000000
548205.000000
548975.000000
549763.000000
550578.000000
551412.000000
552219.000000
552984.000000
553745.000000
554542.000000
555368.000000
556141.000000
556883.000000
557661.000000
558500.000000
559342.000000
560133.000000
560914.000000
561723.000000
562524.000000
563283.000000
564009.000000
564743.000000
565520.000000
566359.000000
567149.000000
567913.000000
568707.000000
569517.000000
570343.000000
571120.000000
571879.000000
572642.000000
573415.000000
574162.000000
574914.000000
575722.000000
576577.000000
577398.000000
578158.000000
578926.000000
579722.000000
580532.000000
581302.000000
582051.000000
582825.000000
583604.000000
584374.000000
585121.000000
585891.000000
586685.000000
587493.000000
588247.000000
588992.000000
589749.000000
590525.000000
591279.000000
592001.000000
592733.000000
593498.000000
594306.000000
595110.000000
595865.000000
596647.000000
597443.000000
598243.000000
598991.000000
599729.000000
600463.000000
601205.000000
601933.000000
602668.000000
603483.000000
604369.000000
605218.000000
606008.000000
606804.000000
607621.000000
608420.000000
609175.000000
609938.000000
610731.000000
611581.000000
612424.000000
613206.000000
613985.000000
614811.000000
615656.000000
616457.000000
617264.000000
618113.000000
618906.000000
619680.000000
620407.000000
621116.000000
621841.000000
622632.000000
623493.000000
624292.000000
625050.000000
625826.000000
626629.000000
627439.000000
628203.000000
628952.000000
629712.000000
630523.000000
631315.000000
632088.000000
632879.000000
633686.000000
634488.000000
635251.000000
635997.000000
636761.000000
637558.000000
638336.000000
639105.000000
639911.000000
640777.000000
641659.000000
642498.000000
643284.000000
644082.000000
644699.000000
645707.000000
646598.000000
647398.000000
648190.000000
649041.000000
649955.000000
650786.000000
651555.000000
652327.000000
653108.000000
653881.000000
654633.000000
655418.000000
656288.000000
657223.000000
658119.000000
658930.000000
659725.000000
660545.000000
661415.000000
662272.000000
663027.000000
663747.000000
664468.000000
665193.000000
665962.000000
666721.000000
667460.000000
668209.000000
668946.000000
669851.000000
670796.000000
671635.000000
672420.000000
673236.000000
674117.000000
675017.000000
675824.000000
676577.000000
677353.000000
678177.000000
679057.000000
679913.000000
680722.000000
681573.000000
682477.000000
683368.000000
684176.000000
684965.000000
685783.000000
686642.000000
687517.000000
688341.000000
689164.000000
690069.000000
690999.000000
691896.000000
692693.000000
693474.000000
694272.000000
695112.000000
695967.000000
696802.000000
697701.000000
698637.000000
699537.000000
700363.000000
701197.000000
702062.000000
702942.000000
703772.000000
704536.000000
705303.000000
706103.000000
706980.000000
707932.000000
708819.000000
709639.000000
710520.000000
711446.000000
712374.000000
713203.000000
713974.000000
714773.000000
715619.000000
716500.000000
717325.000000
718113.000000
718927.000000
719820.000000
720725.000000
721579.000000
722429.000000
723324.000000
724250.000000
725063.000000
725840.000000
726625.000000
727464.000000
728300.000000
729121.000000
729975.000000
730861.000000
731710.000000
732507.000000
733297.000000
734107.000000
734926.000000
735712.000000
736460.000000
737249.000000
738142.000000
739053.000000
739896.000000
740727.000000
741598.000000
742479.000000
743253.000000
743987.000000
744716.000000
745468.000000
746267.000000
747054.000000
747845.000000
748759.000000
749734.000000
750601.000000
751392.000000
752203.000000
753020.000000
753800.000000
754549.000000
755315.000000
756103.000000
756893.000000
757646.000000
758379.000000
759133.000000
759914.000000
760694.000000
761432.000000
762184.000000
762936.000000
763678.000000
764390.000000
765092.000000
765796.000000
766510.000000
767221.000000
767908.000000
768606.000000
769324.000000
770067.000000
770818.000000
771538.000000
772243.000000
772950.000000
773660.000000
774380.000000
775088.000000
775787.000000
776506.000000
777245.000000
778019.000000
778766.000000
779509.000000
780258.000000
781015.000000
781749.000000
782478.000000
783206.000000
783950.000000
784698.000000
785431.000000
786138.000000
786837.000000
787555.000000
788301.000000
789085.000000
789819.000000
790538.000000
791279.000000
792046.000000
792830.000000
793608.000000
794347.000000
795090.000000
795844.000000
796618.000000
797376.000000
798138.000000
798936.000000
799780.000000
800631.000000
801411.000000
802187.000000
802997.000000
803820.000000
804656.000000
805436.000000
806203.000000
807036.000000
807907.000000
808745.000000
809534.000000
810379.000000
811290.000000
812209.000000
813037.000000
813778.000000
814516.000000
815299.000000
816251.000000
817203.000000
818045.000000
818899.000000
819816.000000
820766.000000
821606.000000
822411.000000
823229.000000
824073.000000
824882.000000
825698.000000
826594.000000
827505.000000
828337.000000
829124.000000
829863.000000
830582.000000
831263.000000
831954.000000
832732.000000
833601.000000
834482.000000
835308.000000
836069.000000
836844.000000
837632.000000
838464.000000
839260.000000
840019.000000
840820.000000
841685.000000
842570.000000
843391.000000
844156.000000
844945.000000
845799.000000
846673.000000
847486.000000
848265.000000
849099.000000
849999.000000
850868.000000
851760.000000
852646.000000
853511.000000
854309.000000
855084.000000
855937.000000
856848.000000
857763.000000
858613.000000
859422.000000
860249.000000
861112.000000
861970.000000
862759.000000
863526.000000
864352.000000
865202.000000
866041.000000
866827.000000
867652.000000
868535.000000
869442.000000
870260.000000
871064.000000
871858.000000
872637.000000
873410.000000
874288.000000
875193.000000
876038.000000
876880.000000
877783.000000
878639.000000
879424.000000
880221.000000
881040.000000
881859.000000
882653.000000
883471.000000
884358.000000
885238.000000
886037.000000
886872.000000
887750.000000
888587.000000
889360.000000
890145.000000
890953.000000
891746.000000
892523.000000
893340.000000
894233.000000
895099.000000
895895.000000
896718.000000
897554.000000
898352.000000
899111.000000
899906.000000
900761.000000
901652.000000
902489.000000
903340.000000
904209.000000
905062.000000
905853.000000
906645.000000
907479.000000
908325.000000
909109.000000
909896.000000
910721.000000
911610.000000
912457.000000
913251.000000
914085.000000
914965.000000
915883.000000
916739.000000
917521.000000
918323.000000
919159.000000
919989.000000
920791.000000
921625.000000
922552.000000
923491.000000
924334.000000
925151.000000
925992.000000
926845.000000
927643.000000
928448.000000
929284.000000
930146.000000
930955.000000
931772.000000
932656.000000
933558.000000
934378.000000
935218.000000
936093.000000
936976.000000
937795.000000
938589.000000
939416.000000
940289.000000
941141.000000
941932.000000
942776.000000
943664.000000
944557.000000
945361.000000
946160.000000
947002.000000
947893.000000
948758.000000
949558.000000
950395.000000
951305.000000
952214.000000
953057.000000
953899.000000
954750.000000
955633.000000
956483.000000
957293.000000
958134.000000
959036.000000
959941.000000
960782.000000
961628.000000
962510.000000
963440.000000
964315.000000
965104.000000
965906.000000
966762.000000
967684.000000
968574.000000
969463.000000
970414.000000
971334.000000
972167.000000
972990.000000
973847.000000
974732.000000
975560.000000
976358.000000
977194.000000
978089.000000
978963.000000
979755.000000
980562.000000
981424.000000
982295.000000
983108.000000
983934.000000
984792.000000
985665.000000
986468.000000
987245.000000
988062.000000
988929.000000
989743.000000
990528.000000
991358.000000
992235.000000
993106.000000
993910.000000
994723.000000
995591.000000
996474.000000
997281.000000
998100.000000
998982.000000
999887.000000
1000766.000000
1001562.000000
1002350.000000
1003167.000000
1004042.000000
1004889.000000
1005697.000000
1006582.000000
1007554.000000
1008467.000000
1009293.000000
1010143.000000
1011008.000000
1011861.000000
1012666.000000
1013494.000000
1014388.000000
1015283.000000
1016108.000000
1016926.000000
1017751.000000
1018591.000000
1019375.000000
1020173.000000
1021018.000000
1021894.000000
1022694.000000
1023486.000000
1024310.000000
1025128.000000
1025928.000000
1026746.000000
1027642.000000
1028487.000000
1029252.000000
1030011.000000
1030825.000000
1031713.000000
1032596.000000
1033396.000000
1034220.000000
1035087.000000
1035996.000000
1036815.000000
1037619.000000
1038456.000000
1039341.000000
1040166.000000
1040950.000000
1041771.000000
1042652.000000
1043505.000000
1044321.000000
1045160.000000
1046061.000000
1046890.000000
1047714.000000
1048574.000000
1049485.000000
1050343.000000
1051171.000000
1052016.000000
1052880.000000
1053692.000000
1054487.000000
1055346.000000
1056223.000000
1057049.000000
1057832.000000
1058639.000000
1059489.000000
1060298.000000
1061065.000000
1061872.000000
1062770.000000
1063674.000000
1064524.000000
1065387.000000
1066302.000000
1067176.000000
1067978.000000
1068770.000000
1069619.000000
1070550.000000
1071425.000000
1072241.000000
1073110.000000
1074055.000000
1074994.000000
1075853.000000
1076728.000000
1077615.000000
1078464.000000
1079276.000000
1080144.000000
1081019.000000
1081916.000000
1082736.000000
1083572.000000
1084432.000000
1085297.000000
1086110.000000
1086948.000000
1087847.000000
1088752.000000
1089585.000000
1090409.000000
1091267.000000
1092133.000000
1092920.000000
1093709.000000
1094552.000000
1095450.000000
1096302.000000
1097160.000000
1098075.000000
1098985.000000
1099814.000000
1100643.000000
1101492.000000
1102351.000000
1103148.000000
1103946.000000
1104839.000000
1105828.000000
1106718.000000
1107644.000000
1108557.000000
1109417.000000
1110227.000000
1111061.000000
1111935.000000
1112769.000000
1113577.000000
1114413.000000
1115291.000000
1116124.000000
1116869.000000
1117602.000000
1118360.000000
1119195.000000
1120032.000000
1120938.000000
1121941.000000
1122896.000000
1123760.000000
1124658.000000
1125544.000000
1126359.000000
1127149.000000
1127961.000000
1128888.000000
1129775.000000
1130572.000000
1131385.000000
1132354.000000
1133255.000000
1134053.000000
1134853.000000
1135689.000000
1136597.000000
1137443.000000
1138230.000000
1139038.000000
1139894.000000
1140699.000000
1141467.000000
1142281.000000
1143162.000000
1144010.000000
1144806.000000
1145657.000000
1146552.000000
1147375.000000
1148166.000000
1148975.000000
1149818.000000
1150690.000000
1151563.000000
1152441.000000
1153373.000000
1154290.000000
1155118.000000
1155958.000000
1156805.000000
1157631.000000
1158410.000000
1159197.000000
1160050.000000
1160931.000000
1161723.000000
1162512.000000
1163336.000000
1164175.000000
1164967.000000
1165776.000000
1166623.000000
1167473.000000
1168273.000000
1169070.000000
1169968.000000
1170857.000000
1171665.000000
1172463.000000
1173306.000000
1174180.000000
1175023.000000
1175913.000000
1176821.000000
1177728.000000
1178562.000000
1179420.000000
1180330.000000
1181238.000000
1182106.000000
1183045.000000
1183969.000000
1184857.000000
1185679.000000
1186458.000000
1187197.000000
1187890.000000
1188589.000000
1189285.000000
1189964.000000
1190737.000000
1191571.000000
1192400.000000
1193200.000000
1193965.000000
1194711.000000
