ECG (ms)
709.000000
1507.000000
2364.000000
3286.000000
4183.000000
5061.000000
5957.000000
6836.000000
7715.000000
8620.000000
9546.000000
10482.000000
11412.000000
12353.000000
13318.000000
14261.000000
15205.000000
16147.000000
17069.000000
17968.000000
18843.000000
19689.000000
20576.000000
21467.000000
22346.000000
23244.000000
24206.000000
25164.000000
26143.000000
27138.000000
28120.000000
29077.000000
29997.000000
30930.000000
31893.000000
32873.000000
33871.000000
34902.000000
35911.000000
36924.000000
37909.000000
38929.000000
39912.000000
40888.000000
41865.000000
42791.000000
43689.000000
44561.000000
45388.000000
46270.000000
47212.000000
48113.000000
49004.000000
49914.000000
50832.000000
51738.000000
52658.000000
53590.000000
54542.000000
55454.000000
56379.000000
57308.000000
58228.000000
59129.000000
60062.000000
60996.000000
61902.000000
62827.000000
63793.000000
64739.000000
65668.000000
66597.000000
67517.000000
68422.000000
69322.000000
70234.000000
71150.000000
72089.000000
73046.000000
73987.000000
74935.000000
75893.000000
76873.000000
77828.000000
78781.000000
79723.000000
80701.000000
81657.000000
82604.000000
83544.000000
84457.000000
85372.000000
86290.000000
87175.000000
88073.000000
89007.000000
89959.000000
90914.000000
91893.000000
92828.000000
93780.000000
94728.000000
95657.000000
96601.000000
97567.000000
98527.000000
99463.000000
100399.000000
101310.000000
102244.000000
103188.000000
104107.000000
105039.000000
105966.000000
106865.000000
107772.000000
108673.000000
109593.000000
110536.000000
111446.000000
112382.000000
113334.000000
114278.000000
115232.000000
116172.000000
117097.000000
117995.000000
118865.000000
119773.000000
120732.000000
121678.000000
122668.000000
123649.000000
124591.000000
125557.000000
126500.000000
127437.000000
128352.000000
129234.000000
130124.000000
131020.000000
131907.000000
132819.000000
133715.000000
134615.000000
135543.000000
136444.000000
137354.000000
138270.000000
139170.000000
140063.000000
140955.000000
141822.000000
142700.000000
143582.000000
144459.000000
145351.000000
146248.000000
147155.000000
148056.000000
148979.000000
149891.000000
150795.000000
151707.000000
152622.000000
153521.000000
154414.000000
155303.000000
156171.000000
157024.000000
157872.000000
158732.000000
159634.000000
160510.000000
161382.000000
162252.000000
163113.000000
163985.000000
164861.000000
165744.000000
166662.000000
167594.000000
168570.000000
169517.000000
170460.000000
171384.000000
172321.000000
173252.000000
174160.000000
175063.000000
175993.000000
176937.000000
177873.000000
178811.000000
179724.000000
180630.000000
181560.000000
182475.000000
183439.000000
184419.000000
185384.000000
186370.000000
187328.000000
188287.000000
189227.000000
190130.000000
191040.000000
191933.000000
192832.000000
193777.000000
194729.000000
195703.000000
196666.000000
197603.000000
198545.000000
199470.000000
200383.000000
201299.000000
202204.000000
203105.000000
204015.000000
204947.000000
205921.000000
206860.000000
207800.000000
208757.000000
209686.000000
210613.000000
211529.000000
212437.000000
213364.000000
214293.000000
215232.000000
216162.000000
217090.000000
218044.000000
218958.000000
219864.000000
220773.000000
221675.000000
222594.000000
223537.000000
224454.000000
225391.000000
226344.000000
227260.000000
228175.000000
229060.000000
229932.000000
230811.000000
231683.000000
232580.000000
233496.000000
234420.000000
235360.000000
236296.000000
237213.000000
238119.000000
239013.000000
239909.000000
240804.000000
241723.000000
242637.000000
243539.000000
244456.000000
245377.000000
246283.000000
247221.000000
248142.000000
249049.000000
249967.000000
250888.000000
251803.000000
252729.000000
253689.000000
254638.000000
255586.000000
256495.000000
257400.000000
258309.000000
259194.000000
260087.000000
261010.000000
261921.000000
262837.000000
263743.000000
264632.000000
265532.000000
266418.000000
267292.000000
268176.000000
269059.000000
269944.000000
270839.000000
271719.000000
272605.000000
273489.000000
274369.000000
275255.000000
276150.000000
277029.000000
277919.000000
278824.000000
279718.000000
280604.000000
281483.000000
282351.000000
283224.000000
284097.000000
284962.000000
285827.000000
286710.000000
287610.000000
288508.000000
289428.000000
290325.000000
291233.000000
292146.000000
293036.000000
293937.000000
294835.000000
295734.000000
296622.000000
297545.000000
298385.000000
299216.000000
300046.000000
300901.000000
301735.000000
302619.000000
303475.000000
304317.000000
305171.000000
306030.000000
306887.000000
307748.000000
308639.000000
309560.000000
310493.000000
311430.000000
312388.000000
313309.000000
314227.000000
315124.000000
316006.000000
316901.000000
317813.000000
318731.000000
319704.000000
320657.000000
321607.000000
322562.000000
323500.000000
324430.000000
325354.000000
326287.000000
327239.000000
328185.000000
329127.000000
330099.000000
331065.000000
332018.000000
332949.000000
333869.000000
334787.000000
335710.000000
336633.000000
337586.000000
338525.000000
339456.000000
340387.000000
341293.000000
342209.000000
343137.000000
344055.000000
344986.000000
345899.000000
346820.000000
347733.000000
348630.000000
349539.000000
350463.000000
351388.000000
352338.000000
353291.000000
354224.000000
355150.000000
356062.000000
356973.000000
357904.000000
358818.000000
359748.000000
360680.000000
361586.000000
362506.000000
363402.000000
364286.000000
365181.000000
366068.000000
366970.000000
367886.000000
368784.000000
369695.000000
370607.000000
371500.000000
372392.000000
373275.000000
374152.000000
375038.000000
375942.000000
376857.000000
377822.000000
378782.000000
379738.000000
380718.000000
381658.000000
382596.000000
383529.000000
384446.000000
385379.000000
386318.000000
387240.000000
388168.000000
389096.000000
390002.000000
390901.000000
391804.000000
392709.000000
393612.000000
394508.000000
395389.000000
396277.000000
397176.000000
398074.000000
398991.000000
399948.000000
400898.000000
401835.000000
402780.000000
403714.000000
404634.000000
405548.000000
406447.000000
407354.000000
408261.000000
409164.000000
410092.000000
411022.000000
411961.000000
412903.000000
413834.000000
414767.000000
415705.000000
416608.000000
417530.000000
418462.000000
419382.000000
420340.000000
421284.000000
422200.000000
423106.000000
423991.000000
424888.000000
425808.000000
426724.000000
427645.000000
428582.000000
429479.000000
430357.000000
431287.000000
432151.000000
432999.000000
433859.000000
434726.000000
435614.000000
436542.000000
437470.000000
438437.000000
439402.000000
440364.000000
441347.000000
442309.000000
443268.000000
444215.000000
445111.000000
445984.000000
446865.000000
447781.000000
448749.000000
449734.000000
450710.000000
451706.000000
452694.000000
453653.000000
454617.000000
455549.000000
456471.000000
457386.000000
458276.000000
459181.000000
460092.000000
460984.000000
461901.000000
462837.000000
463763.000000
464693.000000
465641.000000
466592.000000
467512.000000
468431.000000
469343.000000
470247.000000
471168.000000
472080.000000
472989.000000
473904.000000
474836.000000
475753.000000
476674.000000
477596.000000
478515.000000
479428.000000
480345.000000
481276.000000
482205.000000
483125.000000
484036.000000
484956.000000
485866.000000
486769.000000
487687.000000
488593.000000
489501.000000
490433.000000
491346.000000
492251.000000
493182.000000
494116.000000
495024.000000
495933.000000
496834.000000
497738.000000
498664.000000
499586.000000
500541.000000
501515.000000
502454.000000
503395.000000
504306.000000
505200.000000
506099.000000
506994.000000
507889.000000
508778.000000
509687.000000
510576.000000
511457.000000
512335.000000
513196.000000
514054.000000
514912.000000
515756.000000
516607.000000
517461.000000
518315.000000
519157.000000
520011.000000
520840.000000
521647.000000
522517.000000
523369.000000
524232.000000
525109.000000
525974.000000
526829.000000
527693.000000
528550.000000
529420.000000
530308.000000
531226.000000
532154.000000
533120.000000
534064.000000
535000.000000
535944.000000
536882.000000
537817.000000
538750.000000
539680.000000
540598.000000
541482.000000
542365.000000
543263.000000
544192.000000
545140.000000
546145.000000
547124.000000
548076.000000
549036.000000
549979.000000
550905.000000
551816.000000
552714.000000
553602.000000
554495.000000
555416.000000
556337.000000
557299.000000
558258.000000
559217.000000
560162.000000
561069.000000
561958.000000
562844.000000
563716.000000
564591.000000
565484.000000
566382.000000
567284.000000
568196.000000
569095.000000
569999.000000
570908.000000
571806.000000
572721.000000
573663.000000
574588.000000
575525.000000
576461.000000
577382.000000
578307.000000
579247.000000
580156.000000
581065.000000
581966.000000
582853.000000
583752.000000
584628.000000
585508.000000
586381.000000
587257.000000
588139.000000
589036.000000
589928.000000
590811.000000
591707.000000
592596.000000
593465.000000
594331.000000
595194.000000
596056.000000
596922.000000
597787.000000
598677.000000
599562.000000
600434.000000
601308.000000
602185.000000
603061.000000
603952.000000
604846.000000
605746.000000
606662.000000
607571.000000
608477.000000
609378.000000
610259.000000
611136.000000
612007.000000
612879.000000
613778.000000
614697.000000
615599.000000
616513.000000
617448.000000
618358.000000
619265.000000
620142.000000
621004.000000
621852.000000
622734.000000
623560.000000
624369.000000
625181.000000
626017.000000
626845.000000
627707.000000
628556.000000
629414.000000
630279.000000
631133.000000
631980.000000
632826.000000
633669.000000
634535.000000
635426.000000
636316.000000
637208.000000
638107.000000
639020.000000
639923.000000
640842.000000
641769.000000
642687.000000
643636.000000
644603.000000
645534.000000
646475.000000
647407.000000
648315.000000
649240.000000
650147.000000
651057.000000
651978.000000
652884.000000
653811.000000
654760.000000
655705.000000
656617.000000
657538.000000
658426.000000
659298.000000
660191.000000
661097.000000
662017.000000
662953.000000
663865.000000
664782.000000
665728.000000
666666.000000
667588.000000
668515.000000
669410.000000
670292.000000
671183.000000
672098.000000
673012.000000
673938.000000
674873.000000
675790.000000
676711.000000
677612.000000
678510.000000
679431.000000
680359.000000
681303.000000
682275.000000
683223.000000
684168.000000
685114.000000
686025.000000
686927.000000
687826.000000
688704.000000
689591.000000
690464.000000
691335.000000
692220.000000
693099.000000
693996.000000
694890.000000
695760.000000
696624.000000
697500.000000
698353.000000
699219.000000
700101.000000
700993.000000
701900.000000
702823.000000
703715.000000
704606.000000
705490.000000
706365.000000
707249.000000
708150.000000
709041.000000
709943.000000
710855.000000
711759.000000
712670.000000
713572.000000
714466.000000
715362.000000
716260.000000
717158.000000
718080.000000
718978.000000
719875.000000
720777.000000
721650.000000
722559.000000
723403.000000
724223.000000
725061.000000
725884.000000
726678.000000
727473.000000
728268.000000
729065.000000
729893.000000
730719.000000
731534.000000
732369.000000
733200.000000
734022.000000
734854.000000
735679.000000
736507.000000
737371.000000
738231.000000
739079.000000
739936.000000
740780.000000
741615.000000
742451.000000
743325.000000
744200.000000
745080.000000
745951.000000
746827.000000
747735.000000
748635.000000
749541.000000
750460.000000
751362.000000
752263.000000
753156.000000
754077.000000
755002.000000
755933.000000
756855.000000
757776.000000
758699.000000
759610.000000
760521.000000
761437.000000
762329.000000
763215.000000
764095.000000
764973.000000
765886.000000
766805.000000
767724.000000
768671.000000
769600.000000
770528.000000
771458.000000
772373.000000
773291.000000
774207.000000
775105.000000
776017.000000
776946.000000
777871.000000
778795.000000
779701.000000
780594.000000
781469.000000
782330.000000
783191.000000
784061.000000
784943.000000
785848.000000
786761.000000
787676.000000
788574.000000
789460.000000
790331.000000
791201.000000
792058.000000
792921.000000
793810.000000
794723.000000
795644.000000
796568.000000
797493.000000
798406.000000
799326.000000
800222.000000
801113.000000
802019.000000
802901.000000
803797.000000
804681.000000
805557.000000
806454.000000
807347.000000
808235.000000
809130.000000
810013.000000
810894.000000
811774.000000
812657.000000
813553.000000
814448.000000
815338.000000
816196.000000
817087.000000
817900.000000
818693.000000
819488.000000
820335.000000
821175.000000
822030.000000
822908.000000
823743.000000
824575.000000
825424.000000
826267.000000
827136.000000
828009.000000
828882.000000
829773.000000
830673.000000
831579.000000
832488.000000
833395.000000
834282.000000
835173.000000
836060.000000
836942.000000
837840.000000
838769.000000
839675.000000
840587.000000
841490.000000
842383.000000
843284.000000
844181.000000
845088.000000
846009.000000
846912.000000
847826.000000
848735.000000
849642.000000
850571.000000
851493.000000
852402.000000
853322.000000
854209.000000
855085.000000
855962.000000
856820.000000
857710.000000
858646.000000
859577.000000
860531.000000
861477.000000
862408.000000
863373.000000
864311.000000
865249.000000
866206.000000
867163.000000
868104.000000
869071.000000
870029.000000
870987.000000
871955.000000
872876.000000
873799.000000
874754.000000
875676.000000
876569.000000
877485.000000
878405.000000
879313.000000
880212.000000
881105.000000
881996.000000
882893.000000
883808.000000
884735.000000
885659.000000
886602.000000
887557.000000
888532.000000
889498.000000
890459.000000
891381.000000
892291.000000
893209.000000
894134.000000
895070.000000
896028.000000
896993.000000
897940.000000
898886.000000
899832.000000
900742.000000
901644.000000
902544.000000
903439.000000
904347.000000
905270.000000
906211.000000
907141.000000
908076.000000
909011.000000
909930.000000
910859.000000
911777.000000
912694.000000
913622.000000
914532.000000
915432.000000
916333.000000
917215.000000
918108.000000
918994.000000
919867.000000
920752.000000
