ECG (ms)
844.000000
1818.000000
2769.000000
3733.000000
4726.000000
5689.000000
6647.000000
7636.000000
8633.000000
9590.000000
10549.000000
11518.000000
12480.000000
13465.000000
14429.000000
15400.000000
16380.000000
17345.000000
18268.000000
19205.000000
20127.000000
21070.000000
21959.000000
22842.000000
23727.000000
24613.000000
25529.000000
26441.000000
27353.000000
28279.000000
29223.000000
30157.000000
31087.000000
32055.000000
33020.000000
33978.000000
34960.000000
35974.000000
36948.000000
37951.000000
38965.000000
39962.000000
40957.000000
41979.000000
42975.000000
43946.000000
44963.000000
45973.000000
46951.000000
47966.000000
48994.000000
49982.000000
51004.000000
52046.000000
53060.000000
54085.000000
55143.000000
56166.000000
57194.000000
58247.000000
59266.000000
60303.000000
61338.000000
62341.000000
63341.000000
64323.000000
65262.000000
66232.000000
67212.000000
68164.000000
69120.000000
70099.000000
71065.000000
72012.000000
72989.000000
73960.000000
74890.000000
75851.000000
76828.000000
77786.000000
78725.000000
79684.000000
80640.000000
81564.000000
82524.000000
83501.000000
84455.000000
85413.000000
86402.000000
87371.000000
88302.000000
89256.000000
90172.000000
91049.000000
91926.000000
92808.000000
93725.000000
94641.000000
95543.000000
96463.000000
97393.000000
98299.000000
99212.000000
100150.000000
101086.000000
102004.000000
102938.000000
103894.000000
104848.000000
105784.000000
106752.000000
107744.000000
108716.000000
109678.000000
110688.000000
111691.000000
112686.000000
113639.000000
114639.000000
115625.000000
116554.000000
117515.000000
118426.000000
119300.000000
120170.000000
121060.000000
121983.000000
122924.000000
123853.000000
124826.000000
125814.000000
126799.000000
127777.000000
128790.000000
129787.000000
130771.000000
131786.000000
132811.000000
133788.000000
134773.000000
135789.000000
136809.000000
137795.000000
138812.000000
139865.000000
140878.000000
141869.000000
142886.000000
143913.000000
144901.000000
145891.000000
146917.000000
147972.000000
148997.000000
150041.000000
151078.000000
152075.000000
153052.000000
154041.000000
155057.000000
156072.000000
157043.000000
157996.000000
158970.000000
159947.000000
160903.000000
161846.000000
162817.000000
163803.000000
164751.000000
165703.000000
166686.000000
167681.000000
168639.000000
169611.000000
170602.000000
171557.000000
172502.000000
173479.000000
174467.000000
175440.000000
176406.000000
177412.000000
178423.000000
179396.000000
180382.000000
181386.000000
182376.000000
183348.000000
184362.000000
185386.000000
186395.000000
187363.000000
188348.000000
189347.000000
190326.000000
191288.000000
192287.000000
193316.000000
194354.000000
195361.000000
196382.000000
197440.000000
198474.000000
199473.000000
200501.000000
201543.000000
202527.000000
203512.000000
204515.000000
205498.000000
206443.000000
207390.000000
208369.000000
209359.000000
210289.000000
211194.000000
212100.000000
212994.000000
213915.000000
214853.000000
215809.000000
216741.000000
217689.000000
218668.000000
219640.000000
220573.000000
221534.000000
222504.000000
223481.000000
224430.000000
225407.000000
226404.000000
227390.000000
228365.000000
229367.000000
230380.000000
231366.000000
232376.000000
233393.000000
234365.000000
235346.000000
236327.000000
237280.000000
238278.000000
239308.000000
240333.000000
241320.000000
242300.000000
243277.000000
244216.000000
245161.000000
246136.000000
247106.000000
248067.000000
249067.000000
250089.000000
251088.000000
252066.000000
253079.000000
254090.000000
255059.000000
256033.000000
257024.000000
258002.000000
258957.000000
259944.000000
260926.000000
261871.000000
262816.000000
263790.000000
264782.000000
265763.000000
266788.000000
267809.000000
268797.000000
269783.000000
270824.000000
271879.000000
272895.000000
273929.000000
274969.000000
275965.000000
276938.000000
277931.000000
278909.000000
279859.000000
280846.000000
281861.000000
282839.000000
283813.000000
284807.000000
285785.000000
286723.000000
287681.000000
288653.000000
289604.000000
290537.000000
291491.000000
292442.000000
293374.000000
294295.000000
295253.000000
296229.000000
297185.000000
298138.000000
299119.000000
300095.000000
301041.000000
301981.000000
302936.000000
303900.000000
304837.000000
305764.000000
306712.000000
307660.000000
308579.000000
309513.000000
310472.000000
311415.000000
312343.000000
313287.000000
314232.000000
315153.000000
316080.000000
317023.000000
317974.000000
318903.000000
319835.000000
320812.000000
321799.000000
322749.000000
323691.000000
324649.000000
325598.000000
326523.000000
327468.000000
328432.000000
329378.000000
330316.000000
331275.000000
332249.000000
333189.000000
334130.000000
335105.000000
336113.000000
337083.000000
338059.000000
339073.000000
340084.000000
341045.000000
342029.000000
343022.000000
343980.000000
344916.000000
345871.000000
346861.000000
347832.000000
348742.000000
349648.000000
350546.000000
351468.000000
352403.000000
353301.000000
354225.000000
355168.000000
356119.000000
357043.000000
357994.000000
358981.000000
359966.000000
360913.000000
361872.000000
362852.000000
363816.000000
364747.000000
365688.000000
366650.000000
367601.000000
368541.000000
369500.000000
370478.000000
371428.000000
372363.000000
373298.000000
374222.000000
375124.000000
376024.000000
376970.000000
377918.000000
378847.000000
379785.000000
380756.000000
381731.000000
382676.000000
383640.000000
384630.000000
385581.000000
386529.000000
387495.000000
388467.000000
389410.000000
390363.000000
391340.000000
392310.000000
393266.000000
394246.000000
395240.000000
396218.000000
397186.000000
398183.000000
399209.000000
400208.000000
401221.000000
402254.000000
403308.000000
404343.000000
405360.000000
406410.000000
407473.000000
408485.000000
409516.000000
410577.000000
411612.000000
412613.000000
413628.000000
414666.000000
415680.000000
416678.000000
417715.000000
418767.000000
419791.000000
420812.000000
421831.000000
422812.000000
423808.000000
424825.000000
425859.000000
426876.000000
427889.000000
428934.000000
429977.000000
430993.000000
432002.000000
433046.000000
434076.000000
435073.000000
436090.000000
437123.000000
438117.000000
439116.000000
440137.000000
441163.000000
442147.000000
443149.000000
444166.000000
445164.000000
446138.000000
447142.000000
448167.000000
449166.000000
450139.000000
451138.000000
452142.000000
453111.000000
454076.000000
455058.000000
456042.000000
457012.000000
457978.000000
458973.000000
459972.000000
460948.000000
461932.000000
462947.000000
463965.000000
464947.000000
465936.000000
466950.000000
467968.000000
468946.000000
469951.000000
470973.000000
471987.000000
472986.000000
474014.000000
475046.000000
476038.000000
477005.000000
477994.000000
478985.000000
479948.000000
480905.000000
481899.000000
482902.000000
483872.000000
484853.000000
485847.000000
486818.000000
487780.000000
488765.000000
489752.000000
490710.000000
491665.000000
492644.000000
493624.000000
494569.000000
495524.000000
496503.000000
497475.000000
498428.000000
499409.000000
500398.000000
501371.000000
502347.000000
503339.000000
504331.000000
505296.000000
506223.000000
507123.000000
508022.000000
508981.000000
509975.000000
510964.000000
511936.000000
512853.000000
513781.000000
514703.000000
515632.000000
516603.000000
517581.000000
518563.000000
519532.000000
520530.000000
521540.000000
522536.000000
523508.000000
524503.000000
525505.000000
526493.000000
527463.000000
528463.000000
529465.000000
530453.000000
531421.000000
532413.000000
533422.000000
534423.000000
535390.000000
536389.000000
537406.000000
538427.000000
539461.000000
540468.000000
541510.000000
542544.000000
543576.000000
544635.000000
545687.000000
546735.000000
547753.000000
548779.000000
549788.000000
550750.000000
551725.000000
552714.000000
553699.000000
554668.000000
555658.000000
556673.000000
557673.000000
558648.000000
559638.000000
560636.000000
561589.000000
562515.000000
563455.000000
564402.000000
565327.000000
566248.000000
567190.000000
568149.000000
569093.000000
570030.000000
570992.000000
571965.000000
572933.000000
573879.000000
574851.000000
575830.000000
576798.000000
577741.000000
578708.000000
579685.000000
580651.000000
581591.000000
582556.000000
583526.000000
584479.000000
585416.000000
586382.000000
587345.000000
588279.000000
589185.000000
590077.000000
590996.000000
591911.000000
592837.000000
593799.000000
594751.000000
595681.000000
596619.000000
597579.000000
598546.000000
599515.000000
600487.000000
601503.000000
602522.000000
603537.000000
604503.000000
605469.000000
606454.000000
607455.000000
608452.000000
609426.000000
610397.000000
611391.000000
612386.000000
613380.000000
614334.000000
615300.000000
616291.000000
617286.000000
618266.000000
619221.000000
620198.000000
621193.000000
622175.000000
623151.000000
624135.000000
625136.000000
626121.000000
627084.000000
628076.000000
629071.000000
630051.000000
631004.000000
631972.000000
632947.000000
633906.000000
634845.000000
635805.000000
636785.000000
637741.000000
638696.000000
639685.000000
640677.000000
641655.000000
642622.000000
643609.000000
644601.000000
645564.000000
646528.000000
647518.000000
648517.000000
649491.000000
650482.000000
651502.000000
652513.000000
653490.000000
654491.000000
655504.000000
656495.000000
657467.000000
658463.000000
659493.000000
660513.000000
661509.000000
662540.000000
663575.000000
664576.000000
665591.000000
666618.000000
667632.000000
668624.000000
669643.000000
670665.000000
671663.000000
672672.000000
673706.000000
674709.000000
675689.000000
676706.000000
677722.000000
678704.000000
679705.000000
680723.000000
681726.000000
682701.000000
683705.000000
684713.000000
685704.000000
686690.000000
687709.000000
688733.000000
689739.000000
690735.000000
691750.000000
692774.000000
693759.000000
694747.000000
695757.000000
696777.000000
697764.000000
698750.000000
699762.000000
700769.000000
701749.000000
702750.000000
703764.000000
704757.000000
705726.000000
706712.000000
707718.000000
708684.000000
709644.000000
710627.000000
711592.000000
712553.000000
713539.000000
714532.000000
715499.000000
716456.000000
717452.000000
718457.000000
719433.000000
720390.000000
721369.000000
722354.000000
723336.000000
724296.000000
725276.000000
726286.000000
727291.000000
728270.000000
729265.000000
730271.000000
731240.000000
732198.000000
733179.000000
734165.000000
735129.000000
736076.000000
737036.000000
738015.000000
738968.000000
739912.000000
740908.000000
741916.000000
742896.000000
743851.000000
744831.000000
745828.000000
746806.000000
747754.000000
748718.000000
749679.000000
750607.000000
751535.000000
752485.000000
753439.000000
754377.000000
755310.000000
756251.000000
757202.000000
758129.000000
759034.000000
759952.000000
760873.000000
761787.000000
762682.000000
763595.000000
764520.000000
765438.000000
766345.000000
767251.000000
768170.000000
769062.000000
769944.000000
770845.000000
771761.000000
772665.000000
773558.000000
774468.000000
775386.000000
776278.000000
777167.000000
778075.000000
778984.000000
779865.000000
780749.000000
781645.000000
782546.000000
783432.000000
784322.000000
785228.000000
786141.000000
787035.000000
787922.000000
788824.000000
789732.000000
790640.000000
791544.000000
792470.000000
793407.000000
794284.000000
795158.000000
796030.000000
796922.000000
797836.000000
798761.000000
799680.000000
800584.000000
801510.000000
802448.000000
803365.000000
804279.000000
805224.000000
806183.000000
807118.000000
808045.000000
809001.000000
809973.000000
810930.000000
811889.000000
812888.000000
813895.000000
814879.000000
815862.000000
816873.000000
817888.000000
818864.000000
819834.000000
820830.000000
821822.000000
822794.000000
823776.000000
824757.000000
825681.000000
826585.000000
827489.000000
828407.000000
829345.000000
830296.000000
831228.000000
832170.000000
833133.000000
834102.000000
835049.000000
836007.000000
836989.000000
837971.000000
838922.000000
839879.000000
840856.000000
841829.000000
842783.000000
843754.000000
844745.000000
845730.000000
846691.000000
847674.000000
848667.000000
849639.000000
850618.000000
851611.000000
852595.000000
853559.000000
854544.000000
855538.000000
856532.000000
857545.000000
858569.000000
859583.000000
860592.000000
861633.000000
862696.000000
863718.000000
864721.000000
865759.000000
866801.000000
867816.000000
868848.000000
869887.000000
870885.000000
871875.000000
872885.000000
873870.000000
874862.000000
875856.000000
876821.000000
877773.000000
878748.000000
879741.000000
880681.000000
881578.000000
882482.000000
883380.000000
884298.000000
885247.000000
886193.000000
887126.000000
888076.000000
889051.000000
890019.000000
890965.000000
891946.000000
892955.000000
893961.000000
894947.000000
895972.000000
897000.000000
898003.000000
899015.000000
900061.000000
901088.000000
902083.000000
903102.000000
904135.000000
905136.000000
906141.000000
907167.000000
908180.000000
909158.000000
910146.000000
911139.000000
912119.000000
913085.000000
914078.000000
915080.000000
916066.000000
917060.000000
918081.000000
919098.000000
920076.000000
921063.000000
922077.000000
923099.000000
924100.000000
925071.000000
926070.000000
927079.000000
928078.000000
929048.000000
930032.000000
931034.000000
932036.000000
933010.000000
933999.000000
935002.000000
935997.000000
936985.000000
937999.000000
939016.000000
940003.000000
941002.000000
942018.000000
943030.000000
944035.000000
945058.000000
946079.000000
947074.000000
948038.000000
949018.000000
950005.000000
950968.000000
951922.000000
952906.000000
953906.000000
954890.000000
955863.000000
956859.000000
957872.000000
958840.000000
959781.000000
960719.000000
961659.000000
962642.000000
963672.000000
964693.000000
965713.000000
966663.000000
967583.000000
968502.000000
969394.000000
970275.000000
971176.000000
972117.000000
973073.000000
974022.000000
974997.000000
976007.000000
977027.000000
978007.000000
978993.000000
979995.000000
980981.000000
981932.000000
982885.000000
983866.000000
984867.000000
985887.000000
986917.000000
987909.000000
988899.000000
989916.000000
990941.000000
991957.000000
992924.000000
993912.000000
994912.000000
995918.000000
996898.000000
997917.000000
998959.000000
999981.000000
1000982.000000
1002022.000000
1003114.000000
1004185.000000
1005251.000000
1006303.000000
1007365.000000
1008434.000000
1009462.000000
1010497.000000
1011546.000000
1012586.000000
1013601.000000
1014632.000000
1015656.000000
1016643.000000
1017655.000000
1018692.000000
1019764.000000
1020789.000000
1021813.000000
1022852.000000
1023881.000000
