ECG (ms)
739.000000
1550.000000
2350.000000
3214.000000
4085.000000
4875.000000
5737.000000
6610.000000
7397.000000
8208.000000
9073.000000
9900.000000
10689.000000
11561.000000
12507.000000
13319.000000
14187.000000
15077.000000
15869.000000
16717.000000
17605.000000
18407.000000
19266.000000
20136.000000
20918.000000
21731.000000
22589.000000
23394.000000
24178.000000
25016.000000
25869.000000
26660.000000
27498.000000
28399.000000
29245.000000
30054.000000
30933.000000
31848.000000
32679.000000
33498.000000
34372.000000
35195.000000
35991.000000
36893.000000
37875.000000
38728.000000
39626.000000
40578.000000
41453.000000
42241.000000
43075.000000
43919.000000
44721.000000
45625.000000
46563.000000
47388.000000
48361.000000
49323.000000
50142.000000
51037.000000
51884.000000
52662.000000
53488.000000
54353.000000
55147.000000
56008.000000
56937.000000
57786.000000
58641.000000
59596.000000
60493.000000
61305.000000
62201.000000
63121.000000
63926.000000
64753.000000
65626.000000
66449.000000
67294.000000
68272.000000
69139.000000
70006.000000
70942.000000
71754.000000
72572.000000
73349.000000
74103.000000
74806.000000
75541.000000
76271.000000
76987.000000
77696.000000
78427.000000
79164.000000
79911.000000
80645.000000
81392.000000
82194.000000
83004.000000
83753.000000
84509.000000
85292.000000
86051.000000
86808.000000
87613.000000
88479.000000
89291.000000
90166.000000
91063.000000
91875.000000
92748.000000
93712.000000
94604.000000
95465.000000
96383.000000
97291.000000
98110.000000
98984.000000
99906.000000
100715.000000
101555.000000
102459.000000
103280.000000
104092.000000
104941.000000
105777.000000
106593.000000
107510.000000
108461.000000
109303.000000
110181.000000
111007.000000
111786.000000
112589.000000
113425.000000
114214.000000
114987.000000
115790.000000
116634.000000
117405.000000
118190.000000
118998.000000
119779.000000
120573.000000
121424.000000
122221.000000
123020.000000
123878.000000
124683.000000
125481.000000
126344.000000
127158.000000
127950.000000
128792.000000
129684.000000
130493.000000
131363.000000
132235.000000
133047.000000
133922.000000
134812.000000
135644.000000
136505.000000
137415.000000
138267.000000
139083.000000
139976.000000
140909.000000
141748.000000
142605.000000
143439.000000
144236.000000
145033.000000
145771.000000
146487.000000
147260.000000
148145.000000
149020.000000
149815.000000
150657.000000
151481.000000
152274.000000
153116.000000
153964.000000
154721.000000
155441.000000
156146.000000
156886.000000
157725.000000
158569.000000
159374.000000
160250.000000
161195.000000
162054.000000
162932.000000
163807.000000
164648.000000
165449.000000
166281.000000
167114.000000
167928.000000
168796.000000
169771.000000
170646.000000
171612.000000
172604.000000
173494.000000
174404.000000
175333.000000
176178.000000
177068.000000
178007.000000
178884.000000
179750.000000
180649.000000
181469.000000
182348.000000
183199.000000
184049.000000
185000.000000
185876.000000
186747.000000
187607.000000
188385.000000
189148.000000
189893.000000
190644.000000
191438.000000
192218.000000
192981.000000
193787.000000
194649.000000
195438.000000
196244.000000
197090.000000
197877.000000
198706.000000
199559.000000
200370.000000
201240.000000
202194.000000
203094.000000
203937.000000
204864.000000
205805.000000
206638.000000
207484.000000
208354.000000
209150.000000
209978.000000
210886.000000
211760.000000
212657.000000
213626.000000
214497.000000
215422.000000
216345.000000
217159.000000
217984.000000
218826.000000
219644.000000
220473.000000
221373.000000
222220.000000
223006.000000
223746.000000
224536.000000
225403.000000
226212.000000
227013.000000
227818.000000
228563.000000
229321.000000
230100.000000
230881.000000
231707.000000
232614.000000
233497.000000
234322.000000
235185.000000
236038.000000
236849.000000
237733.000000
238670.000000
239506.000000
240375.000000
241274.000000
242086.000000
242903.000000
243801.000000
244723.000000
245584.000000
246520.000000
247488.000000
248352.000000
249231.000000
250102.000000
250877.000000
251657.000000
252413.000000
253125.000000
253854.000000
254731.000000
255718.000000
256582.000000
257520.000000
258400.000000
259208.000000
260054.000000
260896.000000
261678.000000
262489.000000
263325.000000
264117.000000
264950.000000
265889.000000
266835.000000
267649.000000
268508.000000
269405.000000
270244.000000
271157.000000
272123.000000
272974.000000
273857.000000
274816.000000
275685.000000
276496.000000
277390.000000
278272.000000
279075.000000
279924.000000
280859.000000
281667.000000
282520.000000
283387.000000
284194.000000
285071.000000
285916.000000
286706.000000
287449.000000
288213.000000
288956.000000
289679.000000
290415.000000
291147.000000
291866.000000
292604.000000
293377.000000
294119.000000
294864.000000
295626.000000
296413.000000
297167.000000
297937.000000
298713.000000
299469.000000
300239.000000
301058.000000
301843.000000
302642.000000
303486.000000
304312.000000
305108.000000
305938.000000
306764.000000
307558.000000
308393.000000
309217.000000
310003.000000
310819.000000
311650.000000
312436.000000
313264.000000
314106.000000
314892.000000
315719.000000
316599.000000
317432.000000
318322.000000
319237.000000
320068.000000
320863.000000
321684.000000
322500.000000
323270.000000
324050.000000
324924.000000
325763.000000
326636.000000
327634.000000
328600.000000
329465.000000
330377.000000
331307.000000
332135.000000
332997.000000
333902.000000
334722.000000
335582.000000
336674.000000
337573.000000
338460.000000
339430.000000
340250.000000
341104.000000
341964.000000
342758.000000
343569.000000
344416.000000
345271.000000
346079.000000
346993.000000
347988.000000
348858.000000
349745.000000
350675.000000
351504.000000
352352.000000
353265.000000
354104.000000
354922.000000
355863.000000
356792.000000
357622.000000
358648.000000
359633.000000
360484.000000
361437.000000
362420.000000
363260.000000
364169.000000
365146.000000
365994.000000
366869.000000
367801.000000
368629.000000
369480.000000
370413.000000
371220.000000
372074.000000
372957.000000
373773.000000
374714.000000
375742.000000
376577.000000
377474.000000
378411.000000
379236.000000
380055.000000
380911.000000
381755.000000
382549.000000
383383.000000
384268.000000
385066.000000
385903.000000
386798.000000
387603.000000
388453.000000
389373.000000
390249.000000
391108.000000
392079.000000
393060.000000
393907.000000
394804.000000
395712.000000
396533.000000
397450.000000
398454.000000
399300.000000
400236.000000
401169.000000
401979.000000
402848.000000
403729.000000
404577.000000
405608.000000
406671.000000
407640.000000
408642.000000
409485.000000
410330.000000
411200.000000
412022.000000
412825.000000
413775.000000
414810.000000
415669.000000
416658.000000
417513.000000
418332.000000
419236.000000
420111.000000
420940.000000
421904.000000
422731.000000
423540.000000
424317.000000
425122.000000
425968.000000
426760.000000
427599.000000
428424.000000
429200.000000
429996.000000
430799.000000
431528.000000
432250.000000
432984.000000
433744.000000
434505.000000
435291.000000
436106.000000
436912.000000
437747.000000
438735.000000
439646.000000
440529.000000
441477.000000
442329.000000
443178.000000
444107.000000
444983.000000
445829.000000
446748.000000
447619.000000
448442.000000
449351.000000
450298.000000
451159.000000
452047.000000
452977.000000
453828.000000
454739.000000
455659.000000
456489.000000
457314.000000
458209.000000
459087.000000
459912.000000
460863.000000
461778.000000
462612.000000
463614.000000
464569.000000
465450.000000
466399.000000
467326.000000
468183.000000
469068.000000
470033.000000
470870.000000
471913.000000
472904.000000
473740.000000
474652.000000
475571.000000
476425.000000
477338.000000
478296.000000
479127.000000
480046.000000
481108.000000
481949.000000
482900.000000
483890.000000
484724.000000
485672.000000
486723.000000
487598.000000
488611.000000
489609.000000
490465.000000
491369.000000
492327.000000
493138.000000
493996.000000
494920.000000
495732.000000
496658.000000
497659.000000
498501.000000
499433.000000
500386.000000
501215.000000
502089.000000
502978.000000
503785.000000
504642.000000
505579.000000
506480.000000
507319.000000
508239.000000
509151.000000
509969.000000
510853.000000
511763.000000
512581.000000
513457.000000
514360.000000
515182.000000
516066.000000
517014.000000
517851.000000
518751.000000
519718.000000
520606.000000
521508.000000
522521.000000
523510.000000
524369.000000
525278.000000
526232.000000
527069.000000
527926.000000
528890.000000
529794.000000
530618.000000
531555.000000
532544.000000
533390.000000
534224.000000
535207.000000
536132.000000
536956.000000
537874.000000
538882.000000
539753.000000
540760.000000
541694.000000
542541.000000
543524.000000
544537.000000
545379.000000
546296.000000
547263.000000
548107.000000
549028.000000
550022.000000
550895.000000
551751.000000
552695.000000
553602.000000
554458.000000
555553.000000
556618.000000
557491.000000
558478.000000
559468.000000
560295.000000
561131.000000
562022.000000
562868.000000
563687.000000
564740.000000
565903.000000
566851.000000
567865.000000
568854.000000
569705.000000
570634.000000
571618.000000
572445.000000
573254.000000
574104.000000
574961.000000
575764.000000
576670.000000
577688.000000
578548.000000
579531.000000
580562.000000
581433.000000
582331.000000
583271.000000
584100.000000
584985.000000
586032.000000
587014.000000
587884.000000
588880.000000
589902.000000
590759.000000
591696.000000
592679.000000
593529.000000
594507.000000
595575.000000
596421.000000
597375.000000
598422.000000
599280.000000
600268.000000
601308.000000
602177.000000
603153.000000
604192.000000
605046.000000
605997.000000
607021.000000
607867.000000
608906.000000
609974.000000
610850.000000
611807.000000
612746.000000
613580.000000
614511.000000
615559.000000
616444.000000
617458.000000
618538.000000
619489.000000
620455.000000
621476.000000
622326.000000
623198.000000
624220.000000
625147.000000
626057.000000
627163.000000
628220.000000
629079.000000
630007.000000
630973.000000
631803.000000
632774.000000
633875.000000
634729.000000
635697.000000
636732.000000
637620.000000
638605.000000
639656.000000
640556.000000
641459.000000
642456.000000
643519.000000
644370.000000
645269.000000
646269.000000
647113.000000
647932.000000
648906.000000
650031.000000
650884.000000
651852.000000
652771.000000
653596.000000
654507.000000
655365.000000
656157.000000
656999.000000
657856.000000
658658.000000
659494.000000
660387.000000
661270.000000
662092.000000
662987.000000
663894.000000
664726.000000
665561.000000
666480.000000
667376.000000
668180.000000
669065.000000
669927.000000
670738.000000
671688.000000
672630.000000
673473.000000
674312.000000
675112.000000
675944.000000
676770.000000
677811.000000
678780.000000
679655.000000
680660.000000
681631.000000
682471.000000
683363.000000
684299.000000
685201.000000
686024.000000
686881.000000
687812.000000
688642.000000
689561.000000
690712.000000
691622.000000
692696.000000
693820.000000
694689.000000
695585.000000
696508.000000
697323.000000
698213.000000
699254.000000
700090.000000
701042.000000
702100.000000
702969.000000
703938.000000
704959.000000
705834.000000
706768.000000
707734.000000
708645.000000
709461.000000
710335.000000
711233.000000
712047.000000
712878.000000
713915.000000
714963.000000
715856.000000
716785.000000
717857.000000
718822.000000
719654.000000
720656.000000
721776.000000
722735.000000
723599.000000
724634.000000
725720.000000
726547.000000
727451.000000
728541.000000
729399.000000
730360.000000
731386.000000
732241.000000
733203.000000
734221.000000
735077.000000
736009.000000
736973.000000
737810.000000
738729.000000
739642.000000
740462.000000
741350.000000
742407.000000
743461.000000
744336.000000
745312.000000
746295.000000
747127.000000
748062.000000
749241.000000
750195.000000
751260.000000
752383.000000
753305.000000
754313.000000
755397.000000
756282.000000
757272.000000
758363.000000
759193.000000
760146.000000
761117.000000
761938.000000
762779.000000
763733.000000
764575.000000
765404.000000
766216.000000
767051.000000
767968.000000
768868.000000
769709.000000
770616.000000
771516.000000
772320.000000
773141.000000
773925.000000
774711.000000
775485.000000
776314.000000
777241.000000
778122.000000
779033.000000
780019.000000
780919.000000
781836.000000
782827.000000
783732.000000
784683.000000
785750.000000
786695.000000
787762.000000
788823.000000
789811.000000
790823.000000
791693.000000
792601.000000
793645.000000
794575.000000
795580.000000
796751.000000
797793.000000
798677.000000
799694.000000
800620.000000
801435.000000
802357.000000
803300.000000
804138.000000
805178.000000
806168.000000
807079.000000
808160.000000
809094.000000
810006.000000
810988.000000
811921.000000
812771.000000
813728.000000
814729.000000
815605.000000
816573.000000
817596.000000
818446.000000
819400.000000
820504.000000
821367.000000
822377.000000
823259.000000
824090.000000
824915.000000
825710.000000
826547.000000
827490.000000
828544.000000
829417.000000
830441.000000
831352.000000
832268.000000
833229.000000
834087.000000
834993.000000
835937.000000
836811.000000
837727.000000
838715.000000
839710.000000
840580.000000
841510.000000
842539.000000
843420.000000
844524.000000
845662.000000
846582.000000
847514.000000
848627.000000
849721.000000
850604.000000
851786.000000
852966.000000
854026.000000
854885.000000
855814.000000
856879.000000
857900.000000
858813.000000
859913.000000
861039.000000
862088.000000
863216.000000
864263.000000
865158.000000
866081.000000
866965.000000
867836.000000
868990.000000
869847.000000
870951.000000
871890.000000
872762.000000
873730.000000
874626.000000
875458.000000
876337.000000
877178.000000
877965.000000
878758.000000
879578.000000
880459.000000
881273.000000
882178.000000
883187.000000
884180.000000
885048.000000
885864.000000
886739.000000
887853.000000
888770.000000
889697.000000
890736.000000
891648.000000
892572.000000
893688.000000
894691.000000
895584.000000
896643.000000
897711.000000
898609.000000
899527.000000
900558.000000
901542.000000
902409.000000
903387.000000
904416.000000
905283.000000
906116.000000
907069.000000
908120.000000
909003.000000
909852.000000
910862.000000
911890.000000
912740.000000
913547.000000
914523.000000
915441.000000
916254.000000
917175.000000
918069.000000
918870.000000
919672.000000
920451.000000
921204.000000
921962.000000
922789.000000
923697.000000
924508.000000
925339.000000
926178.000000
926996.000000
927764.000000
928567.000000
929388.000000
930211.000000
930968.000000
931746.000000
932596.000000
933438.000000
934289.000000
935251.000000
936239.000000
937130.000000
938077.000000
939088.000000
940023.000000
941025.000000
942047.000000
943008.000000
943872.000000
944794.000000
945829.000000
946790.000000
947730.000000
948792.000000
949782.000000
950704.000000
951754.000000
952740.000000
953676.000000
954706.000000
955746.000000
956669.000000
957646.000000
958641.000000
959497.000000
960454.000000
961486.000000
962366.000000
963471.000000
964584.000000
965514.000000
966514.000000
967568.000000
968478.000000
969365.000000
970321.000000
971203.000000
972031.000000
973020.000000
974211.000000
975188.000000
976246.000000
977333.000000
978259.000000
979137.000000
980158.000000
981114.000000
981989.000000
983109.000000
984225.000000
985123.000000
986063.000000
987103.000000
988146.000000
989003.000000
990029.000000
991080.000000
991960.000000
992810.000000
993975.000000
995003.000000
995840.000000
996776.000000
997728.000000
998617.000000
999759.000000
1000841.000000
1001747.000000
1002797.000000
1003831.000000
1004714.000000
1005651.000000
1006642.000000
1007579.000000
1008418.000000
1009363.000000
1010372.000000
1011289.000000
1012152.000000
1013145.000000
1014177.000000
1015036.000000
1015904.000000
1016937.000000
1017875.000000
1018809.000000
1019682.000000
1020508.000000
1021326.000000
1022138.000000
1022986.000000
1023993.000000
1025006.000000
1025857.000000
1026833.000000
1027750.000000
1028585.000000
1029511.000000
1030423.000000
1031248.000000
1032066.000000
1032927.000000
1033844.000000
1034697.000000
1035562.000000
1036544.000000
1037569.000000
1038514.000000
1039361.000000
1040320.000000
1041357.000000
1042281.000000
1043090.000000
1043985.000000
1045077.000000
1045965.000000
1046886.000000
1048044.000000
1049151.000000
1050014.000000
1050980.000000
1052010.000000
1052890.000000
1053828.000000
1054850.000000
1055823.000000
1056672.000000
1057636.000000
1058762.000000
1059722.000000
1060558.000000
1061546.000000
1062614.000000
1063495.000000
1064486.000000
1065571.000000
1066427.000000
1067326.000000
1068307.000000
1069157.000000
1070112.000000
1071239.000000
1072196.000000
1073223.000000
1074332.000000
1075362.000000
1076224.000000
1077130.000000
1078087.000000
1079001.000000
1079846.000000
1080829.000000
1081934.000000
1082910.000000
1083771.000000
1084810.000000
1085808.000000
1086644.000000
1087527.000000
1088672.000000
1089569.000000
1090466.000000
1091521.000000
1092418.000000
1093299.000000
1094488.000000
1095610.000000
1096593.000000
1097664.000000
1098725.000000
1099644.000000
1100484.000000
1101378.000000
1102284.000000
1103184.000000
1104018.000000
1104823.000000
1105620.000000
1106392.000000
1107192.000000
1108006.000000
1108989.000000
1110076.000000
1110948.000000
1111908.000000
1112781.000000
1113587.000000
1114437.000000
1115285.000000
1116069.000000
1116888.000000
1117753.000000
1118607.000000
1119412.000000
1120318.000000
1121331.000000
1122281.000000
1123201.000000
1124199.000000
1125180.000000
1126034.000000
1126942.000000
1127923.000000
1128894.000000
1129730.000000
1130663.000000
1131627.000000
1132523.000000
1133727.000000
1134888.000000
1135866.000000
1136954.000000
1137992.000000
1138863.000000
1139876.000000
1141054.000000
1142025.000000
1143045.000000
1144178.000000
1145296.000000
1146216.000000
1147171.000000
1148214.000000
1149269.000000
1150136.000000
1151036.000000
1152119.000000
1153052.000000
1153897.000000
1154725.000000
1155589.000000
1156389.000000
1157167.000000
1158157.000000
1159234.000000
1160082.000000
1161013.000000
1161944.000000
1162758.000000
1163606.000000
1164477.000000
1165289.000000
1166075.000000
1166891.000000
1167742.000000
1168520.000000
1169340.000000
1170219.000000
1171091.000000
1171896.000000
1172776.000000
1173719.000000
1174549.000000
1175455.000000
1176435.000000
1177373.000000
1178253.000000
1179254.000000
1180294.000000
1181250.000000
1182131.000000
1183065.000000
1184027.000000
1184883.000000
1185818.000000
1186934.000000
1188023.000000
1188934.000000
1189785.000000
1190691.000000
1191550.000000
1192358.000000
1193269.000000
1194482.000000
1195527.000000
1196684.000000
1197714.000000
1198600.000000
1199591.000000
1200576.000000
1201427.000000
1202395.000000
1203375.000000
1204214.000000
1205134.000000
1206169.000000
1207180.000000
1208050.000000
1209022.000000
1210001.000000
1210843.000000
1211645.000000
1212595.000000
1213700.000000
1214612.000000
1215594.000000
1216424.000000
1217473.000000
1218649.000000
1219562.000000
1220580.000000
1221582.000000
1222435.000000
1223372.000000
1224312.000000
1225145.000000
1225960.000000
1226811.000000
1227653.000000
1228469.000000
1229253.000000
1230135.000000
1231141.000000
1232011.000000
1232946.000000
1234019.000000
1235089.000000
1235979.000000
1236837.000000
1237797.000000
1238634.000000
1239527.000000
1240526.000000
1241388.000000
1242513.000000
1243703.000000
1244689.000000
1245749.000000
1246787.000000
1247666.000000
1248643.000000
1249680.000000
1250714.000000
1251590.000000
1252583.000000
1253618.000000
1254612.000000
1255460.000000
1256277.000000
1257257.000000
1258427.000000
1259274.000000
1260213.000000
1261161.000000
1261984.000000
1262780.000000
1263711.000000
1264656.000000
1265526.000000
1266573.000000
1267500.000000
1268359.000000
1269271.000000
1270186.000000
1271000.000000
1271881.000000
1272820.000000
1273800.000000
1274650.000000
1275505.000000
1276431.000000
1277428.000000
1278316.000000
1279212.000000
1280308.000000
1281424.000000
1282389.000000
1283296.000000
1284328.000000
1285412.000000
1286317.000000
1287169.000000
1288250.000000
1289396.000000
1290468.000000
1291364.000000
1292159.000000
1292968.000000
1293778.000000
1294612.000000
1295517.000000
1296404.000000
1297490.000000
1298627.000000
1299646.000000
1300723.000000
1301732.000000
1302750.000000
1303641.000000
1304545.000000
1305384.000000
1306258.000000
1307087.000000
1307864.000000
1308653.000000
1309419.000000
1310161.000000
1310925.000000
1311698.000000
1312431.000000
1313137.000000
1313861.000000
1314604.000000
1315331.000000
1316095.000000
1316865.000000
1317603.000000
1318324.000000
1319104.000000
1319936.000000
1320686.000000
1321437.000000
1322212.000000
1322973.000000
1323707.000000
1324447.000000
1325180.000000
1325930.000000
1326747.000000
1327606.000000
1328384.000000
1329207.000000
1330014.000000
1330797.000000
1331644.000000
1332518.000000
1333307.000000
1334166.000000
1335083.000000
1335901.000000
1336756.000000
1337616.000000
1338404.000000
1339233.000000
1340137.000000
1340950.000000
1341908.000000
1342916.000000
1343755.000000
1344668.000000
1345653.000000
1346495.000000
1347429.000000
1348431.000000
1349308.000000
1350175.000000
1351192.000000
1352237.000000
1353084.000000
1354055.000000
1355045.000000
1355888.000000
1356824.000000
1357842.000000
1358722.000000
1359853.000000
1360886.000000
1361753.000000
1362704.000000
1363658.000000
1364513.000000
1365497.000000
1366474.000000
1367346.000000
1368316.000000
1369219.000000
1370050.000000
1371038.000000
1372073.000000
1372933.000000
1373884.000000
1374777.000000
1375736.000000
1376709.000000
1377586.000000
1378680.000000
1379667.000000
1380533.000000
1381465.000000
1382409.000000
1383240.000000
1384226.000000
1385241.000000
1386095.000000
1387081.000000
1387934.000000
1388833.000000
1389648.000000
1390433.000000
1391180.000000
1391983.000000
1392954.000000
1393798.000000
1394682.000000
1395644.000000
1396488.000000
1397354.000000
1398287.000000
1399114.000000
1399941.000000
1400874.000000
1401731.000000
1402562.000000
1403533.000000
1404578.000000
1405433.000000
1406379.000000
1407363.000000
1408202.000000
1409114.000000
1410096.000000
1410990.000000
1411837.000000
1412785.000000
1413785.000000
1414644.000000
1415625.000000
1416652.000000
1417496.000000
1418416.000000
1419356.000000
1420176.000000
1421085.000000
1422035.000000
1422880.000000
1423872.000000
1424905.000000
1425760.000000
1426730.000000
1427638.000000
1428461.000000
1429372.000000
1430299.000000
1431143.000000
1432148.000000
1433090.000000
1433917.000000
1434851.000000
1435791.000000
1436601.000000
1437456.000000
1438322.000000
1439124.000000
1439950.000000
1440831.000000
1441787.000000
1442616.000000
1443558.000000
1444499.000000
1445348.000000
1446215.000000
1447197.000000
1448153.000000
1448986.000000
1449882.000000
1450735.000000
1451550.000000
1452452.000000
1453374.000000
1454220.000000
1455173.000000
1456071.000000
1456896.000000
1457795.000000
1458683.000000
1459481.000000
1460330.000000
1461201.000000
1462004.000000
1462891.000000
1463848.000000
1464714.000000
1465654.000000
1466642.000000
1467470.000000
1468357.000000
1469278.000000
1470092.000000
1470939.000000
1471835.000000
1472679.000000
1473520.000000
1474446.000000
1475283.000000
1476105.000000
1476971.000000
1477829.000000
1478629.000000
1479531.000000
1480470.000000
1481292.000000
1482161.000000
1483033.000000
1483841.000000
1484697.000000
1485560.000000
1486340.000000
1487138.000000
1487919.000000
1488672.000000
1489389.000000
1490144.000000
1490961.000000
1491780.000000
1492570.000000
1493387.000000
1494198.000000
1494967.000000
1495758.000000
1496555.000000
1497323.000000
1498083.000000
1498874.000000
1499674.000000
1500465.000000
1501319.000000
1502214.000000
1503036.000000
1503844.000000
1504708.000000
1505598.000000
1506414.000000
1507266.000000
1508128.000000
1508947.000000
1509804.000000
1510700.000000
1511528.000000
1512438.000000
1513395.000000
1514255.000000
1515193.000000
1516164.000000
1517045.000000
1518025.000000
1519054.000000
1519982.000000
1521027.000000
1522090.000000
1523013.000000
1524001.000000
1525015.000000
1525885.000000
1526856.000000
1527910.000000
1528761.000000
1529718.000000
1530650.000000
1531478.000000
1532444.000000
1533460.000000
1534351.000000
1535473.000000
1536437.000000
1537321.000000
1538255.000000
1539164.000000
1539988.000000
1540906.000000
1541842.000000
1542672.000000
1543564.000000
1544511.000000
1545385.000000
1546224.000000
1547165.000000
1548133.000000
1548994.000000
1549988.000000
1551041.000000
1551948.000000
1552850.000000
1553817.000000
1554706.000000
1555527.000000
1556427.000000
1557408.000000
1558281.000000
1559234.000000
1560327.000000
1561264.000000
1562124.000000
1563054.000000
1563925.000000
1564734.000000
1565541.000000
1566334.000000
1567228.000000
1568080.000000
1569134.000000
1570053.000000
1570986.000000
1571981.000000
1572819.000000
1573649.000000
1574500.000000
1575349.000000
1576115.000000
1576888.000000
1577677.000000
1578481.000000
1579257.000000
1580078.000000
1581000.000000
1581876.000000
1582739.000000
1583655.000000
1584593.000000
1585425.000000
1586311.000000
1587298.000000
1588336.000000
1589282.000000
1590247.000000
1591244.000000
1592177.000000
1593151.000000
1594140.000000
1595003.000000
1595866.000000
1596752.000000
1597567.000000
1598556.000000
1599533.000000
1600455.000000
1601517.000000
1602483.000000
1603442.000000
1604434.000000
1605407.000000
1606250.000000
1607109.000000
1607938.000000
1608730.000000
1609554.000000
1610499.000000
1611561.000000
1612509.000000
1613509.000000
1614533.000000
1615529.000000
1616369.000000
1617200.000000
1618019.000000
1618810.000000
1619605.000000
1620352.000000
1621123.000000
1622018.000000
1623129.000000
1624056.000000
1625007.000000
1625943.000000
1626761.000000
1627610.000000
1628497.000000
1629323.000000
1630194.000000
1631202.000000
1632124.000000
1633052.000000
1634027.000000
1634934.000000
1635767.000000
1636677.000000
1637647.000000
1638527.000000
1639578.000000
1640610.000000
1641497.000000
1642434.000000
1643343.000000
1644201.000000
1645241.000000
1646323.000000
1647215.000000
1648307.000000
1649368.000000
1650253.000000
1651167.000000
1652049.000000
1652845.000000
1653686.000000
1654493.000000
1655275.000000
1656042.000000
1656994.000000
1658091.000000
1658967.000000
1660007.000000
1660993.000000
1661849.000000
1662786.000000
1663745.000000
1664609.000000
1665536.000000
1666527.000000
1667471.000000
1668319.000000
1669244.000000
1670251.000000
1671207.000000
1672032.000000
1672948.000000
1673821.000000
1674655.000000
1675564.000000
1676409.000000
1677287.000000
1678421.000000
1679397.000000
1680300.000000
1681302.000000
1682191.000000
1683055.000000
1683981.000000
1684857.000000
1685675.000000
1686571.000000
1687518.000000
1688415.000000
1689369.000000
1690326.000000
1691185.000000
1692167.000000
1693209.000000
1694198.000000
1695087.000000
1695911.000000
1696746.000000
1697533.000000
1698272.000000
1699091.000000
1700097.000000
1700950.000000
1701954.000000
1703068.000000
1703993.000000
1705016.000000
1706060.000000
1706941.000000
1707801.000000
1708699.000000
1709643.000000
1710501.000000
1711393.000000
1712498.000000
1713581.000000
1714488.000000
1715398.000000
1716362.000000
1717204.000000
1718189.000000
1719298.000000
1720173.000000
1721218.000000
1722286.000000
1723181.000000
1724243.000000
1725297.000000
1726187.000000
1727138.000000
1728121.000000
1729057.000000
1729926.000000
1730874.000000
1731868.000000
1732962.000000
1733924.000000
1734864.000000
1735904.000000
1736926.000000
1737781.000000
1738604.000000
1739420.000000
1740428.000000
1741370.000000
1742221.000000
1743491.000000
1744626.000000
1745560.000000
1746569.000000
1747473.000000
1748368.000000
1749318.000000
1750172.000000
1751003.000000
1751856.000000
1752654.000000
1753456.000000
1754270.000000
1755052.000000
1755827.000000
1756605.000000
1757392.000000
1758174.000000
1759016.000000
1759887.000000
1760692.000000
1761543.000000
1762460.000000
1763298.000000
1764187.000000
1765135.000000
1765960.000000
1766814.000000
1767682.000000
1768503.000000
1769431.000000
1770453.000000
1771330.000000
1772270.000000
1773234.000000
1774096.000000
1775016.000000
1776022.000000
1776931.000000
1777885.000000
1778917.000000
1779862.000000
1780838.000000
1781773.000000
1782614.000000
1783513.000000
1784441.000000
1785336.000000
1786408.000000
1787324.000000
1788190.000000
1789067.000000
1790051.000000
1790947.000000
1791805.000000
1792740.000000
1793663.000000
1794496.000000
1795408.000000
1796349.000000
1797205.000000
1798119.000000
