ECG (ms)
502.000000
1428.000000
2256.000000
3150.000000
4054.000000
4986.000000
5921.000000
6840.000000
7761.000000
8583.000000
9489.000000
10403.000000
11330.000000
12286.000000
13123.000000
13906.000000
14701.000000
15783.000000
16816.000000
17773.000000
18659.000000
19608.000000
20528.000000
21377.000000
22193.000000
23045.000000
23899.000000
24730.000000
25492.000000
26397.000000
27209.000000
28027.000000
28939.000000
29808.000000
30595.000000
31378.000000
32154.000000
32955.000000
33691.000000
34468.000000
35546.000000
36495.000000
37359.000000
38306.000000
39187.000000
40027.000000
40796.000000
41565.000000
42480.000000
43289.000000
44286.000000
45267.000000
46178.000000
47129.000000
48018.000000
48843.000000
49683.000000
50622.000000
51447.000000
52248.000000
53112.000000
54050.000000
55024.000000
55942.000000
56743.000000
57492.000000
58224.000000
59024.000000
59791.000000
60660.000000
61625.000000
62570.000000
63487.000000
64406.000000
65157.000000
65851.000000
66558.000000
67375.000000
68399.000000
69225.000000
70154.000000
70967.000000
71759.000000
72768.000000
73693.000000
74533.000000
75390.000000
76300.000000
77220.000000
78038.000000
78932.000000
79852.000000
80794.000000
81698.000000
82499.000000
83310.000000
84153.000000
85121.000000
86077.000000
87013.000000
87865.000000
88723.000000
89661.000000
90598.000000
91450.000000
92291.000000
93207.000000
94128.000000
95007.000000
95918.000000
96847.000000
97704.000000
98548.000000
99401.000000
100302.000000
101129.000000
101952.000000
102851.000000
103808.000000
104691.000000
105546.000000
106402.000000
107305.000000
108162.000000
108967.000000
109759.000000
110676.000000
111693.000000
112662.000000
113544.000000
114483.000000
115471.000000
116363.000000
117218.000000
118117.000000
119077.000000
119999.000000
120825.000000
121645.000000
122520.000000
123496.000000
124461.000000
125412.000000
126267.000000
127146.000000
128114.000000
129076.000000
130014.000000
130843.000000
131627.000000
132467.000000
133465.000000
134427.000000
135352.000000
136320.000000
137322.000000
138302.000000
139130.000000
139930.000000
140754.000000
141730.000000
142600.000000
143523.000000
144509.000000
145472.000000
146317.000000
147198.000000
148136.000000
149115.000000
150085.000000
150991.000000
151817.000000
152634.000000
153485.000000
154459.000000
155406.000000
156335.000000
157295.000000
158263.000000
159179.000000
159988.000000
160816.000000
161670.000000
162559.000000
163379.000000
164173.000000
165038.000000
165948.000000
166874.000000
167725.000000
168625.000000
169533.000000
170443.000000
171233.000000
172007.000000
172799.000000
173653.000000
174578.000000
175415.000000
176247.000000
177162.000000
178110.000000
179055.000000
179959.000000
180837.000000
181612.000000
182359.000000
183150.000000
184096.000000
185048.000000
185933.000000
186712.000000
187520.000000
188357.000000
189281.000000
190082.000000
190858.000000
191662.000000
192453.000000
193192.000000
193875.000000
194605.000000
195345.000000
196093.000000
197101.000000
198037.000000
198881.000000
199703.000000
200539.000000
201350.000000
202059.000000
202745.000000
203470.000000
204249.000000
205163.000000
206170.000000
207107.000000
208024.000000
208836.000000
209609.000000
210406.000000
211312.000000
212306.000000
213157.000000
213968.000000
214784.000000
215597.000000
216634.000000
217553.000000
218400.000000
219314.000000
220266.000000
221121.000000
221993.000000
222988.000000
223950.000000
224825.000000
225766.000000
226704.000000
227648.000000
228497.000000
229289.000000
230111.000000
231132.000000
232139.000000
233032.000000
233945.000000
234906.000000
235848.000000
236680.000000
237541.000000
238502.000000
239413.000000
240206.000000
241022.000000
241987.000000
243010.000000
243919.000000
244858.000000
245860.000000
246823.000000
247698.000000
248605.000000
249559.000000
250418.000000
251268.000000
252207.000000
253187.000000
254108.000000
255001.000000
255990.000000
256971.000000
257830.000000
258700.000000
259614.000000
260540.000000
261393.000000
262198.000000
263125.000000
264102.000000
265086.000000
266039.000000
267017.000000
267981.000000
268873.000000
269825.000000
270806.000000
271721.000000
272670.000000
273605.000000
274505.000000
275343.000000
276235.000000
277237.000000
278177.000000
279047.000000
279960.000000
280881.000000
281794.000000
282595.000000
283353.000000
284125.000000
285103.000000
286102.000000
287075.000000
287972.000000
288880.000000
289821.000000
290727.000000
291634.000000
292441.000000
293216.000000
293993.000000
295037.000000
295931.000000
296754.000000
297688.000000
298641.000000
299525.000000
300363.000000
301231.000000
302136.000000
302989.000000
303794.000000
304590.000000
305455.000000
306452.000000
307370.000000
308218.000000
309138.000000
310108.000000
311056.000000
311911.000000
312747.000000
313648.000000
314551.000000
315379.000000
316209.000000
317106.000000
318026.000000
318953.000000
319774.000000
320628.000000
321602.000000
322546.000000
323425.000000
324383.000000
325317.000000
326126.000000
326911.000000
327692.000000
328450.000000
329195.000000
330295.000000
331347.000000
332342.000000
333363.000000
334393.000000
335292.000000
336099.000000
336909.000000
337863.000000
338861.000000
339798.000000
340790.000000
341732.000000
342627.000000
343598.000000
344566.000000
345518.000000
346429.000000
347339.000000
348297.000000
349176.000000
349990.000000
350812.000000
351754.000000
352720.000000
353621.000000
354510.000000
355521.000000
356501.000000
357384.000000
358325.000000
359249.000000
360080.000000
360861.000000
361600.000000
362347.000000
363206.000000
364106.000000
364882.000000
365670.000000
366702.000000
367670.000000
368580.000000
369469.000000
370399.000000
371225.000000
372016.000000
372825.000000
373722.000000
374587.000000
375403.000000
376251.000000
377167.000000
378050.000000
378859.000000
379707.000000
380623.000000
381497.000000
382273.000000
383052.000000
383921.000000
384782.000000
385576.000000
386371.000000
387216.000000
388084.000000
388888.000000
389665.000000
390470.000000
391380.000000
392290.000000
393130.000000
393925.000000
394729.000000
395554.000000
396408.000000
397186.000000
397949.000000
398728.000000
399587.000000
400453.000000
401257.000000
402079.000000
402982.000000
403907.000000
404838.000000
405680.000000
406538.000000
407443.000000
408368.000000
409221.000000
410096.000000
411033.000000
411918.000000
412808.000000
413734.000000
414675.000000
415545.000000
416435.000000
417396.000000
418282.000000
419068.000000
419909.000000
420846.000000
421738.000000
422559.000000
423462.000000
424443.000000
425390.000000
426264.000000
427186.000000
428109.000000
428939.000000
429725.000000
430512.000000
431406.000000
432327.000000
433242.000000
434264.000000
435284.000000
436203.000000
437189.000000
438164.000000
439028.000000
439889.000000
440777.000000
441702.000000
442516.000000
443408.000000
444408.000000
445337.000000
446175.000000
447050.000000
447971.000000
448809.000000
449646.000000
450555.000000
451480.000000
452334.000000
453223.000000
454132.000000
455112.000000
455992.000000
456883.000000
457823.000000
458749.000000
459612.000000
460516.000000
461467.000000
462325.000000
463178.000000
464031.000000
464911.000000
465757.000000
466569.000000
467491.000000
468471.000000
469417.000000
470315.000000
471295.000000
472249.000000
473098.000000
473950.000000
474832.000000
475770.000000
476624.000000
477469.000000
478349.000000
479308.000000
480229.000000
481066.000000
482018.000000
483017.000000
484004.000000
484856.000000
485693.000000
486564.000000
487513.000000
488356.000000
489232.000000
490215.000000
491167.000000
492027.000000
492968.000000
493910.000000
494771.000000
495614.000000
496518.000000
497447.000000
498347.000000
499184.000000
500011.000000
500879.000000
501787.000000
502676.000000
503489.000000
504315.000000
505232.000000
506130.000000
506954.000000
507901.000000
508862.000000
509833.000000
510715.000000
511557.000000
512435.000000
513369.000000
514195.000000
514995.000000
515825.000000
516739.000000
517664.000000
518519.000000
519432.000000
520383.000000
521323.000000
522145.000000
522988.000000
523887.000000
524775.000000
525608.000000
526445.000000
527367.000000
528300.000000
529178.000000
529990.000000
530831.000000
531761.000000
532672.000000
533494.000000
534305.000000
535162.000000
536106.000000
536980.000000
537825.000000
538735.000000
539684.000000
540583.000000
541432.000000
542352.000000
543265.000000
544178.000000
544980.000000
545759.000000
546525.000000
547333.000000
548178.000000
548956.000000
549748.000000
550635.000000
551585.000000
552495.000000
553313.000000
554202.000000
555097.000000
555946.000000
556753.000000
557526.000000
558307.000000
559132.000000
559892.000000
560596.000000
561350.000000
562149.000000
562993.000000
563826.000000
564570.000000
565317.000000
566112.000000
566972.000000
567743.000000
568460.000000
569203.000000
569926.000000
570630.000000
571305.000000
571977.000000
572681.000000
573378.000000
574109.000000
574904.000000
575775.000000
576512.000000
577254.000000
578014.000000
578816.000000
579543.000000
580233.000000
580927.000000
581649.000000
582423.000000
583174.000000
583890.000000
584650.000000
585479.000000
586294.000000
587034.000000
587756.000000
588542.000000
589361.000000
590135.000000
590870.000000
591634.000000
592411.000000
593288.000000
594038.000000
594755.000000
595484.000000
596241.000000
597043.000000
597790.000000
598516.000000
599266.000000
600043.000000
600874.000000
601618.000000
602343.000000
603118.000000
603963.000000
604808.000000
605570.000000
606273.000000
606984.000000
607737.000000
608629.000000
609408.000000
610127.000000
610881.000000
611703.000000
612614.000000
613437.000000
614165.000000
614906.000000
615672.000000
616546.000000
617385.000000
618107.000000
618819.000000
619549.000000
620357.000000
621309.000000
622188.000000
622972.000000
623781.000000
624621.000000
625502.000000
626293.000000
627059.000000
627849.000000
628669.000000
629510.000000
630281.000000
631019.000000
631773.000000
632556.000000
633429.000000
634270.000000
635035.000000
635811.000000
636610.000000
637452.000000
638216.000000
638950.000000
639677.000000
640421.000000
641194.000000
641993.000000
642765.000000
643538.000000
644347.000000
645252.000000
646129.000000
646914.000000
647713.000000
648586.000000
649431.000000
650228.000000
650998.000000
651755.000000
652548.000000
653343.000000
654113.000000
654920.000000
655770.000000
656623.000000
657396.000000
658115.000000
658824.000000
659563.000000
660399.000000
661204.000000
661986.000000
662786.000000
663610.000000
664428.000000
665207.000000
665973.000000
666730.000000
667519.000000
668317.000000
669069.000000
669815.000000
670559.000000
671358.000000
672199.000000
672959.000000
673729.000000
674520.000000
675377.000000
676142.000000
676877.000000
677613.000000
678385.000000
679212.000000
680021.000000
680816.000000
681611.000000
682437.000000
683316.000000
684169.000000
684941.000000
685750.000000
686701.000000
687650.000000
688518.000000
689410.000000
690331.000000
691130.000000
691909.000000
692720.000000
693700.000000
694519.000000
695336.000000
696405.000000
697413.000000
698293.000000
699218.000000
700207.000000
701077.000000
701972.000000
702955.000000
703919.000000
704784.000000
705715.000000
706739.000000
707708.000000
708632.000000
709542.000000
710501.000000
711506.000000
712445.000000
713457.000000
714510.000000
715477.000000
716438.000000
717376.000000
718276.000000
719123.000000
720000.000000
720960.000000
721879.000000
722755.000000
723707.000000
724645.000000
725485.000000
726284.000000
727095.000000
727963.000000
728910.000000
729752.000000
730546.000000
731309.000000
732052.000000
732743.000000
733421.000000
734199.000000
735074.000000
735892.000000
736650.000000
737404.000000
738265.000000
739138.000000
739924.000000
740720.000000
741567.000000
742448.000000
743286.000000
744144.000000
744996.000000
745891.000000
746717.000000
747504.000000
748292.000000
749205.000000
750078.000000
750891.000000
751742.000000
752669.000000
753569.000000
754378.000000
755217.000000
756164.000000
757138.000000
758032.000000
758926.000000
759915.000000
760803.000000
761700.000000
762650.000000
763617.000000
764506.000000
765458.000000
766422.000000
767324.000000
768206.000000
769113.000000
770040.000000
770882.000000
771758.000000
772700.000000
773586.000000
774415.000000
775281.000000
776202.000000
777158.000000
778060.000000
778970.000000
779881.000000
780767.000000
781597.000000
782509.000000
783443.000000
784376.000000
785277.000000
786247.000000
787160.000000
787945.000000
788685.000000
789415.000000
790280.000000
791231.000000
792124.000000
793083.000000
794047.000000
794931.000000
795818.000000
796713.000000
797633.000000
798457.000000
799247.000000
800048.000000
800908.000000
801851.000000
802707.000000
803573.000000
804511.000000
805469.000000
806358.000000
807222.000000
808091.000000
808997.000000
809847.000000
810694.000000
811610.000000
812477.000000
813335.000000
814224.000000
815182.000000
816091.000000
816927.000000
817753.000000
818630.000000
819569.000000
820463.000000
821315.000000
822196.000000
823107.000000
824020.000000
824888.000000
825714.000000
826573.000000
827501.000000
828416.000000
829289.000000
830226.000000
831140.000000
832065.000000
832893.000000
833711.000000
834529.000000
835395.000000
836285.000000
837274.000000
838281.000000
839213.000000
840089.000000
841056.000000
842020.000000
842930.000000
843770.000000
844621.000000
845524.000000
846410.000000
847248.000000
848129.000000
849087.000000
849948.000000
850781.000000
851644.000000
852562.000000
853497.000000
854343.000000
855208.000000
856109.000000
856987.000000
857755.000000
858444.000000
859103.000000
859787.000000
860860.000000
861876.000000
862867.000000
863881.000000
864892.000000
865883.000000
866820.000000
867686.000000
868558.000000
869439.000000
870361.000000
871264.000000
872168.000000
873079.000000
873963.000000
874753.000000
875527.000000
876330.000000
877274.000000
878131.000000
879006.000000
879981.000000
880898.000000
881744.000000
882558.000000
883419.000000
884405.000000
885271.000000
886075.000000
886867.000000
887737.000000
888666.000000
889585.000000
890565.000000
891531.000000
892409.000000
893302.000000
894249.000000
895216.000000
896094.000000
896982.000000
897885.000000
898793.000000
899705.000000
900556.000000
901446.000000
902383.000000
903273.000000
904181.000000
905109.000000
906052.000000
906932.000000
907847.000000
908815.000000
909702.000000
910529.000000
911390.000000
912353.000000
913298.000000
914278.000000
915257.000000
916194.000000
917108.000000
918040.000000
918957.000000
919834.000000
920805.000000
921814.000000
922802.000000
923755.000000
924749.000000
925788.000000
926730.000000
927557.000000
928356.000000
929265.000000
930361.000000
931259.000000
932207.000000
933232.000000
934240.000000
935139.000000
936081.000000
937097.000000
937984.000000
938876.000000
939806.000000
940728.000000
941667.000000
942682.000000
943648.000000
944563.000000
945479.000000
946429.000000
947341.000000
948277.000000
949255.000000
950237.000000
951159.000000
952027.000000
952905.000000
953763.000000
954570.000000
955452.000000
956492.000000
957488.000000
958353.000000
959177.000000
960023.000000
960933.000000
961781.000000
962663.000000
963579.000000
964449.000000
965273.000000
966077.000000
966899.000000
967774.000000
968633.000000
969497.000000
970368.000000
971180.000000
971966.000000
972745.000000
973514.000000
974260.000000
975019.000000
975834.000000
976679.000000
977481.000000
978294.000000
979129.000000
979998.000000
980827.000000
981694.000000
982601.000000
983510.000000
984349.000000
985187.000000
986040.000000
986911.000000
987721.000000
988513.000000
989409.000000
990308.000000
991181.000000
992036.000000
992898.000000
993730.000000
994514.000000
995303.000000
996162.000000
997094.000000
997928.000000
998824.000000
999734.000000
1000541.000000
1001273.000000
1001984.000000
1002799.000000
1003804.000000
1004741.000000
1005742.000000
1006738.000000
1007684.000000
1008692.000000
1009678.000000
1010628.000000
1011547.000000
1012514.000000
1013544.000000
1014541.000000
1015534.000000
1016530.000000
1017448.000000
1018272.000000
1019072.000000
1020233.000000
1021296.000000
1022293.000000
1023364.000000
1024401.000000
1025311.000000
1026360.000000
1027439.000000
1028463.000000
1029440.000000
1030483.000000
1031466.000000
1032347.000000
1033151.000000
1034006.000000
1035103.000000
1036150.000000
1037166.000000
1038248.000000
1039349.000000
1040372.000000
1041404.000000
1042447.000000
1043352.000000
1044123.000000
1044838.000000
1045567.000000
1046762.000000
1047820.000000
1048892.000000
1050011.000000
1051150.000000
1052211.000000
1053331.000000
1054318.000000
1055126.000000
1055870.000000
1056608.000000
1057420.000000
1058251.000000
1059171.000000
1060157.000000
1061105.000000
1061975.000000
1062863.000000
1063647.000000
1064460.000000
1065359.000000
1066372.000000
1067363.000000
1068279.000000
1069280.000000
1070235.000000
1071107.000000
1071960.000000
1072825.000000
1073673.000000
1074510.000000
1075363.000000
1076246.000000
1077079.000000
1077909.000000
1078747.000000
1079620.000000
1080507.000000
1081439.000000
1082335.000000
1083217.000000
1084110.000000
1085037.000000
1085933.000000
1086863.000000
1087778.000000
1088674.000000
1089530.000000
1090370.000000
1091222.000000
1092074.000000
1093015.000000
1094008.000000
1094973.000000
1095823.000000
1096634.000000
1097470.000000
1098347.000000
1099228.000000
1100188.000000
1101196.000000
1102224.000000
1103208.000000
1104155.000000
1105013.000000
1105765.000000
1106499.000000
1107633.000000
1108644.000000
1109651.000000
1110679.000000
1111697.000000
1112672.000000
1113771.000000
1114858.000000
1115901.000000
1116913.000000
1117922.000000
1118939.000000
1119910.000000
1120868.000000
1121995.000000
1123100.000000
1124151.000000
1125156.000000
1126252.000000
1127296.000000
1128297.000000
1129237.000000
1130280.000000
1131384.000000
1132392.000000
1133309.000000
1134301.000000
1135390.000000
1136430.000000
1137476.000000
1138602.000000
1139716.000000
1140724.000000
1141747.000000
1142912.000000
1143931.000000
1144899.000000
1146003.000000
1147113.000000
1148119.000000
1148993.000000
1150254.000000
1151437.000000
1152489.000000
1153447.000000
1154585.000000
1155666.000000
1156690.000000
1157663.000000
1158666.000000
1159533.000000
1160311.000000
1161116.000000
1162171.000000
1163241.000000
1164212.000000
1165339.000000
1166510.000000
1167571.000000
1168629.000000
1169640.000000
1170588.000000
1171477.000000
1172334.000000
1173298.000000
1174262.000000
1175168.000000
1176153.000000
1177116.000000
1178088.000000
1178949.000000
1179776.000000
1180677.000000
1181640.000000
1182570.000000
1183589.000000
1184612.000000
1185611.000000
1186586.000000
1187624.000000
1188682.000000
1189691.000000
1190644.000000
1191535.000000
1192439.000000
1193341.000000
1194125.000000
1194936.000000
1195998.000000
1197026.000000
1198012.000000
1199016.000000
1199976.000000
1200899.000000
1201843.000000
1202778.000000
1203668.000000
1204536.000000
1205491.000000
1206428.000000
1207369.000000
1208377.000000
1209404.000000
1210396.000000
1211300.000000
1212286.000000
1213317.000000
1214276.000000
1215196.000000
1216264.000000
1217270.000000
1218228.000000
1219165.000000
1220294.000000
1221361.000000
1222313.000000
1223330.000000
1224377.000000
1225354.000000
1226338.000000
1227416.000000
1228328.000000
1229155.000000
1229969.000000
1230825.000000
1231702.000000
1232569.000000
1233564.000000
1234525.000000
1235403.000000
1236376.000000
1237410.000000
1238314.000000
1239260.000000
1240308.000000
1241330.000000
1242240.000000
1243212.000000
1244165.000000
1245106.000000
1246055.000000
1247023.000000
1247979.000000
1249017.000000
1250076.000000
1251085.000000
1252002.000000
1252858.000000
1253707.000000
1254569.000000
1255380.000000
1256230.000000
1257172.000000
1258088.000000
1259006.000000
1260010.000000
1261016.000000
1262015.000000
1262959.000000
1263976.000000
1264986.000000
1265949.000000
1266858.000000
1267809.000000
1268823.000000
1269775.000000
1270700.000000
1271718.000000
1272783.000000
1273786.000000
1274750.000000
1275739.000000
1276661.000000
1277482.000000
1278245.000000
1279036.000000
1280149.000000
1281139.000000
1282184.000000
1283242.000000
1284195.000000
1285057.000000
1285924.000000
1286948.000000
1287934.000000
1288883.000000
1289952.000000
1290994.000000
1292047.000000
1293114.000000
1294169.000000
1295179.000000
1296155.000000
1297172.000000
1298279.000000
1299308.000000
1300176.000000
1300941.000000
1301684.000000
1302446.000000
1303463.000000
1304353.000000
1305222.000000
1306259.000000
1307113.000000
1307913.000000
1308781.000000
1309747.000000
1310627.000000
1311590.000000
1312563.000000
1313423.000000
1314309.000000
1315292.000000
1316183.000000
1317031.000000
1317893.000000
1318739.000000
1319542.000000
1320323.000000
1321124.000000
1322030.000000
1322923.000000
1323855.000000
1324826.000000
1325753.000000
1326681.000000
1327619.000000
1328526.000000
1329390.000000
1330262.000000
1331205.000000
1332142.000000
1333075.000000
1334033.000000
1334968.000000
1335824.000000
1336664.000000
1337586.000000
1338486.000000
1339363.000000
1340380.000000
1341415.000000
1342464.000000
1343508.000000
1344576.000000
1345508.000000
1346329.000000
1347113.000000
1347930.000000
1349044.000000
1350033.000000
1351115.000000
1352239.000000
1353246.000000
1354266.000000
1355255.000000
1356220.000000
1357201.000000
1358239.000000
1359186.000000
1360129.000000
1361119.000000
1362070.000000
1362986.000000
1363998.000000
1365013.000000
1366012.000000
1366944.000000
1367977.000000
1369044.000000
1370075.000000
1371054.000000
1372071.000000
1373099.000000
1374095.000000
1375031.000000
1375979.000000
1377038.000000
1378134.000000
1379136.000000
1380098.000000
1381212.000000
1382312.000000
1383271.000000
1384218.000000
1385310.000000
1386388.000000
1387331.000000
1388253.000000
1389288.000000
1390399.000000
1391401.000000
1392436.000000
1393539.000000
1394402.000000
1395184.000000
1396104.000000
1397172.000000
1398174.000000
1399088.000000
1400135.000000
1401159.000000
1402186.000000
1403370.000000
1404372.000000
1405340.000000
1406406.000000
1407373.000000
1408257.000000
1409190.000000
1410207.000000
1411190.000000
1412156.000000
1413231.000000
1414327.000000
1415297.000000
1416133.000000
1416931.000000
1417825.000000
1418953.000000
1420017.000000
1421062.000000
1422191.000000
1423308.000000
1424267.000000
1425172.000000
1426085.000000
1427029.000000
1427949.000000
1428918.000000
1430031.000000
1430971.000000
1431895.000000
1432913.000000
1433986.000000
1435014.000000
1436000.000000
1437074.000000
1438195.000000
1439246.000000
1440268.000000
1441363.000000
1442377.000000
1443340.000000
1444192.000000
1444969.000000
1445725.000000
1446587.000000
1447411.000000
1448528.000000
1449618.000000
1450653.000000
1451786.000000
1452928.000000
1453979.000000
1454941.000000
1455945.000000
1457016.000000
1457972.000000
1458882.000000
1459783.000000
1460809.000000
1461795.000000
1462737.000000
1463662.000000
1464590.000000
1465463.000000
1466314.000000
1467267.000000
1468268.000000
1469218.000000
1470117.000000
1471135.000000
1472148.000000
1473101.000000
1474160.000000
1475084.000000
1475862.000000
1476584.000000
1477395.000000
1478526.000000
1479551.000000
1480699.000000
1481870.000000
1482970.000000
1484140.000000
1485296.000000
1486334.000000
1487349.000000
1488277.000000
1489112.000000
1490019.000000
1491155.000000
1492267.000000
1493325.000000
1494433.000000
1495571.000000
1496681.000000
1497694.000000
1498764.000000
1499827.000000
1500867.000000
1501699.000000
1502423.000000
1503115.000000
1503925.000000
1504716.000000
1505695.000000
1506667.000000
1507602.000000
1508548.000000
1509580.000000
1510566.000000
1511590.000000
1512546.000000
1513414.000000
1514305.000000
1515273.000000
1516307.000000
1517288.000000
1518314.000000
1519371.000000
1520350.000000
1521201.000000
1522024.000000
1522909.000000
1523892.000000
1524862.000000
1525862.000000
1526848.000000
1527806.000000
1528816.000000
1529854.000000
1530856.000000
1531821.000000
1532857.000000
1533760.000000
1534569.000000
1535391.000000
1536359.000000
1537378.000000
1538356.000000
1539367.000000
1540401.000000
1541427.000000
1542438.000000
1543493.000000
1544530.000000
1545412.000000
1546215.000000
1547011.000000
1547878.000000
1548792.000000
1549755.000000
1550781.000000
1551790.000000
1552784.000000
1553748.000000
1554693.000000
1555581.000000
1556511.000000
1557451.000000
1558379.000000
1559286.000000
1560239.000000
1561209.000000
1562145.000000
1563114.000000
1564118.000000
1565066.000000
1566012.000000
1567015.000000
1567973.000000
1568884.000000
1569755.000000
1570663.000000
1571629.000000
1572595.000000
1573628.000000
1574663.000000
1575670.000000
1576702.000000
1577631.000000
1578556.000000
1579376.000000
1580207.000000
1581131.000000
1582062.000000
1583000.000000
1584140.000000
1585292.000000
1586279.000000
1587149.000000
1588049.000000
1588990.000000
1589844.000000
1590842.000000
1591737.000000
1592611.000000
1593447.000000
1594400.000000
1595376.000000
1596333.000000
1597391.000000
1598410.000000
1599350.000000
1600257.000000
1601131.000000
1601950.000000
1602743.000000
1603609.000000
1604561.000000
1605510.000000
1606440.000000
1607416.000000
1608406.000000
1609338.000000
1610143.000000
1610941.000000
1611724.000000
1612534.000000
1613394.000000
1614318.000000
1615235.000000
1616135.000000
1616966.000000
1617805.000000
1618711.000000
1619566.000000
1620428.000000
1621344.000000
1622209.000000
1623054.000000
1623830.000000
1624575.000000
1625327.000000
1626091.000000
1626822.000000
1627581.000000
1628359.000000
1629188.000000
1629957.000000
1630742.000000
1631559.000000
1632444.000000
1633257.000000
1634131.000000
1635076.000000
1636064.000000
1636860.000000
1637601.000000
1638285.000000
1638947.000000
1639596.000000
1640290.000000
1641259.000000
1642182.000000
1643077.000000
1643996.000000
1644932.000000
1645869.000000
1646724.000000
1647513.000000
1648331.000000
1649224.000000
1650098.000000
1650911.000000
1651706.000000
1652523.000000
1653409.000000
1654238.000000
1654991.000000
1655688.000000
1656376.000000
1657113.000000
1657885.000000
1658761.000000
1659622.000000
1660386.000000
1661160.000000
1661898.000000
1662651.000000
1663358.000000
1664023.000000
1664694.000000
1665400.000000
1666182.000000
1667028.000000
1667782.000000
1668509.000000
1669259.000000
1670065.000000
1670943.000000
1671732.000000
1672458.000000
1673214.000000
1673999.000000
1674832.000000
1675608.000000
1676323.000000
1677034.000000
1677756.000000
1678530.000000
1679341.000000
1680100.000000
1680840.000000
1681634.000000
1682627.000000
1683494.000000
1684268.000000
1684952.000000
1685604.000000
1686276.000000
1687044.000000
1688010.000000
1688940.000000
1689874.000000
1690805.000000
1691631.000000
1692448.000000
1693291.000000
1694200.000000
1695134.000000
1695963.000000
1696826.000000
1697723.000000
1698587.000000
1699368.000000
1700099.000000
1700870.000000
1701721.000000
1702521.000000
1703350.000000
1704368.000000
1705340.000000
1706229.000000
1707079.000000
1707916.000000
1708763.000000
1709581.000000
1710383.000000
1711258.000000
1712215.000000
1713080.000000
1713978.000000
1714931.000000
1715829.000000
1716660.000000
1717470.000000
1718317.000000
1719185.000000
1720016.000000
1720860.000000
1721831.000000
1722744.000000
1723606.000000
1724483.000000
1725383.000000
1726262.000000
1727074.000000
1727869.000000
1728711.000000
1729617.000000
1730487.000000
1731391.000000
1732363.000000
1733304.000000
1734177.000000
1735065.000000
1735960.000000
1736822.000000
1737633.000000
1738478.000000
1739378.000000
1740238.000000
1741100.000000
1742039.000000
1742989.000000
1743872.000000
1744729.000000
1745582.000000
1746392.000000
1747151.000000
1747910.000000
1748784.000000
1749828.000000
1750750.000000
1751679.000000
1752564.000000
1753399.000000
1754211.000000
1755001.000000
1755741.000000
1756472.000000
1757172.000000
1757891.000000
1758727.000000
1759512.000000
1760254.000000
1760947.000000
1761663.000000
1762393.000000
1763108.000000
1763850.000000
1764693.000000
1765464.000000
1766175.000000
1766880.000000
1767604.000000
1768346.000000
1769055.000000
1769765.000000
1770505.000000
1771374.000000
1772216.000000
1773002.000000
1773955.000000
1774922.000000
1775748.000000
1776552.000000
1777318.000000
1778058.000000
1778765.000000
1779480.000000
1780243.000000
1781269.000000
1782256.000000
1783178.000000
1784166.000000
1785160.000000
1786062.000000
1786918.000000
1787760.000000
1788616.000000
1789418.000000
1790200.000000
1790998.000000
1791890.000000
1792859.000000
1793739.000000
1794598.000000
1795443.000000
1796273.000000
1797060.000000
1797879.000000
1798765.000000
1799654.000000
1800479.000000
1801328.000000
1802208.000000
1803057.000000
1803880.000000
1804729.000000
1805637.000000
1806488.000000
1807259.000000
1808007.000000
1808797.000000
1809675.000000
1810610.000000
1811436.000000
1812285.000000
1813142.000000
1814009.000000
1814830.000000
1815654.000000
1816508.000000
1817340.000000
1818126.000000
1818873.000000
1819644.000000
1820500.000000
1821336.000000
1822140.000000
1823000.000000
1823880.000000
1824739.000000
1825543.000000
1826313.000000
1827063.000000
1827840.000000
1828653.000000
1829423.000000
1830167.000000
1830931.000000
1831762.000000
1832612.000000
1833409.000000
1834191.000000
1834975.000000
1835799.000000
1836587.000000
1837342.000000
1838085.000000
1838853.000000
1839683.000000
1840480.000000
1841273.000000
1842054.000000
