ECG (ms)
45.000000
643.000000
1233.000000
1810.000000
2378.000000
2942.000000
3509.000000
4082.000000
4669.000000
5261.000000
5854.000000
6450.000000
7054.000000
7668.000000
8290.000000
8905.000000
9515.000000
10130.000000
10749.000000
11371.000000
11983.000000
12595.000000
13206.000000
13822.000000
14444.000000
15067.000000
15678.000000
16289.000000
16901.000000
17516.000000
18127.000000
18732.000000
19333.000000
19933.000000
20536.000000
21138.000000
21735.000000
22333.000000
22935.000000
23552.000000
24177.000000
24806.000000
25426.000000
26041.000000
26660.000000
27281.000000
27904.000000
28520.000000
29126.000000
29734.000000
30347.000000
30970.000000
31598.000000
32217.000000
32831.000000
33453.000000
34081.000000
34712.000000
35337.000000
35955.000000
36573.000000
37191.000000
37813.000000
38430.000000
39044.000000
39665.000000
40290.000000
40929.000000
41563.000000
42189.000000
42818.000000
43447.000000
44078.000000
44700.000000
45316.000000
45927.000000
46542.000000
47160.000000
47780.000000
48402.000000
49028.000000
49668.000000
50317.000000
50967.000000
51597.000000
52205.000000
52803.000000
53403.000000
54010.000000
54626.000000
55258.000000
55906.000000
56565.000000
57218.000000
57855.000000
58488.000000
59122.000000
59761.000000
60403.000000
61052.000000
61698.000000
62337.000000
62987.000000
63646.000000
64313.000000
64990.000000
65657.000000
66309.000000
66961.000000
67613.000000
68275.000000
68928.000000
69571.000000
70202.000000
70832.000000
71467.000000
72109.000000
72754.000000
73391.000000
74029.000000
74671.000000
75315.000000
75949.000000
76576.000000
77199.000000
77820.000000
78440.000000
79059.000000
79669.000000
80273.000000
80880.000000
81493.000000
82111.000000
82745.000000
83374.000000
83997.000000
84620.000000
85248.000000
85883.000000
86517.000000
87147.000000
87782.000000
88420.000000
89057.000000
89696.000000
90342.000000
90989.000000
91635.000000
92269.000000
92900.000000
93541.000000
94191.000000
94844.000000
95492.000000
96126.000000
96755.000000
97382.000000
98008.000000
98634.000000
99267.000000
99905.000000
100556.000000
101215.000000
101886.000000
102544.000000
103199.000000
103856.000000
104517.000000
105170.000000
105816.000000
106457.000000
107094.000000
107731.000000
108364.000000
108988.000000
109613.000000
110250.000000
110896.000000
111545.000000
112184.000000
112820.000000
113452.000000
114076.000000
114683.000000
115280.000000
115872.000000
116471.000000
117072.000000
117672.000000
118281.000000
118880.000000
119480.000000
120088.000000
120709.000000
121337.000000
121961.000000
122581.000000
123204.000000
123830.000000
124454.000000
125078.000000
125689.000000
126299.000000
126912.000000
127538.000000
128165.000000
128784.000000
129399.000000
130020.000000
130652.000000
131286.000000
131912.000000
132533.000000
133149.000000
133772.000000
134404.000000
135043.000000
135684.000000
136312.000000
136935.000000
137561.000000
138192.000000
138819.000000
139445.000000
140061.000000
140673.000000
141289.000000
141903.000000
142515.000000
143119.000000
143725.000000
144333.000000
144945.000000
145562.000000
146170.000000
146778.000000
147391.000000
148008.000000
148630.000000
149247.000000
149861.000000
150480.000000
151103.000000
151730.000000
152358.000000
152978.000000
153595.000000
154215.000000
154837.000000
155464.000000
156086.000000
156701.000000
157320.000000
157949.000000
158591.000000
159226.000000
159859.000000
160489.000000
161120.000000
161746.000000
162355.000000
162957.000000
163558.000000
164162.000000
164767.000000
165383.000000
166002.000000
166634.000000
167274.000000
167924.000000
168568.000000
169205.000000
169843.000000
170484.000000
171128.000000
171775.000000
172418.000000
173058.000000
173707.000000
174368.000000
175032.000000
175689.000000
176332.000000
176973.000000
177614.000000
178263.000000
178915.000000
179567.000000
180208.000000
180843.000000
181477.000000
182119.000000
182769.000000
183430.000000
184098.000000
184761.000000
185423.000000
186087.000000
186750.000000
187420.000000
188081.000000
188734.000000
189378.000000
190019.000000
190661.000000
191311.000000
191973.000000
192640.000000
193292.000000
193937.000000
194580.000000
195228.000000
195873.000000
196511.000000
197134.000000
197755.000000
198379.000000
199014.000000
199660.000000
200295.000000
200924.000000
201556.000000
202190.000000
202824.000000
203445.000000
204059.000000
204671.000000
205282.000000
205901.000000
206517.000000
207132.000000
207747.000000
208360.000000
208968.000000
209563.000000
210147.000000
210727.000000
211314.000000
211914.000000
212534.000000
213175.000000
213799.000000
214419.000000
215047.000000
215683.000000
216328.000000
216991.000000
217650.000000
218289.000000
218922.000000
219561.000000
220206.000000
220855.000000
221506.000000
222147.000000
222802.000000
223459.000000
224121.000000
224788.000000
225436.000000
226073.000000
226707.000000
227341.000000
227972.000000
228597.000000
229213.000000
229830.000000
230461.000000
231108.000000
231755.000000
232391.000000
233023.000000
233667.000000
234317.000000
234950.000000
235566.000000
236177.000000
236787.000000
237395.000000
238001.000000
238608.000000
239217.000000
239837.000000
240464.000000
241098.000000
241725.000000
242357.000000
242993.000000
243645.000000
244312.000000
244970.000000
245622.000000
246264.000000
246909.000000
247557.000000
248227.000000
248892.000000
249551.000000
250213.000000
250882.000000
251550.000000
252227.000000
252908.000000
253576.000000
254248.000000
254915.000000
255570.000000
256217.000000
256871.000000
257526.000000
258195.000000
258868.000000
259545.000000
260221.000000
260883.000000
261537.000000
262195.000000
262873.000000
263548.000000
264203.000000
264856.000000
265518.000000
266191.000000
266856.000000
267505.000000
268150.000000
268792.000000
269435.000000
270069.000000
270693.000000
271316.000000
271946.000000
272578.000000
273216.000000
273843.000000
274468.000000
275095.000000
275720.000000
276328.000000
276923.000000
277512.000000
278108.000000
278711.000000
279326.000000
279950.000000
280572.000000
281186.000000
281801.000000
282417.000000
283041.000000
283663.000000
284279.000000
284891.000000
285512.000000
286140.000000
286780.000000
287421.000000
288056.000000
288700.000000
289359.000000
290022.000000
290680.000000
291321.000000
291959.000000
292607.000000
293264.000000
293933.000000
294607.000000
295268.000000
295938.000000
296618.000000
297301.000000
297980.000000
298643.000000
299297.000000
299958.000000
300629.000000
301308.000000
301984.000000
302643.000000
303288.000000
303934.000000
304581.000000
305224.000000
305851.000000
306478.000000
307118.000000
307771.000000
308441.000000
309113.000000
309765.000000
310409.000000
311054.000000
311698.000000
312351.000000
313013.000000
313670.000000
314318.000000
314965.000000
315623.000000
316291.000000
316960.000000
317615.000000
318266.000000
318919.000000
319574.000000
320227.000000
320868.000000
321502.000000
322141.000000
322788.000000
323445.000000
324102.000000
324754.000000
325411.000000
326076.000000
326748.000000
327418.000000
328068.000000
328719.000000
329374.000000
330030.000000
330685.000000
331333.000000
331968.000000
332604.000000
333253.000000
333910.000000
334567.000000
335209.000000
335857.000000
336511.000000
337177.000000
337835.000000
338481.000000
339124.000000
339768.000000
340419.000000
341065.000000
341700.000000
342335.000000
342975.000000
343623.000000
344268.000000
344904.000000
345536.000000
346174.000000
346817.000000
347453.000000
348084.000000
348710.000000
349340.000000
349964.000000
350580.000000
351189.000000
351804.000000
352418.000000
353025.000000
353626.000000
354230.000000
354836.000000
355443.000000
356046.000000
356643.000000
357241.000000
357836.000000
358421.000000
359001.000000
359582.000000
360161.000000
360745.000000
361343.000000
361956.000000
362573.000000
363192.000000
363810.000000
364445.000000
365090.000000
365749.000000
366408.000000
367050.000000
367688.000000
368332.000000
368986.000000
369651.000000
370318.000000
370977.000000
371627.000000
372279.000000
372937.000000
373605.000000
374281.000000
374948.000000
375604.000000
376264.000000
376925.000000
377586.000000
378232.000000
378870.000000
379502.000000
380146.000000
380807.000000
381480.000000
382170.000000
382861.000000
383537.000000
384195.000000
384852.000000
385514.000000
386177.000000
386837.000000
387478.000000
388114.000000
388749.000000
389383.000000
390011.000000
390636.000000
391274.000000
391923.000000
392574.000000
393218.000000
393860.000000
394499.000000
395121.000000
395727.000000
396333.000000
396947.000000
397561.000000
398168.000000
398781.000000
399402.000000
400038.000000
400684.000000
401329.000000
401963.000000
402604.000000
403248.000000
403891.000000
404530.000000
405154.000000
405777.000000
406403.000000
407028.000000
407650.000000
408260.000000
408876.000000
409498.000000
410129.000000
410754.000000
411371.000000
411993.000000
412625.000000
413264.000000
413906.000000
414543.000000
415168.000000
415790.000000
416409.000000
417025.000000
417635.000000
418243.000000
418859.000000
419488.000000
420131.000000
420778.000000
421417.000000
422052.000000
422688.000000
423328.000000
423959.000000
424580.000000
425198.000000
425819.000000
426442.000000
427057.000000
427662.000000
428262.000000
428864.000000
429471.000000
430087.000000
430698.000000
431306.000000
431918.000000
432538.000000
433161.000000
433775.000000
434377.000000
434984.000000
435595.000000
436213.000000
436828.000000
437436.000000
438046.000000
438658.000000
439275.000000
439881.000000
440479.000000
441079.000000
441684.000000
442291.000000
442892.000000
443493.000000
444097.000000
444710.000000
445325.000000
445932.000000
446537.000000
447149.000000
447768.000000
448392.000000
449011.000000
449624.000000
450242.000000
450865.000000
451490.000000
452116.000000
452736.000000
453360.000000
453990.000000
454630.000000
455268.000000
455906.000000
456553.000000
457211.000000
457869.000000
458523.000000
459161.000000
459787.000000
460412.000000
461037.000000
461665.000000
462285.000000
462899.000000
463515.000000
464139.000000
464774.000000
465422.000000
466077.000000
466722.000000
467357.000000
467994.000000
468631.000000
469270.000000
469908.000000
470539.000000
471178.000000
471827.000000
472486.000000
473133.000000
473771.000000
474399.000000
475033.000000
475669.000000
476305.000000
476948.000000
477588.000000
478231.000000
478884.000000
479548.000000
480206.000000
480851.000000
481489.000000
482129.000000
482753.000000
483358.000000
483956.000000
484551.000000
485144.000000
485751.000000
486361.000000
486985.000000
487608.000000
488224.000000
488846.000000
489475.000000
490114.000000
490762.000000
491399.000000
492024.000000
492647.000000
493272.000000
493901.000000
494529.000000
495148.000000
495769.000000
496402.000000
497058.000000
497731.000000
498393.000000
499040.000000
499688.000000
500345.000000
501006.000000
501657.000000
502288.000000
502910.000000
503533.000000
504167.000000
504799.000000
505421.000000
506039.000000
506668.000000
507321.000000
507999.000000
508675.000000
509333.000000
509983.000000
510641.000000
511297.000000
511954.000000
512599.000000
513232.000000
513870.000000
514511.000000
515155.000000
515794.000000
516427.000000
517059.000000
517703.000000
518357.000000
519019.000000
519676.000000
520327.000000
520979.000000
521637.000000
522298.000000
522950.000000
523593.000000
524240.000000
524890.000000
525545.000000
526209.000000
526853.000000
527490.000000
528131.000000
528781.000000
529443.000000
530111.000000
530765.000000
531414.000000
532058.000000
532700.000000
533344.000000
533986.000000
534621.000000
535252.000000
535887.000000
536527.000000
537172.000000
537826.000000
538477.000000
539119.000000
539760.000000
540401.000000
541046.000000
541700.000000
542349.000000
542975.000000
543583.000000
544183.000000
544790.000000
545409.000000
546041.000000
546692.000000
547354.000000
548014.000000
548668.000000
549345.000000
550040.000000
550735.000000
551429.000000
552103.000000
552780.000000
553477.000000
554185.000000
554878.000000
555560.000000
556234.000000
556916.000000
557617.000000
558325.000000
559017.000000
559689.000000
560368.000000
561051.000000
561742.000000
562419.000000
563090.000000
563770.000000
564466.000000
565181.000000
565901.000000
566603.000000
567289.000000
567971.000000
568656.000000
569341.000000
570024.000000
570695.000000
571354.000000
572018.000000
572693.000000
573374.000000
574057.000000
574725.000000
575380.000000
576044.000000
576715.000000
577399.000000
578077.000000
578740.000000
579398.000000
580052.000000
580702.000000
581351.000000
581984.000000
582609.000000
583236.000000
583868.000000
584504.000000
585129.000000
585746.000000
586375.000000
587012.000000
587655.000000
588292.000000
588921.000000
589558.000000
590200.000000
590847.000000
591492.000000
592124.000000
592752.000000
593385.000000
594023.000000
594661.000000
595292.000000
595914.000000
596542.000000
597172.000000
597807.000000
598456.000000
599097.000000
599735.000000
600383.000000
601032.000000
601683.000000
602322.000000
602958.000000
603593.000000
604236.000000
604883.000000
605532.000000
606175.000000
606806.000000
607430.000000
608056.000000
608686.000000
609316.000000
609945.000000
610566.000000
611189.000000
611816.000000
612452.000000
613090.000000
613724.000000
614347.000000
614965.000000
615584.000000
616197.000000
616796.000000
617391.000000
618001.000000
618631.000000
619275.000000
619908.000000
620539.000000
621168.000000
621807.000000
622460.000000
623114.000000
623754.000000
624386.000000
625012.000000
625640.000000
626280.000000
626939.000000
627593.000000
628242.000000
628899.000000
629566.000000
630242.000000
630930.000000
631596.000000
632248.000000
632895.000000
633540.000000
634183.000000
634815.000000
635438.000000
636068.000000
636708.000000
637361.000000
638016.000000
638661.000000
639298.000000
639942.000000
640591.000000
641241.000000
641881.000000
642511.000000
643144.000000
643783.000000
644420.000000
645048.000000
645674.000000
646309.000000
646951.000000
647599.000000
648251.000000
648893.000000
649532.000000
650178.000000
650833.000000
651488.000000
652134.000000
652777.000000
653430.000000
654097.000000
654768.000000
655423.000000
656080.000000
656743.000000
657414.000000
658092.000000
658752.000000
659410.000000
660067.000000
660729.000000
661380.000000
662023.000000
662664.000000
663319.000000
663991.000000
664666.000000
665335.000000
666008.000000
666694.000000
667381.000000
668065.000000
668722.000000
669365.000000
670007.000000
670652.000000
671302.000000
671940.000000
672575.000000
673215.000000
673870.000000
674545.000000
675217.000000
675875.000000
676524.000000
677177.000000
677845.000000
678514.000000
679172.000000
679816.000000
680457.000000
681105.000000
681754.000000
682414.000000
683066.000000
683708.000000
684356.000000
685021.000000
685693.000000
686367.000000
687025.000000
687678.000000
688328.000000
688963.000000
689580.000000
690189.000000
690802.000000
691427.000000
692073.000000
692738.000000
693410.000000
694073.000000
694722.000000
695379.000000
696037.000000
696692.000000
697343.000000
697983.000000
698624.000000
699287.000000
699961.000000
700645.000000
701302.000000
701955.000000
702612.000000
703278.000000
703953.000000
704625.000000
705285.000000
705943.000000
706612.000000
707293.000000
707975.000000
708645.000000
709300.000000
709966.000000
710636.000000
711306.000000
711965.000000
712610.000000
713259.000000
713921.000000
714584.000000
715243.000000
715890.000000
716534.000000
717196.000000
717872.000000
718544.000000
719204.000000
719855.000000
720506.000000
721160.000000
721817.000000
722464.000000
723099.000000
723730.000000
724366.000000
725009.000000
725655.000000
726288.000000
726921.000000
727561.000000
728205.000000
728857.000000
729501.000000
730141.000000
730775.000000
731412.000000
732053.000000
732699.000000
733334.000000
733963.000000
734602.000000
735246.000000
735900.000000
736561.000000
737212.000000
737854.000000
738499.000000
739155.000000
739819.000000
740489.000000
741146.000000
741795.000000
742433.000000
743075.000000
743727.000000
744378.000000
745019.000000
745651.000000
746284.000000
746923.000000
747572.000000
748222.000000
748866.000000
749500.000000
750136.000000
750777.000000
751421.000000
752064.000000
752698.000000
753332.000000
753974.000000
754623.000000
755277.000000
755923.000000
756564.000000
757209.000000
757859.000000
758511.000000
759156.000000
759793.000000
760427.000000
761071.000000
761719.000000
762379.000000
763030.000000
763674.000000
764311.000000
764958.000000
765615.000000
766273.000000
766930.000000
767570.000000
768201.000000
768840.000000
769489.000000
770158.000000
770840.000000
771509.000000
772170.000000
772834.000000
773489.000000
774122.000000
774737.000000
775344.000000
775960.000000
776594.000000
777248.000000
777922.000000
778601.000000
779258.000000
779905.000000
780562.000000
781221.000000
781893.000000
782556.000000
783208.000000
783863.000000
784521.000000
785178.000000
785830.000000
786472.000000
787103.000000
787738.000000
788371.000000
788995.000000
789599.000000
790196.000000
790792.000000
791386.000000
791981.000000
792596.000000
793231.000000
793876.000000
794510.000000
795139.000000
795765.000000
796404.000000
797039.000000
797665.000000
798283.000000
798898.000000
799513.000000
800129.000000
800745.000000
801350.000000
801957.000000
802579.000000
803233.000000
803925.000000
804618.000000
805294.000000
805963.000000
806641.000000
807333.000000
808019.000000
808689.000000
809340.000000
809990.000000
810644.000000
811300.000000
811946.000000
812584.000000
813221.000000
813864.000000
814514.000000
815169.000000
815816.000000
816456.000000
817104.000000
817756.000000
818420.000000
819083.000000
819735.000000
820384.000000
821041.000000
821693.000000
822346.000000
822995.000000
823633.000000
824266.000000
824905.000000
825548.000000
826197.000000
826834.000000
827463.000000
828097.000000
828744.000000
829400.000000
830055.000000
830689.000000
831312.000000
831936.000000
832562.000000
833199.000000
833847.000000
834495.000000
835130.000000
835758.000000
836381.000000
837008.000000
837625.000000
838225.000000
838818.000000
839414.000000
840021.000000
840635.000000
841272.000000
841923.000000
842590.000000
843235.000000
843871.000000
844509.000000
845151.000000
845799.000000
846444.000000
847083.000000
847712.000000
848351.000000
849001.000000
849665.000000
850321.000000
850968.000000
851624.000000
852292.000000
852970.000000
853640.000000
854288.000000
854924.000000
855567.000000
856216.000000
856879.000000
857540.000000
858189.000000
858836.000000
859500.000000
860183.000000
860869.000000
861541.000000
862203.000000
862851.000000
863505.000000
864163.000000
864822.000000
865482.000000
866132.000000
866773.000000
867424.000000
868089.000000
868774.000000
869456.000000
870117.000000
870766.000000
871419.000000
872080.000000
872746.000000
873417.000000
874081.000000
874731.000000
875391.000000
876059.000000
876733.000000
877407.000000
878070.000000
878721.000000
879381.000000
880041.000000
880706.000000
881376.000000
882036.000000
882693.000000
883365.000000
884045.000000
884721.000000
885384.000000
886040.000000
886700.000000
887365.000000
888040.000000
888723.000000
889396.000000
890058.000000
890725.000000
891392.000000
892053.000000
892700.000000
893338.000000
893966.000000
894582.000000
895187.000000
895783.000000
896389.000000
897010.000000
897625.000000
898239.000000
898868.000000
899510.000000
900162.000000
900811.000000
901449.000000
902089.000000
902733.000000
903382.000000
904029.000000
904673.000000
905313.000000
905961.000000
906618.000000
907287.000000
907962.000000
908641.000000
909320.000000
909983.000000
910659.000000
911349.000000
912044.000000
912745.000000
913420.000000
914091.000000
914773.000000
915468.000000
916164.000000
916866.000000
917558.000000
918250.000000
918960.000000
919667.000000
920364.000000
921050.000000
921730.000000
922401.000000
923079.000000
923761.000000
924455.000000
925154.000000
925839.000000
926510.000000
927187.000000
927866.000000
928545.000000
929226.000000
929896.000000
930564.000000
931232.000000
931899.000000
932574.000000
933259.000000
933948.000000
934622.000000
935286.000000
935952.000000
936630.000000
937321.000000
938005.000000
938672.000000
939331.000000
939996.000000
940670.000000
941348.000000
942024.000000
942685.000000
943332.000000
943977.000000
944630.000000
945291.000000
945949.000000
946596.000000
947240.000000
947902.000000
948571.000000
949244.000000
949898.000000
950538.000000
951175.000000
951817.000000
952462.000000
953114.000000
953756.000000
954390.000000
955026.000000
955671.000000
956319.000000
956958.000000
957590.000000
958222.000000
958858.000000
959490.000000
960114.000000
960735.000000
961360.000000
961990.000000
962620.000000
963251.000000
963885.000000
964528.000000
965173.000000
965812.000000
966445.000000
967073.000000
967703.000000
968331.000000
968951.000000
969568.000000
970189.000000
970812.000000
971443.000000
972066.000000
972683.000000
973307.000000
973944.000000
974589.000000
975228.000000
975860.000000
976494.000000
977123.000000
977736.000000
978332.000000
978924.000000
979520.000000
980129.000000
980748.000000
981386.000000
982011.000000
982635.000000
983274.000000
983937.000000
984610.000000
985283.000000
985934.000000
986581.000000
987235.000000
987908.000000
988595.000000
989283.000000
989958.000000
990620.000000
991273.000000
991938.000000
992614.000000
993294.000000
993963.000000
994627.000000
995299.000000
995985.000000
996682.000000
997382.000000
998056.000000
998722.000000
999391.000000
1000060.000000
1000733.000000
1001401.000000
1002059.000000
1002717.000000
1003392.000000
1004081.000000
1004780.000000
1005463.000000
1006134.000000
1006809.000000
1007488.000000
1008166.000000
1008830.000000
1009480.000000
1010146.000000
1010820.000000
1011498.000000
1012170.000000
1012836.000000
1013506.000000
1014181.000000
1014868.000000
1015549.000000
1016216.000000
1016870.000000
1017535.000000
1018204.000000
1018883.000000
1019563.000000
1020234.000000
1020894.000000
1021560.000000
1022235.000000
1022921.000000
1023595.000000
1024259.000000
1024932.000000
1025621.000000
1026323.000000
1027016.000000
1027693.000000
1028362.000000
1029038.000000
1029723.000000
1030419.000000
1031111.000000
1031786.000000
1032456.000000
1033139.000000
1033833.000000
1034537.000000
1035236.000000
1035924.000000
1036622.000000
1037324.000000
1038025.000000
1038709.000000
1039373.000000
1040039.000000
1040716.000000
1041415.000000
1042130.000000
1042827.000000
1043510.000000
1044197.000000
1044885.000000
1045571.000000
1046253.000000
1046923.000000
1047583.000000
1048246.000000
1048916.000000
1049594.000000
1050263.000000
1050917.000000
1051565.000000
1052222.000000
1052892.000000
1053572.000000
1054262.000000
1054937.000000
1055614.000000
1056306.000000
1056996.000000
1057681.000000
1058347.000000
1059004.000000
1059667.000000
1060339.000000
1061016.000000
1061690.000000
1062353.000000
1063006.000000
1063660.000000
1064325.000000
1064992.000000
1065653.000000
1066309.000000
1066963.000000
1067610.000000
1068236.000000
1068857.000000
1069487.000000
1070121.000000
1070744.000000
1071379.000000
1072025.000000
1072681.000000
1073360.000000
1074045.000000
1074709.000000
1075367.000000
1076034.000000
1076703.000000
1077373.000000
1078033.000000
1078686.000000
1079335.000000
1079997.000000
1080666.000000
1081346.000000
1082015.000000
1082673.000000
1083331.000000
1083993.000000
1084678.000000
1085367.000000
1086035.000000
1086690.000000
1087352.000000
1088019.000000
1088692.000000
1089364.000000
1090020.000000
1090675.000000
1091343.000000
1092021.000000
1092699.000000
1093373.000000
1094031.000000
1094690.000000
1095357.000000
1096043.000000
1096739.000000
1097433.000000
1098108.000000
1098769.000000
1099431.000000
1100095.000000
1100770.000000
1101448.000000
1102117.000000
1102771.000000
1103430.000000
1104099.000000
1104773.000000
1105456.000000
1106127.000000
1106791.000000
1107466.000000
1108150.000000
1108841.000000
1109525.000000
1110190.000000
1110853.000000
1111514.000000
1112175.000000
1112844.000000
1113508.000000
1114163.000000
1114834.000000
1115515.000000
1116215.000000
1116913.000000
1117581.000000
1118233.000000
1118881.000000
1119532.000000
1120187.000000
1120849.000000
1121514.000000
1122169.000000
1122823.000000
1123494.000000
1124179.000000
1124877.000000
1125558.000000
1126234.000000
1126921.000000
1127619.000000
1128315.000000
1128993.000000
1129652.000000
1130301.000000
1130955.000000
1131621.000000
1132302.000000
1132978.000000
1133646.000000
1134326.000000
1135009.000000
1135693.000000
1136371.000000
1137034.000000
1137705.000000
1138385.000000
1139078.000000
1139789.000000
1140481.000000
1141158.000000
1141818.000000
1142485.000000
1143163.000000
1143852.000000
1144523.000000
1145186.000000
1145866.000000
1146549.000000
1147252.000000
1147947.000000
1148612.000000
1149264.000000
1149913.000000
1150570.000000
1151240.000000
1151928.000000
1152609.000000
1153270.000000
1153936.000000
1154609.000000
1155275.000000
1155927.000000
1156552.000000
1157173.000000
1157804.000000
1158462.000000
1159131.000000
1159796.000000
1160451.000000
1161098.000000
1161760.000000
1162437.000000
1163123.000000
1163809.000000
1164465.000000
1165116.000000
1165770.000000
1166427.000000
1167095.000000
1167750.000000
1168396.000000
1169060.000000
1169756.000000
1170456.000000
1171136.000000
1171803.000000
1172479.000000
1173165.000000
1173840.000000
1174491.000000
1175131.000000
1175775.000000
1176432.000000
1177103.000000
1177766.000000
1178427.000000
1179106.000000
1179806.000000
1180507.000000
1181198.000000
1181871.000000
1182543.000000
1183212.000000
1183880.000000
1184533.000000
1185183.000000
1185845.000000
1186522.000000
1187201.000000
1187867.000000
1188524.000000
1189193.000000
1189880.000000
1190571.000000
1191263.000000
1191949.000000
1192642.000000
1193341.000000
1194045.000000
1194749.000000
1195438.000000
1196110.000000
1196794.000000
1197493.000000
1198194.000000
1198910.000000
1199609.000000
1200295.000000
1200988.000000
1201689.000000
1202383.000000
1203066.000000
1203738.000000
1204411.000000
1205094.000000
1205793.000000
1206473.000000
1207144.000000
1207834.000000
