ECG (ms)
793.000000
1682.000000
2580.000000
3555.000000
4593.000000
5656.000000
6736.000000
7797.000000
8840.000000
9846.000000
10817.000000
11719.000000
12602.000000
13492.000000
14422.000000
15373.000000
16359.000000
17360.000000
18359.000000
19369.000000
20366.000000
21332.000000
22247.000000
23132.000000
24014.000000
24933.000000
25938.000000
27052.000000
28083.000000
29122.000000
30135.000000
31133.000000
32115.000000
33087.000000
34026.000000
34940.000000
35853.000000
36754.000000
37704.000000
38716.000000
39768.000000
40811.000000
41810.000000
42815.000000
43819.000000
44804.000000
45737.000000
46644.000000
47536.000000
48443.000000
49389.000000
50370.000000
51376.000000
52384.000000
53358.000000
54298.000000
55197.000000
56084.000000
57017.000000
58097.000000
59205.000000
60274.000000
61352.000000
62433.000000
63506.000000
64466.000000
65369.000000
66257.000000
67161.000000
68114.000000
69098.000000
70057.000000
71000.000000
71887.000000
72786.000000
73663.000000
74551.000000
75456.000000
76384.000000
77334.000000
78289.000000
79239.000000
80200.000000
81123.000000
82018.000000
82904.000000
83817.000000
84805.000000
85889.000000
86929.000000
88011.000000
89105.000000
90165.000000
91113.000000
92023.000000
92888.000000
93755.000000
95649.000000
97085.000000
98191.000000
99187.000000
100199.000000
101171.000000
102100.000000
103018.000000
103949.000000
104916.000000
105950.000000
107006.000000
108067.000000
109079.000000
110075.000000
111026.000000
111937.000000
112817.000000
113690.000000
114581.000000
115528.000000
116534.000000
117550.000000
118565.000000
119543.000000
120526.000000
121525.000000
122456.000000
123358.000000
124256.000000
125164.000000
126091.000000
127078.000000
128092.000000
129071.000000
130102.000000
131108.000000
132110.000000
133106.000000
134074.000000
134997.000000
135901.000000
136797.000000
137717.000000
138664.000000
139657.000000
140648.000000
141647.000000
142630.000000
143567.000000
144484.000000
145432.000000
146421.000000
147409.000000
148347.000000
149239.000000
150133.000000
151021.000000
151893.000000
152771.000000
153698.000000
154695.000000
155726.000000
156805.000000
157850.000000
158880.000000
159844.000000
160754.000000
161627.000000
162504.000000
163535.000000
164739.000000
165746.000000
166834.000000
167857.000000
168980.000000
170084.000000
171133.000000
172104.000000
173038.000000
173980.000000
174984.000000
176075.000000
177202.000000
178314.000000
179355.000000
180320.000000
181248.000000
182175.000000
183150.000000
184161.000000
185288.000000
186383.000000
187462.000000
188471.000000
189428.000000
190358.000000
191283.000000
192217.000000
193200.000000
194242.000000
195287.000000
196359.000000
197409.000000
198444.000000
199480.000000
200458.000000
201379.000000
202274.000000
203198.000000
204810.000000
206171.000000
207298.000000
208375.000000
209378.000000
210328.000000
211233.000000
212132.000000
213052.000000
214026.000000
215067.000000
216077.000000
217034.000000
217940.000000
218842.000000
219726.000000
220596.000000
221471.000000
222376.000000
223313.000000
224275.000000
225255.000000
226237.000000
227219.000000
228166.000000
229070.000000
229958.000000
230860.000000
231850.000000
232927.000000
234025.000000
235120.000000
236161.000000
237133.000000
238123.000000
239158.000000
240195.000000
241174.000000
242105.000000
243028.000000
243996.000000
245038.000000
246083.000000
247109.000000
248088.000000
249001.000000
249902.000000
250836.000000
251833.000000
252843.000000
253885.000000
254913.000000
255899.000000
256827.000000
257733.000000
258638.000000
259580.000000
260574.000000
261630.000000
262716.000000
263727.000000
264677.000000
265656.000000
266670.000000
267700.000000
268682.000000
269621.000000
270519.000000
271454.000000
272473.000000
273519.000000
274566.000000
275540.000000
276507.000000
277532.000000
278555.000000
279568.000000
280524.000000
281438.000000
282403.000000
283405.000000
284433.000000
285411.000000
286332.000000
287258.000000
288228.000000
289250.000000
290288.000000
291286.000000
292220.000000
293124.000000
294053.000000
295029.000000
296061.000000
297037.000000
297970.000000
298878.000000
299777.000000
300683.000000
301640.000000
302642.000000
303704.000000
304827.000000
305901.000000
306941.000000
307924.000000
308849.000000
309754.000000
310680.000000
311655.000000
312680.000000
313738.000000
314786.000000
315835.000000
316854.000000
317789.000000
318681.000000
319554.000000
320522.000000
322178.000000
323716.000000
324874.000000
325846.000000
326771.000000
327688.000000
328612.000000
329545.000000
330558.000000
331632.000000
332732.000000
333804.000000
334801.000000
335743.000000
336685.000000
337672.000000
338678.000000
339701.000000
340660.000000
341616.000000
342605.000000
343622.000000
344655.000000
345611.000000
346538.000000
347515.000000
348538.000000
349543.000000
350500.000000
351435.000000
352387.000000
353377.000000
354414.000000
355484.000000
356576.000000
357577.000000
358524.000000
359494.000000
360520.000000
361575.000000
362562.000000
363485.000000
364446.000000
365487.000000
366546.000000
367598.000000
368577.000000
369521.000000
370446.000000
371412.000000
372471.000000
373625.000000
374741.000000
375829.000000
376883.000000
377851.000000
378774.000000
379691.000000
380626.000000
381610.000000
382617.000000
383642.000000
384597.000000
385517.000000
386469.000000
387461.000000
388472.000000
389491.000000
390443.000000
391364.000000
392248.000000
393132.000000
393991.000000
394854.000000
395769.000000
396738.000000
397745.000000
398758.000000
399786.000000
400798.000000
401777.000000
402711.000000
403607.000000
404504.000000
405451.000000
406509.000000
407581.000000
408725.000000
409827.000000
410917.000000
411878.000000
412784.000000
413663.000000
414603.000000
416270.000000
417859.000000
419030.000000
419987.000000
420966.000000
421997.000000
423074.000000
424225.000000
425281.000000
426256.000000
427256.000000
428373.000000
429487.000000
430590.000000
431574.000000
432515.000000
433459.000000
434491.000000
435618.000000
436715.000000
437724.000000
438681.000000
439633.000000
440604.000000
441659.000000
442752.000000
443830.000000
444933.000000
445972.000000
446931.000000
447869.000000
448811.000000
449855.000000
450990.000000
452137.000000
453303.000000
454353.000000
455322.000000
456271.000000
457246.000000
458303.000000
459382.000000
460497.000000
461653.000000
462792.000000
463874.000000
464858.000000
465779.000000
466691.000000
467621.000000
468676.000000
469773.000000
470876.000000
471998.000000
473088.000000
474139.000000
475104.000000
476025.000000
476931.000000
477843.000000
478798.000000
479819.000000
480871.000000
481909.000000
482955.000000
483962.000000
484937.000000
485844.000000
486723.000000
487608.000000
488619.000000
489808.000000
490878.000000
491915.000000
492884.000000
494033.000000
495097.000000
496062.000000
496996.000000
497918.000000
498858.000000
499830.000000
500834.000000
501872.000000
502910.000000
503959.000000
504947.000000
505884.000000
506785.000000
507664.000000
508546.000000
509521.000000
510498.000000
511476.000000
512461.000000
513425.000000
514342.000000
515215.000000
516075.000000
516954.000000
517902.000000
518962.000000
520066.000000
521129.000000
522211.000000
523268.000000
524243.000000
525169.000000
526087.000000
527078.000000
528193.000000
529253.000000
530415.000000
531598.000000
532715.000000
533743.000000
534700.000000
535592.000000
536460.000000
537399.000000
539397.000000
540445.000000
541414.000000
542398.000000
543394.000000
544324.000000
545228.000000
546145.000000
547150.000000
548212.000000
549288.000000
550333.000000
551383.000000
552414.000000
553342.000000
554229.000000
555100.000000
555996.000000
556908.000000
557857.000000
558803.000000
559749.000000
560651.000000
561523.000000
562376.000000
563227.000000
564099.000000
565006.000000
565919.000000
566835.000000
567750.000000
568635.000000
569492.000000
570335.000000
571173.000000
572027.000000
572925.000000
573860.000000
574834.000000
575816.000000
576806.000000
577750.000000
578635.000000
579497.000000
580358.000000
581241.000000
582195.000000
583159.000000
584075.000000
584949.000000
585811.000000
586671.000000
587543.000000
588433.000000
589349.000000
590277.000000
591196.000000
592069.000000
592920.000000
593778.000000
594661.000000
595613.000000
596587.000000
597592.000000
598604.000000
599574.000000
600487.000000
601382.000000
602287.000000
603205.000000
604190.000000
605195.000000
606173.000000
607139.000000
608095.000000
609020.000000
609901.000000
610778.000000
611684.000000
612672.000000
613724.000000
614751.000000
615786.000000
616747.000000
617652.000000
618536.000000
619433.000000
620341.000000
621287.000000
622255.000000
623233.000000
624210.000000
625137.000000
626012.000000
626880.000000
627767.000000
628693.000000
629687.000000
630686.000000
631703.000000
632705.000000
633650.000000
634547.000000
635434.000000
636353.000000
637372.000000
638447.000000
639552.000000
640657.000000
641684.000000
642636.000000
643544.000000
644449.000000
645390.000000
646389.000000
647452.000000
648503.000000
649516.000000
650448.000000
651360.000000
652272.000000
653184.000000
654119.000000
655099.000000
656112.000000
657149.000000
658178.000000
659184.000000
660212.000000
661167.000000
662067.000000
662951.000000
663857.000000
664834.000000
665889.000000
666964.000000
668052.000000
669132.000000
670122.000000
671042.000000
671939.000000
672849.000000
673810.000000
674838.000000
675903.000000
676970.000000
678033.000000
679028.000000
679958.000000
680855.000000
681769.000000
682873.000000
684880.000000
686042.000000
687033.000000
687971.000000
688865.000000
689748.000000
690636.000000
691640.000000
692742.000000
693769.000000
694837.000000
695920.000000
696932.000000
697875.000000
698796.000000
699713.000000
700635.000000
701574.000000
702543.000000
703495.000000
704407.000000
705271.000000
706114.000000
706946.000000
707766.000000
708590.000000
709420.000000
710272.000000
711141.000000
712043.000000
712959.000000
713909.000000
714806.000000
715685.000000
716543.000000
717417.000000
718333.000000
719281.000000
720252.000000
721198.000000
722136.000000
723051.000000
723926.000000
724773.000000
725619.000000
726482.000000
727406.000000
728404.000000
729424.000000
730476.000000
731520.000000
732553.000000
733600.000000
734579.000000
735507.000000
736387.000000
737261.000000
738148.000000
739125.000000
740145.000000
741203.000000
742270.000000
743306.000000
744306.000000
745235.000000
746126.000000
747002.000000
747872.000000
748796.000000
749793.000000
750812.000000
751813.000000
752812.000000
753830.000000
754775.000000
755667.000000
756533.000000
757408.000000
758322.000000
759246.000000
760206.000000
761155.000000
762099.000000
763041.000000
763964.000000
764840.000000
765692.000000
766539.000000
767396.000000
768295.000000
769242.000000
770253.000000
771288.000000
772305.000000
773290.000000
774204.000000
775092.000000
775959.000000
776828.000000
777750.000000
778756.000000
779805.000000
780851.000000
781890.000000
782861.000000
783764.000000
784648.000000
785541.000000
786489.000000
787521.000000
788578.000000
789616.000000
790618.000000
791545.000000
792445.000000
793339.000000
794270.000000
795208.000000
796156.000000
797097.000000
798049.000000
798966.000000
799841.000000
800701.000000
801559.000000
802436.000000
803374.000000
804329.000000
805297.000000
806260.000000
807202.000000
808131.000000
809021.000000
809866.000000
810699.000000
811526.000000
812370.000000
813278.000000
814240.000000
815212.000000
816190.000000
817169.000000
818150.000000
819123.000000
820043.000000
820923.000000
821778.000000
822630.000000
823494.000000
824394.000000
825329.000000
826285.000000
827244.000000
828210.000000
829165.000000
830114.000000
831005.000000
831913.000000
832854.000000
833816.000000
834744.000000
835648.000000
836518.000000
837380.000000
838253.000000
839176.000000
840135.000000
841124.000000
842142.000000
843146.000000
844155.000000
845131.000000
846071.000000
846965.000000
847825.000000
848679.000000
849551.000000
850485.000000
851493.000000
852499.000000
853511.000000
854533.000000
855546.000000
856502.000000
857415.000000
858288.000000
859145.000000
860015.000000
860933.000000
861902.000000
862888.000000
863883.000000
864915.000000
865945.000000
866932.000000
867870.000000
868767.000000
869639.000000
870502.000000
871372.000000
872276.000000
873225.000000
874212.000000
875205.000000
876208.000000
877166.000000
878080.000000
878959.000000
879816.000000
880676.000000
881599.000000
882640.000000
883667.000000
884727.000000
885733.000000
886677.000000
887562.000000
888425.000000
889278.000000
890110.000000
890943.000000
891816.000000
892731.000000
893664.000000
894605.000000
895543.000000
896456.000000
897338.000000
898203.000000
899062.000000
