ECG (ms)
420.000000
1221.000000
2028.000000
2836.000000
3638.000000
4428.000000
5219.000000
6014.000000
6800.000000
7591.000000
8387.000000
9177.000000
9970.000000
10767.000000
11562.000000
12341.000000
13125.000000
13917.000000
14703.000000
15484.000000
16266.000000
17051.000000
17827.000000
18615.000000
19408.000000
20183.000000
20959.000000
21740.000000
22522.000000
23317.000000
24113.000000
24918.000000
25729.000000
26546.000000
27345.000000
28142.000000
28944.000000
29734.000000
30517.000000
31304.000000
32087.000000
32857.000000
33638.000000
34426.000000
35205.000000
35985.000000
36764.000000
37547.000000
38330.000000
39109.000000
39895.000000
40682.000000
41459.000000
42239.000000
43024.000000
43805.000000
44581.000000
45363.000000
46157.000000
46940.000000
47715.000000
48494.000000
49277.000000
50038.000000
50804.000000
51588.000000
52358.000000
53119.000000
53891.000000
54670.000000
55433.000000
56200.000000
56955.000000
57717.000000
58481.000000
59249.000000
60020.000000
60799.000000
61584.000000
62369.000000
63155.000000
63926.000000
64700.000000
65464.000000
66222.000000
66973.000000
67721.000000
68479.000000
69248.000000
70018.000000
70798.000000
71580.000000
72376.000000
73166.000000
73964.000000
74754.000000
75557.000000
76356.000000
77147.000000
77935.000000
78738.000000
79548.000000
80352.000000
81160.000000
81954.000000
82751.000000
83554.000000
84350.000000
85148.000000
85941.000000
86734.000000
87539.000000
88328.000000
89128.000000
89959.000000
90768.000000
91568.000000
92358.000000
93157.000000
93957.000000
94745.000000
95539.000000
96345.000000
97164.000000
97976.000000
98771.000000
99571.000000
100371.000000
101164.000000
101961.000000
102764.000000
103568.000000
104366.000000
105177.000000
105999.000000
106805.000000
107618.000000
108421.000000
109221.000000
110023.000000
110833.000000
111638.000000
112434.000000
113233.000000
114031.000000
114835.000000
115639.000000
116429.000000
117220.000000
118013.000000
118794.000000
119576.000000
120350.000000
121130.000000
121911.000000
122688.000000
123471.000000
124250.000000
125028.000000
125820.000000
126601.000000
127379.000000
128152.000000
128942.000000
129750.000000
130548.000000
131338.000000
132125.000000
132918.000000
133712.000000
134504.000000
135286.000000
136066.000000
136853.000000
137644.000000
138434.000000
139223.000000
140010.000000
140807.000000
141600.000000
142386.000000
143176.000000
143976.000000
144772.000000
145557.000000
146341.000000
147132.000000
147926.000000
148711.000000
149506.000000
150302.000000
151085.000000
151869.000000
152658.000000
153447.000000
154224.000000
155007.000000
155793.000000
156578.000000
157352.000000
158128.000000
158907.000000
159684.000000
160460.000000
161232.000000
162010.000000
162784.000000
163552.000000
164330.000000
165111.000000
165881.000000
166661.000000
167443.000000
168218.000000
168984.000000
169754.000000
170526.000000
171289.000000
172050.000000
172815.000000
173583.000000
174346.000000
175116.000000
175887.000000
176660.000000
177430.000000
178203.000000
178982.000000
179761.000000
180535.000000
181310.000000
182095.000000
182868.000000
183642.000000
184422.000000
185207.000000
185975.000000
186746.000000
187520.000000
188289.000000
189048.000000
189812.000000
190577.000000
191329.000000
192083.000000
192839.000000
193593.000000
194347.000000
195101.000000
195859.000000
196619.000000
197376.000000
198131.000000
198896.000000
199659.000000
200420.000000
201186.000000
201955.000000
202725.000000
203487.000000
204256.000000
205020.000000
205781.000000
206541.000000
207305.000000
208069.000000
208833.000000
209592.000000
210353.000000
211113.000000
211874.000000
212634.000000
213394.000000
214162.000000
214922.000000
215680.000000
216447.000000
217211.000000
217974.000000
218736.000000
219499.000000
220254.000000
221013.000000
221776.000000
222538.000000
223298.000000
224059.000000
224823.000000
225587.000000
226350.000000
227106.000000
227859.000000
228616.000000
229373.000000
230126.000000
230882.000000
231643.000000
232407.000000
233163.000000
233922.000000
234689.000000
235457.000000
236219.000000
236982.000000
237760.000000
238548.000000
239321.000000
240100.000000
240885.000000
241680.000000
242463.000000
243233.000000
244008.000000
244788.000000
245554.000000
246314.000000
247079.000000
247849.000000
248611.000000
249375.000000
250130.000000
250893.000000
251663.000000
252436.000000
253207.000000
253982.000000
254745.000000
255517.000000
256295.000000
257074.000000
257845.000000
258636.000000
259425.000000
260205.000000
260982.000000
261767.000000
262566.000000
263345.000000
264116.000000
264886.000000
265656.000000
266426.000000
267195.000000
267963.000000
268730.000000
269508.000000
270293.000000
271065.000000
271846.000000
272641.000000
273441.000000
274243.000000
275056.000000
275862.000000
276667.000000
277475.000000
278270.000000
279068.000000
279868.000000
280681.000000
281481.000000
282273.000000
283063.000000
283854.000000
284645.000000
285421.000000
286202.000000
286989.000000
287779.000000
288555.000000
289339.000000
290125.000000
290899.000000
291674.000000
292453.000000
293230.000000
293999.000000
294766.000000
295538.000000
296302.000000
297066.000000
297829.000000
298592.000000
299365.000000
300135.000000
300901.000000
301675.000000
302457.000000
303252.000000
304034.000000
304821.000000
305616.000000
306414.000000
307205.000000
307999.000000
308797.000000
309605.000000
310409.000000
311200.000000
311987.000000
312790.000000
313598.000000
314377.000000
315162.000000
315953.000000
316744.000000
317523.000000
318304.000000
319091.000000
319874.000000
320651.000000
321431.000000
322211.000000
322984.000000
323765.000000
324552.000000
325332.000000
326109.000000
326897.000000
327685.000000
328464.000000
329246.000000
330033.000000
330821.000000
331600.000000
332384.000000
333170.000000
333967.000000
334743.000000
335528.000000
336324.000000
337121.000000
337908.000000
338710.000000
339514.000000
340303.000000
341092.000000
341889.000000
342691.000000
343480.000000
344272.000000
345074.000000
345860.000000
346652.000000
347452.000000
348254.000000
349045.000000
349826.000000
350620.000000
351417.000000
352211.000000
353000.000000
353794.000000
354592.000000
355386.000000
356191.000000
356998.000000
357800.000000
358590.000000
359377.000000
360175.000000
360975.000000
361767.000000
362552.000000
363335.000000
364116.000000
364884.000000
365656.000000
366430.000000
367207.000000
367986.000000
368769.000000
369559.000000
370344.000000
371126.000000
371908.000000
372695.000000
373468.000000
374243.000000
375022.000000
375802.000000
376568.000000
377329.000000
378089.000000
378851.000000
379607.000000
380369.000000
381142.000000
381916.000000
382688.000000
383464.000000
384246.000000
385022.000000
385794.000000
386588.000000
387382.000000
388162.000000
388951.000000
389746.000000
390526.000000
391313.000000
392109.000000
392909.000000
393687.000000
394466.000000
395260.000000
396047.000000
396822.000000
397606.000000
398399.000000
399185.000000
399971.000000
400757.000000
401548.000000
402328.000000
403112.000000
403889.000000
404673.000000
405455.000000
406243.000000
407024.000000
407806.000000
408580.000000
409370.000000
410163.000000
410960.000000
411747.000000
412532.000000
413314.000000
414101.000000
414895.000000
415693.000000
416498.000000
417307.000000
418115.000000
418911.000000
419717.000000
420523.000000
421305.000000
422094.000000
422887.000000
423673.000000
424452.000000
425225.000000
426007.000000
426782.000000
427555.000000
428330.000000
429118.000000
429899.000000
430671.000000
431448.000000
432226.000000
433010.000000
433785.000000
434567.000000
435352.000000
436142.000000
436927.000000
437713.000000
438491.000000
439272.000000
440056.000000
440841.000000
441621.000000
442389.000000
443154.000000
443923.000000
444694.000000
445467.000000
446249.000000
447033.000000
447816.000000
448602.000000
449388.000000
450170.000000
450944.000000
451718.000000
452495.000000
453274.000000
454042.000000
454813.000000
455584.000000
456358.000000
457120.000000
457882.000000
458646.000000
459407.000000
460166.000000
460934.000000
461705.000000
462488.000000
463268.000000
464044.000000
464814.000000
465588.000000
466366.000000
467139.000000
467906.000000
468671.000000
469444.000000
470224.000000
470999.000000
471789.000000
472586.000000
473372.000000
474149.000000
474923.000000
475696.000000
476472.000000
477241.000000
478016.000000
478790.000000
479568.000000
480334.000000
481100.000000
481862.000000
482631.000000
483400.000000
484167.000000
484938.000000
485710.000000
486477.000000
487241.000000
488014.000000
488786.000000
489551.000000
490308.000000
491067.000000
491832.000000
492598.000000
493359.000000
494134.000000
494916.000000
495694.000000
496474.000000
497264.000000
498053.000000
498822.000000
499600.000000
500373.000000
501146.000000
501916.000000
502694.000000
503471.000000
504248.000000
505016.000000
505784.000000
506555.000000
507322.000000
508088.000000
508851.000000
509613.000000
510364.000000
511117.000000
511872.000000
512631.000000
513382.000000
514137.000000
514892.000000
515645.000000
516393.000000
517138.000000
517895.000000
518646.000000
519400.000000
520141.000000
520897.000000
521646.000000
522395.000000
523139.000000
523890.000000
524636.000000
525386.000000
526138.000000
526905.000000
527673.000000
528445.000000
529211.000000
529978.000000
530750.000000
531525.000000
532299.000000
533071.000000
533848.000000
534630.000000
535410.000000
536176.000000
536956.000000
537742.000000
538530.000000
539315.000000
540101.000000
540884.000000
541656.000000
542432.000000
543213.000000
543988.000000
544756.000000
545531.000000
546315.000000
547107.000000
547892.000000
548674.000000
549462.000000
550253.000000
551032.000000
551817.000000
552601.000000
553374.000000
554151.000000
554922.000000
555689.000000
556442.000000
557205.000000
557967.000000
558729.000000
559494.000000
560264.000000
561042.000000
561815.000000
562593.000000
563376.000000
564156.000000
564924.000000
565702.000000
566480.000000
567246.000000
568020.000000
568790.000000
569561.000000
570317.000000
571079.000000
571852.000000
572622.000000
573388.000000
574155.000000
574925.000000
575701.000000
576471.000000
577242.000000
578014.000000
578788.000000
579562.000000
580327.000000
581092.000000
581861.000000
582630.000000
583397.000000
584167.000000
584943.000000
585721.000000
586499.000000
587270.000000
588046.000000
588817.000000
589580.000000
590343.000000
591118.000000
591897.000000
592666.000000
593441.000000
594229.000000
595033.000000
595814.000000
596598.000000
597383.000000
598173.000000
598953.000000
599730.000000
600504.000000
601281.000000
602051.000000
602821.000000
603593.000000
604370.000000
605148.000000
605927.000000
606711.000000
607491.000000
608253.000000
609023.000000
609802.000000
610552.000000
611287.000000
612018.000000
612759.000000
613498.000000
614241.000000
614994.000000
615738.000000
616483.000000
617231.000000
617985.000000
618749.000000
619509.000000
620269.000000
621032.000000
621796.000000
622551.000000
623317.000000
624064.000000
624830.000000
625591.000000
626362.000000
627145.000000
627933.000000
628724.000000
629521.000000
630325.000000
631132.000000
631941.000000
632736.000000
633527.000000
634326.000000
635124.000000
635911.000000
636695.000000
637484.000000
638283.000000
639081.000000
639867.000000
640654.000000
641446.000000
642239.000000
643028.000000
643807.000000
644599.000000
645392.000000
646185.000000
646973.000000
647765.000000
648569.000000
649359.000000
650148.000000
650938.000000
651725.000000
652500.000000
653280.000000
654068.000000
654847.000000
655624.000000
656407.000000
657193.000000
657969.000000
658746.000000
659529.000000
660321.000000
661107.000000
661898.000000
662695.000000
663488.000000
664290.000000
665100.000000
665909.000000
666717.000000
667537.000000
668355.000000
669155.000000
669950.000000
670754.000000
671557.000000
672349.000000
673146.000000
673946.000000
674732.000000
675522.000000
676322.000000
677121.000000
677906.000000
678695.000000
679483.000000
680261.000000
681036.000000
681816.000000
682599.000000
683381.000000
684160.000000
684946.000000
685737.000000
686517.000000
687299.000000
688089.000000
688877.000000
689654.000000
690433.000000
691212.000000
691994.000000
692765.000000
693539.000000
694317.000000
695096.000000
695874.000000
696653.000000
697440.000000
698228.000000
699001.000000
699778.000000
700567.000000
701354.000000
702128.000000
702891.000000
703662.000000
704435.000000
705204.000000
705960.000000
706722.000000
707485.000000
708253.000000
709010.000000
709773.000000
710540.000000
711309.000000
712071.000000
712834.000000
713604.000000
714378.000000
715142.000000
715919.000000
716697.000000
717470.000000
718239.000000
719014.000000
719789.000000
720553.000000
721323.000000
722095.000000
722867.000000
723624.000000
724384.000000
725148.000000
725910.000000
726665.000000
727416.000000
728172.000000
728934.000000
729693.000000
730460.000000
731236.000000
732017.000000
732791.000000
733569.000000
734362.000000
735151.000000
735938.000000
736735.000000
737539.000000
738330.000000
739125.000000
739922.000000
740700.000000
741486.000000
742276.000000
743056.000000
743836.000000
744623.000000
745409.000000
746188.000000
746967.000000
747754.000000
748529.000000
749309.000000
750087.000000
750869.000000
751631.000000
752394.000000
753156.000000
753922.000000
754672.000000
755444.000000
756211.000000
756984.000000
757760.000000
758537.000000
759312.000000
760099.000000
760878.000000
761652.000000
762433.000000
763219.000000
763999.000000
764774.000000
765564.000000
766365.000000
767160.000000
767952.000000
768751.000000
769544.000000
770319.000000
771102.000000
771888.000000
772660.000000
773430.000000
774202.000000
774980.000000
775750.000000
776522.000000
777307.000000
778086.000000
778872.000000
779666.000000
780463.000000
781251.000000
782040.000000
782824.000000
783596.000000
784361.000000
785125.000000
785892.000000
786646.000000
787392.000000
788136.000000
788884.000000
789636.000000
790384.000000
791137.000000
791890.000000
792653.000000
793419.000000
794187.000000
794955.000000
795727.000000
796504.000000
797272.000000
798040.000000
798812.000000
799580.000000
800348.000000
801109.000000
801873.000000
802639.000000
803411.000000
804175.000000
804939.000000
805712.000000
806491.000000
807261.000000
808033.000000
808807.000000
809588.000000
810359.000000
811131.000000
811913.000000
812693.000000
813479.000000
814289.000000
815102.000000
815904.000000
816698.000000
817502.000000
818289.000000
819074.000000
819868.000000
820656.000000
821434.000000
822211.000000
822988.000000
823755.000000
824522.000000
825286.000000
826061.000000
826826.000000
827598.000000
828371.000000
829151.000000
829923.000000
830699.000000
831480.000000
832259.000000
833034.000000
833810.000000
834588.000000
835348.000000
836127.000000
836900.000000
837676.000000
838445.000000
839209.000000
839972.000000
840735.000000
841483.000000
842242.000000
843002.000000
843770.000000
844528.000000
845294.000000
846077.000000
846866.000000
847653.000000
848437.000000
849226.000000
850002.000000
850779.000000
851557.000000
852336.000000
853101.000000
853870.000000
854642.000000
855425.000000
856199.000000
856992.000000
857787.000000
858583.000000
859373.000000
860165.000000
860969.000000
861755.000000
862537.000000
863313.000000
864093.000000
864867.000000
865646.000000
866431.000000
867223.000000
868003.000000
868786.000000
869582.000000
870384.000000
871184.000000
871990.000000
872805.000000
873611.000000
874417.000000
875221.000000
876014.000000
876805.000000
877605.000000
878397.000000
879181.000000
879975.000000
880761.000000
881536.000000
882313.000000
883085.000000
883859.000000
884628.000000
885395.000000
886158.000000
886934.000000
887712.000000
888480.000000
889246.000000
890019.000000
890800.000000
891559.000000
892321.000000
893076.000000
893814.000000
894555.000000
895302.000000
896058.000000
896794.000000
897546.000000
898309.000000
899052.000000
899818.000000
900579.000000
901330.000000
902081.000000
902834.000000
903593.000000
904341.000000
905094.000000
905851.000000
906619.000000
907402.000000
908196.000000
908980.000000
909763.000000
910549.000000
911336.000000
912135.000000
912943.000000
913747.000000
914545.000000
915339.000000
916142.000000
916939.000000
917728.000000
918524.000000
919327.000000
920138.000000
920940.000000
921755.000000
922581.000000
923395.000000
924187.000000
924977.000000
925766.000000
926553.000000
927332.000000
928097.000000
928856.000000
929614.000000
930374.000000
931125.000000
931880.000000
932638.000000
933406.000000
934164.000000
934926.000000
935699.000000
936485.000000
937272.000000
938060.000000
938845.000000
939643.000000
940443.000000
941232.000000
942024.000000
942823.000000
943628.000000
944415.000000
945202.000000
945995.000000
946790.000000
947578.000000
948370.000000
949184.000000
949978.000000
950773.000000
951577.000000
952369.000000
953160.000000
953957.000000
954769.000000
955566.000000
956357.000000
957152.000000
957937.000000
958723.000000
959507.000000
960290.000000
961049.000000
961826.000000
962602.000000
963383.000000
964152.000000
964922.000000
965695.000000
966475.000000
967235.000000
968002.000000
968766.000000
969537.000000
970297.000000
971063.000000
971838.000000
972618.000000
973405.000000
974177.000000
974949.000000
975714.000000
976456.000000
977191.000000
977910.000000
978620.000000
979336.000000
980058.000000
980804.000000
981565.000000
982350.000000
983145.000000
983932.000000
984721.000000
985514.000000
986316.000000
987119.000000
987909.000000
988703.000000
989498.000000
990288.000000
991079.000000
991882.000000
992694.000000
993494.000000
994301.000000
995113.000000
995908.000000
996698.000000
997495.000000
998299.000000
999092.000000
999895.000000
1000703.000000
1001499.000000
1002302.000000
1003115.000000
1003928.000000
1004729.000000
1005535.000000
1006341.000000
1007140.000000
1007947.000000
1008775.000000
1009602.000000
1010421.000000
1011239.000000
1012050.000000
1012846.000000
1013644.000000
1014439.000000
1015224.000000
1016000.000000
1016779.000000
1017566.000000
1018347.000000
1019123.000000
1019899.000000
1020687.000000
1021469.000000
1022249.000000
1023038.000000
1023825.000000
1024607.000000
1025390.000000
1026176.000000
1026972.000000
1027761.000000
1028555.000000
1029353.000000
1030158.000000
1030951.000000
1031750.000000
1032559.000000
1033372.000000
1034172.000000
1034983.000000
1035810.000000
1036636.000000
1037464.000000
1038294.000000
1039117.000000
1039937.000000
1040762.000000
1041578.000000
1042378.000000
1043177.000000
1043981.000000
1044774.000000
1045571.000000
1046374.000000
1047174.000000
1047976.000000
1048777.000000
1049575.000000
1050367.000000
1051161.000000
1051954.000000
1052737.000000
1053528.000000
1054336.000000
1055126.000000
1055919.000000
1056723.000000
1057514.000000
1058287.000000
1059065.000000
1059834.000000
1060600.000000
1061353.000000
1062109.000000
1062871.000000
1063637.000000
1064412.000000
1065179.000000
1065950.000000
1066729.000000
1067515.000000
1068292.000000
1069075.000000
1069862.000000
1070651.000000
1071433.000000
1072216.000000
1073014.000000
1073805.000000
1074585.000000
1075371.000000
1076179.000000
1076993.000000
1077807.000000
1078627.000000
1079454.000000
1080266.000000
1081084.000000
1081900.000000
1082715.000000
1083518.000000
1084330.000000
1085136.000000
1085938.000000
1086735.000000
1087547.000000
1088356.000000
1089169.000000
1089997.000000
1090821.000000
1091635.000000
1092456.000000
1093270.000000
1094074.000000
1094874.000000
1095674.000000
1096444.000000
1097222.000000
1097996.000000
1098782.000000
1099545.000000
1100324.000000
1101120.000000
1101918.000000
1102724.000000
1103541.000000
1104371.000000
1105188.000000
1106022.000000
1106844.000000
1107664.000000
1108492.000000
1109320.000000
1110121.000000
1110918.000000
1111731.000000
1112513.000000
1113291.000000
1114068.000000
1114856.000000
1115647.000000
1116440.000000
1117247.000000
1118069.000000
1118869.000000
1119672.000000
1120482.000000
1121283.000000
1122087.000000
1122892.000000
1123702.000000
1124514.000000
1125315.000000
1126117.000000
1126899.000000
1127679.000000
1128454.000000
1129245.000000
1130043.000000
1130854.000000
1131666.000000
1132476.000000
1133274.000000
1134063.000000
1134860.000000
1135646.000000
1136431.000000
1137228.000000
1138028.000000
1138825.000000
1139614.000000
1140431.000000
1141243.000000
1142031.000000
1142835.000000
1143641.000000
1144448.000000
1145249.000000
1146047.000000
1146851.000000
1147664.000000
1148463.000000
1149268.000000
1150081.000000
1150906.000000
1151711.000000
1152518.000000
1153330.000000
1154134.000000
1154943.000000
1155760.000000
1156564.000000
1157347.000000
1158130.000000
1158904.000000
1159676.000000
1160437.000000
1161177.000000
1161916.000000
1162642.000000
1163361.000000
1164090.000000
1164825.000000
1165589.000000
1166358.000000
1167141.000000
1167921.000000
1168707.000000
1169492.000000
1170285.000000
1171087.000000
1171877.000000
1172669.000000
1173457.000000
1174242.000000
1175033.000000
1175837.000000
1176644.000000
1177444.000000
1178242.000000
1179055.000000
1179880.000000
1180708.000000
1181524.000000
1182350.000000
1183186.000000
1184026.000000
1184846.000000
1185661.000000
1186482.000000
1187288.000000
1188095.000000
1188901.000000
1189720.000000
1190529.000000
1191336.000000
1192148.000000
1192961.000000
1193767.000000
1194572.000000
1195379.000000
1196190.000000
1197004.000000
1197809.000000
1198617.000000
1199431.000000
1200252.000000
1201065.000000
1201886.000000
1202727.000000
1203562.000000
1204390.000000
1205219.000000
1206042.000000
1206850.000000
1207657.000000
1208467.000000
1209268.000000
1210075.000000
1210886.000000
1211703.000000
1212517.000000
1213342.000000
1214167.000000
1214973.000000
1215779.000000
1216591.000000
1217388.000000
1218191.000000
1218995.000000
1219794.000000
1220592.000000
1221395.000000
1222201.000000
1222994.000000
1223785.000000
1224572.000000
