ECG (ms)
460.000000
1438.000000
2402.000000
3328.000000
4235.000000
5161.000000
6093.000000
7025.000000
7933.000000
8849.000000
9801.000000
10741.000000
11640.000000
12536.000000
13451.000000
14370.000000
15257.000000
16141.000000
17047.000000
17963.000000
18861.000000
19754.000000
20678.000000
21602.000000
22492.000000
23358.000000
24236.000000
25112.000000
25999.000000
26907.000000
27913.000000
28902.000000
29854.000000
30807.000000
31751.000000
32675.000000
33578.000000
34492.000000
35413.000000
36322.000000
37237.000000
38197.000000
39153.000000
40074.000000
40974.000000
41931.000000
42890.000000
43797.000000
44721.000000
45659.000000
46606.000000
47517.000000
48443.000000
49385.000000
50324.000000
51247.000000
52173.000000
53099.000000
54002.000000
54900.000000
55850.000000
56810.000000
57736.000000
58668.000000
59635.000000
60604.000000
61523.000000
62469.000000
63414.000000
64341.000000
65254.000000
66192.000000
67117.000000
68000.000000
68876.000000
69770.000000
70688.000000
71595.000000
72493.000000
73436.000000
74388.000000
75335.000000
76230.000000
77117.000000
78010.000000
78911.000000
79800.000000
80713.000000
81657.000000
82672.000000
83636.000000
84541.000000
85447.000000
86313.000000
87137.000000
87932.000000
88697.000000
89479.000000
90290.000000
91126.000000
92031.000000
92968.000000
93888.000000
94783.000000
95706.000000
96640.000000
97557.000000
98450.000000
99333.000000
100230.000000
101132.000000
102014.000000
102929.000000
103866.000000
104822.000000
105747.000000
106667.000000
107602.000000
108538.000000
109463.000000
110339.000000
111216.000000
112094.000000
112999.000000
113913.000000
114824.000000
115794.000000
116807.000000
117818.000000
118770.000000
119733.000000
120714.000000
121663.000000
122599.000000
123590.000000
124616.000000
125626.000000
126595.000000
127570.000000
128512.000000
129465.000000
130395.000000
131317.000000
132258.000000
133177.000000
134058.000000
134922.000000
135794.000000
136630.000000
137427.000000
138269.000000
139147.000000
140034.000000
140981.000000
141931.000000
142858.000000
143761.000000
144692.000000
145616.000000
146508.000000
147380.000000
148255.000000
149160.000000
150078.000000
151001.000000
151898.000000
152805.000000
153734.000000
154661.000000
155563.000000
156483.000000
157418.000000
158323.000000
159229.000000
160108.000000
160999.000000
161938.000000
162907.000000
163859.000000
164766.000000
165692.000000
166615.000000
167529.000000
168430.000000
169366.000000
170320.000000
171272.000000
172195.000000
173132.000000
174076.000000
175021.000000
175933.000000
176828.000000
177741.000000
178662.000000
179606.000000
180531.000000
181496.000000
182475.000000
183465.000000
184412.000000
185368.000000
186305.000000
187240.000000
188140.000000
189060.000000
189992.000000
190940.000000
191850.000000
192729.000000
193630.000000
194503.000000
195344.000000
196180.000000
196995.000000
197781.000000
198603.000000
199411.000000
200194.000000
201005.000000
201846.000000
202716.000000
203647.000000
204595.000000
205505.000000
206393.000000
207298.000000
208212.000000
209115.000000
209989.000000
210895.000000
211840.000000
212795.000000
213724.000000
214638.000000
215592.000000
216544.000000
217465.000000
218367.000000
219282.000000
220214.000000
221122.000000
222026.000000
222963.000000
223913.000000
224851.000000
225754.000000
226668.000000
227575.000000
228487.000000
229385.000000
230280.000000
231196.000000
232114.000000
233008.000000
233906.000000
234823.000000
235733.000000
236630.000000
237496.000000
238386.000000
239288.000000
240192.000000
241120.000000
242202.000000
243252.000000
244234.000000
245219.000000
246181.000000
247120.000000
248024.000000
248958.000000
249875.000000
250783.000000
251678.000000
252644.000000
253625.000000
254599.000000
255528.000000
256481.000000
257436.000000
258381.000000
259290.000000
260222.000000
261153.000000
262091.000000
262994.000000
263931.000000
264838.000000
265728.000000
266585.000000
267453.000000
268346.000000
269279.000000
270240.000000
271145.000000
272126.000000
273054.000000
273972.000000
274888.000000
275799.000000
276714.000000
277602.000000
278466.000000
279334.000000
280190.000000
281041.000000
281872.000000
282676.000000
283449.000000
284236.000000
285074.000000
285941.000000
286929.000000
287930.000000
288942.000000
289900.000000
290861.000000
291844.000000
292817.000000
293743.000000
294660.000000
295607.000000
296560.000000
297508.000000
298424.000000
299337.000000
300242.000000
301152.000000
302041.000000
302934.000000
303863.000000
304799.000000
305730.000000
306631.000000
307580.000000
308535.000000
309475.000000
310399.000000
311370.000000
312370.000000
313351.000000
314296.000000
315286.000000
316265.000000
317222.000000
318143.000000
319071.000000
320000.000000
320939.000000
321846.000000
322769.000000
323699.000000
324643.000000
325558.000000
326442.000000
327344.000000
328260.000000
329227.000000
330218.000000
331221.000000
332257.000000
333287.000000
334230.000000
335145.000000
336042.000000
336921.000000
337776.000000
338630.000000
339542.000000
340498.000000
341469.000000
342417.000000
343375.000000
344317.000000
345275.000000
346199.000000
347108.000000
348024.000000
348935.000000
349818.000000
350690.000000
351567.000000
352443.000000
353326.000000
354205.000000
355143.000000
356106.000000
357067.000000
357984.000000
358941.000000
359861.000000
360787.000000
361681.000000
362570.000000
363481.000000
364410.000000
365325.000000
366230.000000
367175.000000
368122.000000
369056.000000
369953.000000
370833.000000
371754.000000
372708.000000
373688.000000
374587.000000
375533.000000
376463.000000
377403.000000
378335.000000
379273.000000
380248.000000
381219.000000
382144.000000
383095.000000
384042.000000
384979.000000
385891.000000
386820.000000
387735.000000
388645.000000
389540.000000
390483.000000
391442.000000
392383.000000
393280.000000
394207.000000
395111.000000
396009.000000
396889.000000
397768.000000
398759.000000
399749.000000
400733.000000
401687.000000
402651.000000
403623.000000
404565.000000
405472.000000
406383.000000
407299.000000
408223.000000
409129.000000
410040.000000
410977.000000
411926.000000
412849.000000
413726.000000
414607.000000
415469.000000
416305.000000
417103.000000
417958.000000
418899.000000
419826.000000
420835.000000
421886.000000
422949.000000
423917.000000
424932.000000
425944.000000
426957.000000
427902.000000
428858.000000
429799.000000
430743.000000
431659.000000
432561.000000
433509.000000
434471.000000
435414.000000
436332.000000
437280.000000
438236.000000
439168.000000
440079.000000
441038.000000
442015.000000
443002.000000
443953.000000
444884.000000
445858.000000
446850.000000
447834.000000
448782.000000
449670.000000
450548.000000
451412.000000
452242.000000
453065.000000
453933.000000
454894.000000
455976.000000
457100.000000
458130.000000
459190.000000
460222.000000
461208.000000
462137.000000
463092.000000
464036.000000
464962.000000
465844.000000
466751.000000
467659.000000
468595.000000
469522.000000
470427.000000
471353.000000
472286.000000
473220.000000
474126.000000
475015.000000
475939.000000
476873.000000
477800.000000
478691.000000
479611.000000
480530.000000
481450.000000
482359.000000
483267.000000
484193.000000
485148.000000
486113.000000
487028.000000
487932.000000
488845.000000
489769.000000
490697.000000
491593.000000
492515.000000
493451.000000
494379.000000
495304.000000
496211.000000
497135.000000
498055.000000
498965.000000
499861.000000
500787.000000
501756.000000
502710.000000
503629.000000
504513.000000
505434.000000
506351.000000
507256.000000
508133.000000
509030.000000
509928.000000
510855.000000
511778.000000
512723.000000
513680.000000
514631.000000
515559.000000
516497.000000
517488.000000
518484.000000
519485.000000
520426.000000
521339.000000
522280.000000
523255.000000
524225.000000
525166.000000
526095.000000
527057.000000
528035.000000
528976.000000
529896.000000
530853.000000
531821.000000
532778.000000
533705.000000
534668.000000
535637.000000
536610.000000
537540.000000
538476.000000
539425.000000
540378.000000
541326.000000
542233.000000
543181.000000
544140.000000
545111.000000
546047.000000
546966.000000
547895.000000
548825.000000
549733.000000
550647.000000
551591.000000
552531.000000
553442.000000
554339.000000
555277.000000
556227.000000
557171.000000
558071.000000
558981.000000
559894.000000
560838.000000
561740.000000
562645.000000
563566.000000
564486.000000
565402.000000
566316.000000
567259.000000
568234.000000
569222.000000
570172.000000
571169.000000
572202.000000
573203.000000
574159.000000
575161.000000
576183.000000
577190.000000
578124.000000
579102.000000
580085.000000
581053.000000
581989.000000
582948.000000
583910.000000
584881.000000
585821.000000
586732.000000
587673.000000
588643.000000
589606.000000
590528.000000
591478.000000
592394.000000
593292.000000
594157.000000
595031.000000
595941.000000
596916.000000
597932.000000
598916.000000
599845.000000
600810.000000
601802.000000
602767.000000
603684.000000
604623.000000
605546.000000
606458.000000
607359.000000
608252.000000
609204.000000
610176.000000
611150.000000
612103.000000
613078.000000
614046.000000
614988.000000
615920.000000
616896.000000
617919.000000
618902.000000
619835.000000
620802.000000
621766.000000
622724.000000
623623.000000
624517.000000
625389.000000
626265.000000
627132.000000
628002.000000
628882.000000
629792.000000
630678.000000
631541.000000
632440.000000
633344.000000
634256.000000
635162.000000
636129.000000
637105.000000
638092.000000
639042.000000
639977.000000
640885.000000
641795.000000
642691.000000
643684.000000
644699.000000
645772.000000
646794.000000
647839.000000
648875.000000
649866.000000
650799.000000
651759.000000
652713.000000
653652.000000
654568.000000
655468.000000
656420.000000
657406.000000
658382.000000
659309.000000
660235.000000
661153.000000
662065.000000
662965.000000
663872.000000
664844.000000
665888.000000
666956.000000
667936.000000
668915.000000
669896.000000
670861.000000
671796.000000
672778.000000
673757.000000
674704.000000
675618.000000
676575.000000
677520.000000
678477.000000
679391.000000
680364.000000
681310.000000
682258.000000
683186.000000
684099.000000
685030.000000
685977.000000
686902.000000
687799.000000
688725.000000
689655.000000
690588.000000
691509.000000
692410.000000
693339.000000
694276.000000
695228.000000
696160.000000
697070.000000
698011.000000
698966.000000
699923.000000
700864.000000
701776.000000
702734.000000
703699.000000
704689.000000
705599.000000
706505.000000
707404.000000
708352.000000
709280.000000
710244.000000
711324.000000
712489.000000
713539.000000
714529.000000
715525.000000
716520.000000
717470.000000
718392.000000
719372.000000
720332.000000
721301.000000
722233.000000
723215.000000
724185.000000
725149.000000
726075.000000
727033.000000
728000.000000
728969.000000
729908.000000
730837.000000
731797.000000
732770.000000
733732.000000
734632.000000
735542.000000
736435.000000
737334.000000
738213.000000
739089.000000
740021.000000
740960.000000
741907.000000
742824.000000
743774.000000
744755.000000
745748.000000
746678.000000
747634.000000
748625.000000
749631.000000
750635.000000
751594.000000
752578.000000
753552.000000
754514.000000
755442.000000
756370.000000
757323.000000
758268.000000
759202.000000
760101.000000
761018.000000
761934.000000
762830.000000
763722.000000
764632.000000
765552.000000
766466.000000
767380.000000
768440.000000
769501.000000
770563.000000
771569.000000
772648.000000
773689.000000
774697.000000
775665.000000
776655.000000
777644.000000
778625.000000
779572.000000
780559.000000
781533.000000
782464.000000
783354.000000
784242.000000
785190.000000
786224.000000
787235.000000
788209.000000
789230.000000
790248.000000
791218.000000
792147.000000
793123.000000
794092.000000
795042.000000
795963.000000
796949.000000
797942.000000
798947.000000
799909.000000
800854.000000
801783.000000
802716.000000
803637.000000
804629.000000
805680.000000
806749.000000
807741.000000
808746.000000
809736.000000
810726.000000
811668.000000
812613.000000
813560.000000
814501.000000
815405.000000
816293.000000
817218.000000
818165.000000
819109.000000
820026.000000
820954.000000
821880.000000
822809.000000
823709.000000
824593.000000
825520.000000
826455.000000
827373.000000
828274.000000
829194.000000
830114.000000
831035.000000
831967.000000
832877.000000
833818.000000
834817.000000
835735.000000
836687.000000
837647.000000
838657.000000
839601.000000
840522.000000
841453.000000
842436.000000
843409.000000
844359.000000
845266.000000
846213.000000
847161.000000
848087.000000
848993.000000
849947.000000
850918.000000
851859.000000
852770.000000
853732.000000
854677.000000
855613.000000
856522.000000
857488.000000
858485.000000
859478.000000
860437.000000
861445.000000
862437.000000
863394.000000
864297.000000
865170.000000
866067.000000
866975.000000
867888.000000
868833.000000
869908.000000
870999.000000
872060.000000
873023.000000
873997.000000
874979.000000
875951.000000
876895.000000
877885.000000
878864.000000
879842.000000
880790.000000
881755.000000
882714.000000
883664.000000
884601.000000
885527.000000
886468.000000
887419.000000
888337.000000
889203.000000
890075.000000
890937.000000
891840.000000
892743.000000
893680.000000
894719.000000
895776.000000
896829.000000
897870.000000
898816.000000
899728.000000
900669.000000
901641.000000
902604.000000
903545.000000
904461.000000
905412.000000
906365.000000
907339.000000
908306.000000
909230.000000
910127.000000
911047.000000
911981.000000
912921.000000
913839.000000
914750.000000
915689.000000
916611.000000
917503.000000
918398.000000
919310.000000
920205.000000
921077.000000
921971.000000
922891.000000
923812.000000
924704.000000
925614.000000
926555.000000
927515.000000
928434.000000
929351.000000
930285.000000
931237.000000
932162.000000
933099.000000
934056.000000
934998.000000
935917.000000
936822.000000
937766.000000
938703.000000
939619.000000
940524.000000
941481.000000
942456.000000
943410.000000
944341.000000
945314.000000
946274.000000
947198.000000
948091.000000
949000.000000
949914.000000
950839.000000
951734.000000
952630.000000
953534.000000
954461.000000
955393.000000
956313.000000
957282.000000
958277.000000
959240.000000
960164.000000
961131.000000
962101.000000
963033.000000
963970.000000
964904.000000
965853.000000
966780.000000
967686.000000
968621.000000
969564.000000
970507.000000
971454.000000
972467.000000
973517.000000
974508.000000
975460.000000
976407.000000
977342.000000
978262.000000
979203.000000
980186.000000
981175.000000
982169.000000
983136.000000
984126.000000
985114.000000
986084.000000
986997.000000
987919.000000
988834.000000
989757.000000
990659.000000
991551.000000
992461.000000
993361.000000
994252.000000
995126.000000
996030.000000
996926.000000
997850.000000
998753.000000
999652.000000
1000566.000000
1001488.000000
1002389.000000
1003278.000000
1004207.000000
1005177.000000
1006190.000000
1007153.000000
1008094.000000
1009089.000000
1010071.000000
1011017.000000
1011935.000000
1012900.000000
1013871.000000
1014830.000000
1015744.000000
1016646.000000
1017582.000000
1018546.000000
1019502.000000
1020448.000000
1021444.000000
1022423.000000
1023380.000000
1024321.000000
1025298.000000
1026268.000000
1027233.000000
1028171.000000
1029102.000000
1030043.000000
1030962.000000
1031873.000000
1032768.000000
1033672.000000
1034623.000000
1035669.000000
1036708.000000
1037729.000000
1038789.000000
1039864.000000
1040870.000000
1041915.000000
1042937.000000
1043923.000000
1044873.000000
1045851.000000
1046853.000000
1047828.000000
1048771.000000
1049741.000000
1050719.000000
1051667.000000
1052581.000000
1053487.000000
1054412.000000
1055349.000000
1056291.000000
1057219.000000
1058173.000000
1059153.000000
1060138.000000
1061098.000000
1062046.000000
1063022.000000
1064001.000000
1064963.000000
1065866.000000
1066769.000000
1067651.000000
1068548.000000
1069438.000000
1070338.000000
1071301.000000
1072266.000000
1073203.000000
1074119.000000
1075080.000000
1076035.000000
1076968.000000
1077873.000000
1078816.000000
1079750.000000
1080669.000000
1081571.000000
1082515.000000
1083462.000000
1084393.000000
1085296.000000
1086246.000000
1087189.000000
1088129.000000
1089035.000000
1089904.000000
1090793.000000
1091698.000000
1092752.000000
1093746.000000
1094737.000000
1095832.000000
1097004.000000
1098046.000000
1099002.000000
1099960.000000
1100943.000000
1101943.000000
1102912.000000
1103909.000000
1104937.000000
1105925.000000
1106868.000000
1107869.000000
1108884.000000
1109928.000000
1110940.000000
1111996.000000
1113045.000000
1114061.000000
1115012.000000
1115989.000000
1116945.000000
1117894.000000
1118811.000000
1119735.000000
1120696.000000
1121656.000000
1122586.000000
1123502.000000
1124451.000000
1125398.000000
1126331.000000
1127242.000000
1128195.000000
1129136.000000
1130078.000000
1130996.000000
1131924.000000
1132873.000000
1133819.000000
1134738.000000
1135629.000000
1136544.000000
1137448.000000
1138364.000000
1139257.000000
1140184.000000
1141123.000000
1142070.000000
1142989.000000
1143904.000000
1144857.000000
1145811.000000
1146767.000000
1147695.000000
1148647.000000
1149595.000000
1150576.000000
1151512.000000
1152423.000000
1153383.000000
1154338.000000
1155305.000000
1156265.000000
1157262.000000
1158274.000000
1159290.000000
1160252.000000
1161176.000000
1162118.000000
1163060.000000
1164014.000000
1164956.000000
1165902.000000
1166882.000000
1167958.000000
1169056.000000
1170150.000000
1171231.000000
1172266.000000
1173209.000000
1174189.000000
1175136.000000
1176036.000000
1176898.000000
1177798.000000
1178746.000000
1179786.000000
1180792.000000
1181915.000000
1183047.000000
1184117.000000
1185106.000000
1186121.000000
1187127.000000
1188098.000000
1189053.000000
1190083.000000
1191124.000000
1192114.000000
1193075.000000
1194082.000000
1195094.000000
1196101.000000
1197046.000000
1198020.000000
1199015.000000
1199688.000000
