ECG (ms)
916.000000
1866.000000
2814.000000
3732.000000
4656.000000
5560.000000
6481.000000
7421.000000
8370.000000
9302.000000
10210.000000
11135.000000
12052.000000
12949.000000
13798.000000
14688.000000
15540.000000
16390.000000
17264.000000
18202.000000
19149.000000
20098.000000
21060.000000
22026.000000
22996.000000
23964.000000
24915.000000
25805.000000
26707.000000
27600.000000
28560.000000
29554.000000
30541.000000
31530.000000
32523.000000
33484.000000
34433.000000
35320.000000
36218.000000
37138.000000
38101.000000
39073.000000
40029.000000
40934.000000
41857.000000
42784.000000
43732.000000
44688.000000
45652.000000
46610.000000
47577.000000
48526.000000
49469.000000
50363.000000
51258.000000
52176.000000
53130.000000
54011.000000
54947.000000
55897.000000
56860.000000
57575.000000
58616.000000
59501.000000
60397.000000
61339.000000
62284.000000
63242.000000
64211.000000
65116.000000
66052.000000
67007.000000
67962.000000
68921.000000
69889.000000
70849.000000
71820.000000
72808.000000
73792.000000
74701.000000
75545.000000
76396.000000
77275.000000
78215.000000
79192.000000
80168.000000
81144.000000
82128.000000
83116.000000
84095.000000
85015.000000
85953.000000
86896.000000
87865.000000
88832.000000
89783.000000
90735.000000
91622.000000
92509.000000
93435.000000
94361.000000
95264.000000
96102.000000
96958.000000
97846.000000
98799.000000
99780.000000
100712.000000
101655.000000
102604.000000
103570.000000
104524.000000
105496.000000
106464.000000
107373.000000
108247.000000
109140.000000
110054.000000
110997.000000
111937.000000
112850.000000
113750.000000
114657.000000
115583.000000
116516.000000
117454.000000
118372.000000
119298.000000
120217.000000
121133.000000
122015.000000
122836.000000
123653.000000
124507.000000
125412.000000
126336.000000
127266.000000
128200.000000
129129.000000
130048.000000
130911.000000
131775.000000
132650.000000
133514.000000
134347.000000
135222.000000
136125.000000
137066.000000
138006.000000
138924.000000
139795.000000
140637.000000
141493.000000
142382.000000
143343.000000
144322.000000
145299.000000
146275.000000
147229.000000
148193.000000
149150.000000
150104.000000
151045.000000
151983.000000
152881.000000
153745.000000
154632.000000
155551.000000
156453.000000
157335.000000
158244.000000
159152.000000
160051.000000
160897.000000
161733.000000
162603.000000
163512.000000
164456.000000
165402.000000
166356.000000
167296.000000
168188.000000
169059.000000
169947.000000
170866.000000
171804.000000
172757.000000
173703.000000
174640.000000
175547.000000
176470.000000
177409.000000
178359.000000
179322.000000
180278.000000
181242.000000
182201.000000
183129.000000
184079.000000
185046.000000
186049.000000
187048.000000
188031.000000
188959.000000
189894.000000
190853.000000
191852.000000
192841.000000
193831.000000
194817.000000
195793.000000
196775.000000
197702.000000
198608.000000
199560.000000
200558.000000
201595.000000
202600.000000
203555.000000
204490.000000
205448.000000
206415.000000
207388.000000
208307.000000
209203.000000
210101.000000
211022.000000
211954.000000
212907.000000
213864.000000
214839.000000
215819.000000
216722.000000
217624.000000
218514.000000
219364.000000
220246.000000
221187.000000
222069.000000
222933.000000
223829.000000
224749.000000
225706.000000
226659.000000
227586.000000
228488.000000
229348.000000
230222.000000
231130.000000
232041.000000
232969.000000
233928.000000
234887.000000
235859.000000
236817.000000
237768.000000
238663.000000
239568.000000
240515.000000
241495.000000
242481.000000
243453.000000
244410.000000
245331.000000
246279.000000
247241.000000
248228.000000
249198.000000
250133.000000
251064.000000
252011.000000
252962.000000
253909.000000
254865.000000
255812.000000
256771.000000
257724.000000
258625.000000
259543.000000
260477.000000
261416.000000
262360.000000
263261.000000
264186.000000
265144.000000
266136.000000
267139.000000
268088.000000
268984.000000
269874.000000
270779.000000
271712.000000
272626.000000
273510.000000
274427.000000
275371.000000
276336.000000
277305.000000
278271.000000
279236.000000
280190.000000
281134.000000
282077.000000
283018.000000
283957.000000
284883.000000
285751.000000
286573.000000
287396.000000
288297.000000
289269.000000
290268.000000
291223.000000
292123.000000
293001.000000
293915.000000
294843.000000
295782.000000
296715.000000
297655.000000
298605.000000
299557.000000
300497.000000
301455.000000
302417.000000
303336.000000
304200.000000
305085.000000
305988.000000
306916.000000
307872.000000
308834.000000
309819.000000
310806.000000
311770.000000
312735.000000
313701.000000
314644.000000
315607.000000
316567.000000
317454.000000
318334.000000
319256.000000
320176.000000
321136.000000
322125.000000
323118.000000
324105.000000
325072.000000
326036.000000
327010.000000
327975.000000
328912.000000
329797.000000
330714.000000
331645.000000
332620.000000
333602.000000
334575.000000
335482.000000
336350.000000
337244.000000
338169.000000
339112.000000
340067.000000
341023.000000
341960.000000
342840.000000
343740.000000
344658.000000
345582.000000
346439.000000
347295.000000
348123.000000
348952.000000
349827.000000
350749.000000
351683.000000
352643.000000
353592.000000
354517.000000
355396.000000
356289.000000
357191.000000
358137.000000
359101.000000
360080.000000
361045.000000
362016.000000
362977.000000
363921.000000
364869.000000
365808.000000
366783.000000
367777.000000
368760.000000
369744.000000
370672.000000
371554.000000
372465.000000
373420.000000
374404.000000
375376.000000
376278.000000
377188.000000
378105.000000
379054.000000
380033.000000
381032.000000
382010.000000
382966.000000
383922.000000
384891.000000
385825.000000
386711.000000
387628.000000
388612.000000
389622.000000
390571.000000
391526.000000
392483.000000
393470.000000
394458.000000
395395.000000
396328.000000
397259.000000
398186.000000
399108.000000
400023.000000
400966.000000
401936.000000
402904.000000
403845.000000
404758.000000
405680.000000
406620.000000
407601.000000
408588.000000
409571.000000
410508.000000
411470.000000
412462.000000
413457.000000
414456.000000
415439.000000
416423.000000
417413.000000
418414.000000
419409.000000
420406.000000
421400.000000
422301.000000
423154.000000
424057.000000
425038.000000
425961.000000
426869.000000
427834.000000
428806.000000
429736.000000
430614.000000
431509.000000
432409.000000
433333.000000
434283.000000
435265.000000
436221.000000
437085.000000
437931.000000
438829.000000
439776.000000
440726.000000
441697.000000
442678.000000
443657.000000
444604.000000
445473.000000
446322.000000
447211.000000
448143.000000
449025.000000
449903.000000
450832.000000
451754.000000
452660.000000
453512.000000
454380.000000
455274.000000
456216.000000
457169.000000
458111.000000
459050.000000
459992.000000
460916.000000
461853.000000
462806.000000
463763.000000
464727.000000
465660.000000
466550.000000
467472.000000
468417.000000
469400.000000
470376.000000
471349.000000
472329.000000
473298.000000
474269.000000
475256.000000
476250.000000
477235.000000
478222.000000
479177.000000
480071.000000
480980.000000
481907.000000
482887.000000
483903.000000
484884.000000
485807.000000
486749.000000
487728.000000
488732.000000
489742.000000
490770.000000
491790.000000
492800.000000
493739.000000
494633.000000
495551.000000
496504.000000
497530.000000
498536.000000
499485.000000
500428.000000
501390.000000
502362.000000
503327.000000
504318.000000
505272.000000
506134.000000
506982.000000
507852.000000
508742.000000
509605.000000
510467.000000
511366.000000
512263.000000
513129.000000
513999.000000
514877.000000
515764.000000
516676.000000
517585.000000
518492.000000
519350.000000
520143.000000
520889.000000
521674.000000
522543.000000
523489.000000
524448.000000
525419.000000
526289.000000
527129.000000
527972.000000
528887.000000
529905.000000
530841.000000
531703.000000
532594.000000
533528.000000
534489.000000
535462.000000
536434.000000
537373.000000
538271.000000
539182.000000
540110.000000
541055.000000
542008.000000
542945.000000
543858.000000
544732.000000
545607.000000
546495.000000
547410.000000
548338.000000
549273.000000
550226.000000
551155.000000
552023.000000
552850.000000
553640.000000
554522.000000
555437.000000
556398.000000
557388.000000
558376.000000
559373.000000
560364.000000
561364.000000
562349.000000
563322.000000
564272.000000
565202.000000
566094.000000
566990.000000
567897.000000
568824.000000
569790.000000
570796.000000
571791.000000
572671.000000
573472.000000
574325.000000
575346.000000
576418.000000
577378.000000
578219.000000
579079.000000
580035.000000
581084.000000
582118.000000
583034.000000
583976.000000
584930.000000
585883.000000
586861.000000
587871.000000
588889.000000
589899.000000
590879.000000
591801.000000
592712.000000
593647.000000
594610.000000
595555.000000
596514.000000
597455.000000
598362.000000
599289.000000
600236.000000
601211.000000
602200.000000
603203.000000
604191.000000
605109.000000
605982.000000
606867.000000
607784.000000
608737.000000
609701.000000
610650.000000
611582.000000
612512.000000
613444.000000
614307.000000
615172.000000
616039.000000
616872.000000
617664.000000
618491.000000
619311.000000
620222.000000
621154.000000
622070.000000
622959.000000
623821.000000
624705.000000
625595.000000
626490.000000
627397.000000
628304.000000
629202.000000
630065.000000
630900.000000
631735.000000
632593.000000
633487.000000
634425.000000
635348.000000
636244.000000
637188.000000
638117.000000
639070.000000
640011.000000
640934.000000
641823.000000
642714.000000
643627.000000
644530.000000
645445.000000
646387.000000
647312.000000
648220.000000
649124.000000
650022.000000
650887.000000
651743.000000
652598.000000
653431.000000
654264.000000
655159.000000
656074.000000
657012.000000
657945.000000
658883.000000
659823.000000
660779.000000
661736.000000
662720.000000
663687.000000
664595.000000
665432.000000
666230.000000
667092.000000
668089.000000
669102.000000
670143.000000
671168.000000
672174.000000
673174.000000
674153.000000
675127.000000
676076.000000
676995.000000
677873.000000
678733.000000
679589.000000
680487.000000
681422.000000
682372.000000
683307.000000
684222.000000
685113.000000
686000.000000
686898.000000
687824.000000
688720.000000
689549.000000
690379.000000
691228.000000
692112.000000
692927.000000
693811.000000
694792.000000
695787.000000
696734.000000
697646.000000
698527.000000
699399.000000
700276.000000
701169.000000
702091.000000
703031.000000
703968.000000
704919.000000
705867.000000
706813.000000
707676.000000
708476.000000
709310.000000
710379.000000
711363.000000
712346.000000
713351.000000
714338.000000
715303.000000
716215.000000
717088.000000
717935.000000
718810.000000
719702.000000
720584.000000
721428.000000
722305.000000
723220.000000
724121.000000
725030.000000
725968.000000
726899.000000
727796.000000
728635.000000
729461.000000
730306.000000
731141.000000
731922.000000
732674.000000
733392.000000
734104.000000
734836.000000
735629.000000
736456.000000
737267.000000
738110.000000
738976.000000
739875.000000
740776.000000
741675.000000
742571.000000
743477.000000
744360.000000
745202.000000
745997.000000
746790.000000
747604.000000
748536.000000
749540.000000
750556.000000
751519.000000
752433.000000
753361.000000
754295.000000
755244.000000
756188.000000
757082.000000
757986.000000
758913.000000
759862.000000
760843.000000
761806.000000
762729.000000
763650.000000
764575.000000
765543.000000
766504.000000
767434.000000
768374.000000
769330.000000
770293.000000
771262.000000
772208.000000
773116.000000
774037.000000
774978.000000
775916.000000
776847.000000
777758.000000
778658.000000
779558.000000
780436.000000
781267.000000
782119.000000
782997.000000
783901.000000
784815.000000
785720.000000
786586.000000
787430.000000
788278.000000
789142.000000
790017.000000
790867.000000
791722.000000
792555.000000
793364.000000
794151.000000
794967.000000
795764.000000
796561.000000
797430.000000
798309.000000
799212.000000
800141.000000
801071.000000
801998.000000
802927.000000
803853.000000
804786.000000
805714.000000
806653.000000
807610.000000
808557.000000
809419.000000
810265.000000
811143.000000
812058.000000
813033.000000
814001.000000
814960.000000
815912.000000
816846.000000
817733.000000
818646.000000
819546.000000
820396.000000
821255.000000
822147.000000
823072.000000
823989.000000
824931.000000
825847.000000
826749.000000
827657.000000
828558.000000
829397.000000
830210.000000
831058.000000
831953.000000
832933.000000
833933.000000
834912.000000
835869.000000
836762.000000
837617.000000
838494.000000
839383.000000
840288.000000
841211.000000
842146.000000
843051.000000
843930.000000
844833.000000
845734.000000
846678.000000
847630.000000
848587.000000
849527.000000
850428.000000
851316.000000
852211.000000
853111.000000
854042.000000
854992.000000
855943.000000
856891.000000
857839.000000
858749.000000
859589.000000
860419.000000
861276.000000
862229.000000
863235.000000
864254.000000
865266.000000
866277.000000
867255.000000
868199.000000
869130.000000
870040.000000
870908.000000
871731.000000
872582.000000
873441.000000
874280.000000
875088.000000
875939.000000
876808.000000
877690.000000
878542.000000
879406.000000
880255.000000
881119.000000
881997.000000
882889.000000
883759.000000
884642.000000
885544.000000
886471.000000
887413.000000
888367.000000
889307.000000
890226.000000
891146.000000
892030.000000
892881.000000
893757.000000
894657.000000
895592.000000
896554.000000
897485.000000
898375.000000
899242.000000
