ECG (ms)
473.000000
1364.000000
2347.000000
3351.000000
4322.000000
5366.000000
6423.000000
7403.000000
8423.000000
9433.000000
10386.000000
11356.000000
12355.000000
13346.000000
14302.000000
15308.000000
16331.000000
17341.000000
18333.000000
19348.000000
20364.000000
21356.000000
22397.000000
23434.000000
24448.000000
25448.000000
26476.000000
27493.000000
28472.000000
29459.000000
30462.000000
31470.000000
32435.000000
33440.000000
34468.000000
35481.000000
36479.000000
37513.000000
38531.000000
39512.000000
40533.000000
41552.000000
42543.000000
43590.000000
44630.000000
45628.000000
46664.000000
47702.000000
48711.000000
49761.000000
50815.000000
51828.000000
52882.000000
53914.000000
54915.000000
55909.000000
56941.000000
57950.000000
58951.000000
59977.000000
60984.000000
61948.000000
62940.000000
63959.000000
64969.000000
65936.000000
66924.000000
67924.000000
68900.000000
69912.000000
70917.000000
71922.000000
72891.000000
73902.000000
74924.000000
75957.000000
76950.000000
77963.000000
78974.000000
79954.000000
80932.000000
81963.000000
82964.000000
83955.000000
84988.000000
86004.000000
86992.000000
88028.000000
89097.000000
90127.000000
91139.000000
92173.000000
93185.000000
94097.000000
94956.000000
95816.000000
96809.000000
97766.000000
98718.000000
99733.000000
100769.000000
101768.000000
102764.000000
103769.000000
104754.000000
105707.000000
106678.000000
107649.000000
108608.000000
109595.000000
110656.000000
111722.000000
112723.000000
113723.000000
114746.000000
115771.000000
116766.000000
117784.000000
118833.000000
119896.000000
120919.000000
121920.000000
122947.000000
123969.000000
124952.000000
125938.000000
126935.000000
127911.000000
128897.000000
129946.000000
130976.000000
131964.000000
132973.000000
134042.000000
135070.000000
136052.000000
137075.000000
138116.000000
139132.000000
140105.000000
141143.000000
142207.000000
143221.000000
144233.000000
145288.000000
146312.000000
147287.000000
148276.000000
149300.000000
150306.000000
151296.000000
152345.000000
153388.000000
154398.000000
155421.000000
156456.000000
157489.000000
158460.000000
159432.000000
160443.000000
161436.000000
162400.000000
163347.000000
164243.000000
165109.000000
166039.000000
166980.000000
167906.000000
168902.000000
169907.000000
170895.000000
171928.000000
172972.000000
173974.000000
175010.000000
176071.000000
177094.000000
178132.000000
179221.000000
180326.000000
181412.000000
182468.000000
183541.000000
184588.000000
185578.000000
186622.000000
187673.000000
188665.000000
189634.000000
190680.000000
191735.000000
192744.000000
193799.000000
194846.000000
195846.000000
196828.000000
197872.000000
198954.000000
199992.000000
201002.000000
202060.000000
203117.000000
204118.000000
205152.000000
206245.000000
207360.000000
208446.000000
209445.000000
210464.000000
211520.000000
212536.000000
213536.000000
214513.000000
215417.000000
216282.000000
217188.000000
218166.000000
219138.000000
220129.000000
221204.000000
222244.000000
223226.000000
224235.000000
225248.000000
226225.000000
227197.000000
228212.000000
229228.000000
230199.000000
231220.000000
232277.000000
233312.000000
234343.000000
235403.000000
236470.000000
237486.000000
238508.000000
239569.000000
240632.000000
241707.000000
242722.000000
243689.000000
244680.000000
245730.000000
246740.000000
247766.000000
248846.000000
249927.000000
250963.000000
252018.000000
253062.000000
254073.000000
255093.000000
256170.000000
257222.000000
258225.000000
259211.000000
260227.000000
261232.000000
262206.000000
263235.000000
264276.000000
265223.000000
266118.000000
267031.000000
267994.000000
268967.000000
269908.000000
270891.000000
271893.000000
272889.000000
273875.000000
274905.000000
276000.000000
277056.000000
278059.000000
279101.000000
280162.000000
281197.000000
282204.000000
283252.000000
284296.000000
285308.000000
286342.000000
287420.000000
288478.000000
289506.000000
290556.000000
291621.000000
292641.000000
293667.000000
294737.000000
295817.000000
296858.000000
297911.000000
298961.000000
299966.000000
300968.000000
301996.000000
303033.000000
304035.000000
305070.000000
306115.000000
307097.000000
308092.000000
309121.000000
310126.000000
311104.000000
312128.000000
313195.000000
314274.000000
315304.000000
316289.000000
317304.000000
318337.000000
319338.000000
320309.000000
321318.000000
322313.000000
323289.000000
324270.000000
325315.000000
326345.000000
327343.000000
328390.000000
329468.000000
330483.000000
331497.000000
332568.000000
333618.000000
334651.000000
335702.000000
336710.000000
337671.000000
338678.000000
339722.000000
340726.000000
341759.000000
342830.000000
343855.000000
344849.000000
345878.000000
346836.000000
347728.000000
348599.000000
349568.000000
350558.000000
351529.000000
352588.000000
353651.000000
354668.000000
355734.000000
356794.000000
357813.000000
358816.000000
359882.000000
360966.000000
362012.000000
363041.000000
364110.000000
365151.000000
366154.000000
367201.000000
368285.000000
369332.000000
370353.000000
371392.000000
372434.000000
373439.000000
374427.000000
375457.000000
376483.000000
377479.000000
378487.000000
379553.000000
380589.000000
381627.000000
382708.000000
383767.000000
384763.000000
385767.000000
386795.000000
387793.000000
388790.000000
389846.000000
390885.000000
391884.000000
392925.000000
394013.000000
395141.000000
396168.000000
397218.000000
398294.000000
399326.000000
400350.000000
401444.000000
402540.000000
403578.000000
404584.000000
405639.000000
406737.000000
407793.000000
408797.000000
409800.000000
410808.000000
411774.000000
412732.000000
413730.000000
414735.000000
415699.000000
416673.000000
417595.000000
418459.000000
419327.000000
420249.000000
421176.000000
422127.000000
423144.000000
424184.000000
425180.000000
426206.000000
427248.000000
428254.000000
429302.000000
430370.000000
431376.000000
432419.000000
433490.000000
434567.000000
435625.000000
436722.000000
437814.000000
438848.000000
439839.000000
440875.000000
441897.000000
442920.000000
444033.000000
445105.000000
446109.000000
447100.000000
448090.000000
449047.000000
449983.000000
450936.000000
451905.000000
452859.000000
453803.000000
454786.000000
455718.000000
456592.000000
457458.000000
458388.000000
459359.000000
460314.000000
461327.000000
462347.000000
463335.000000
464352.000000
465344.000000
466299.000000
467264.000000
468262.000000
469241.000000
470215.000000
471265.000000
472331.000000
473418.000000
474455.000000
475515.000000
476554.000000
477550.000000
478513.000000
479495.000000
480488.000000
481465.000000
482435.000000
483443.000000
484485.000000
485478.000000
486483.000000
487490.000000
488478.000000
489444.000000
490423.000000
491439.000000
492403.000000
493375.000000
494354.000000
495285.000000
496243.000000
497235.000000
498195.000000
499147.000000
500121.000000
501022.000000
501882.000000
502791.000000
503760.000000
504722.000000
505758.000000
506837.000000
507866.000000
508909.000000
509964.000000
510979.000000
511969.000000
513024.000000
514092.000000
515161.000000
516219.000000
517279.000000
518310.000000
519281.000000
520277.000000
521306.000000
522335.000000
523320.000000
524357.000000
525413.000000
526446.000000
527484.000000
528570.000000
529628.000000
530634.000000
531645.000000
532692.000000
533756.000000
534798.000000
535866.000000
536958.000000
538043.000000
539072.000000
540069.000000
541109.000000
542163.000000
543187.000000
544220.000000
545274.000000
546295.000000
547272.000000
548305.000000
549368.000000
550408.000000
551474.000000
552599.000000
553683.000000
554692.000000
555666.000000
556573.000000
557445.000000
558388.000000
559333.000000
560349.000000
561368.000000
562364.000000
563402.000000
564462.000000
565465.000000
566448.000000
567457.000000
568480.000000
569457.000000
570389.000000
571400.000000
572438.000000
573458.000000
574485.000000
575596.000000
576737.000000
577880.000000
579009.000000
580111.000000
581129.000000
582160.000000
583190.000000
584185.000000
585183.000000
586217.000000
587235.000000
588226.000000
589279.000000
590345.000000
591361.000000
592423.000000
593499.000000
594551.000000
595575.000000
596645.000000
597702.000000
598706.000000
599679.000000
600685.000000
601724.000000
602723.000000
603734.000000
604768.000000
605817.000000
606847.000000
607903.000000
608966.000000
609940.000000
610947.000000
611943.000000
612854.000000
613743.000000
614700.000000
615662.000000
616604.000000
617592.000000
618590.000000
619545.000000
620541.000000
621574.000000
622568.000000
623553.000000
624577.000000
625601.000000
626579.000000
627588.000000
628603.000000
629583.000000
630601.000000
631669.000000
632729.000000
633783.000000
634843.000000
635874.000000
636873.000000
637936.000000
639006.000000
640046.000000
641060.000000
642124.000000
643183.000000
644188.000000
645182.000000
646130.000000
647020.000000
647890.000000
648801.000000
649770.000000
650727.000000
651654.000000
652625.000000
653597.000000
654546.000000
655535.000000
656520.000000
657464.000000
658457.000000
659448.000000
660415.000000
661424.000000
662459.000000
663461.000000
664496.000000
665558.000000
666631.000000
667700.000000
668775.000000
669812.000000
670807.000000
671830.000000
672901.000000
673942.000000
674943.000000
675923.000000
676944.000000
677979.000000
678997.000000
680012.000000
681052.000000
682112.000000
683116.000000
684066.000000
685063.000000
686113.000000
687106.000000
688104.000000
689141.000000
690163.000000
691142.000000
692162.000000
693217.000000
694250.000000
695310.000000
696409.000000
697503.000000
698546.000000
699544.000000
700566.000000
701572.000000
702525.000000
703489.000000
704487.000000
705499.000000
706509.000000
707574.000000
708649.000000
709698.000000
710692.000000
711728.000000
712775.000000
713783.000000
714820.000000
715887.000000
716897.000000
717830.000000
718742.000000
719698.000000
720690.000000
721648.000000
722566.000000
723485.000000
724362.000000
725207.000000
726099.000000
727040.000000
727993.000000
728976.000000
729993.000000
730998.000000
731991.000000
733029.000000
734090.000000
735096.000000
736051.000000
737005.000000
737951.000000
738886.000000
739839.000000
740828.000000
741807.000000
742806.000000
743854.000000
744911.000000
745921.000000
746964.000000
748000.000000
749000.000000
750032.000000
751084.000000
752154.000000
753198.000000
754173.000000
755180.000000
756186.000000
757147.000000
758105.000000
759021.000000
759879.000000
760718.000000
761662.000000
762674.000000
763662.000000
764707.000000
765763.000000
766810.000000
767868.000000
768960.000000
770053.000000
771120.000000
772104.000000
773118.000000
774126.000000
775088.000000
776106.000000
777169.000000
778202.000000
779248.000000
780312.000000
781351.000000
782346.000000
783388.000000
784440.000000
785466.000000
786501.000000
787600.000000
788709.000000
789789.000000
790781.000000
791757.000000
792669.000000
793520.000000
794386.000000
795397.000000
796327.000000
797303.000000
798303.000000
799263.000000
800252.000000
801263.000000
802249.000000
803325.000000
804416.000000
805505.000000
806593.000000
807673.000000
808708.000000
809772.000000
810794.000000
811794.000000
812823.000000
813868.000000
814870.000000
815922.000000
817036.000000
818126.000000
819161.000000
820194.000000
821248.000000
822293.000000
823283.000000
824281.000000
825306.000000
826345.000000
827364.000000
828392.000000
829470.000000
830511.000000
831553.000000
832626.000000
833716.000000
834770.000000
835828.000000
836917.000000
837902.000000
838834.000000
839711.000000
840558.000000
841456.000000
842382.000000
843319.000000
844322.000000
845324.000000
846329.000000
847382.000000
848406.000000
849411.000000
850421.000000
851421.000000
852411.000000
853431.000000
854466.000000
855489.000000
856494.000000
857522.000000
858582.000000
859660.000000
860731.000000
861817.000000
862888.000000
863977.000000
865028.000000
866024.000000
867030.000000
868002.000000
868937.000000
869919.000000
870901.000000
871867.000000
872891.000000
873938.000000
874950.000000
875988.000000
877011.000000
877990.000000
878987.000000
880020.000000
881009.000000
882005.000000
883033.000000
884048.000000
885045.000000
886084.000000
887151.000000
888172.000000
889160.000000
890201.000000
891253.000000
892272.000000
893233.000000
894195.000000
895172.000000
896135.000000
897070.000000
898054.000000
899065.000000
899999.000000
900923.000000
