ECG (ms)
558.000000
1537.000000
2564.000000
3523.000000
4731.000000
5850.000000
6901.000000
8011.000000
9013.000000
10010.000000
11113.000000
12112.000000
13259.000000
14389.000000
15357.000000
16436.000000
17550.000000
18547.000000
19653.000000
20742.000000
21811.000000
22944.000000
23971.000000
25107.000000
26359.000000
27381.000000
28536.000000
29774.000000
30861.000000
31919.000000
32953.000000
33854.000000
34980.000000
36097.000000
37020.000000
37848.000000
38933.000000
40183.000000
41306.000000
42261.000000
43165.000000
44376.000000
45498.000000
46483.000000
47464.000000
48739.000000
49823.000000
50853.000000
51923.000000
53021.000000
54093.000000
55023.000000
55977.000000
57164.000000
58216.000000
59146.000000
60122.000000
61274.000000
62324.000000
63255.000000
64218.000000
65320.000000
66407.000000
67407.000000
68491.000000
69637.000000
70642.000000
71697.000000
72827.000000
73911.000000
74971.000000
76113.000000
77167.000000
78158.000000
79217.000000
80288.000000
81245.000000
82218.000000
83164.000000
83996.000000
84940.000000
85938.000000
86800.000000
87772.000000
88712.000000
89601.000000
90560.000000
91450.000000
92294.000000
93140.000000
93937.000000
94780.000000
95597.000000
96361.000000
97128.000000
97885.000000
98596.000000
99324.000000
100530.000000
101517.000000
102336.000000
103215.000000
104153.000000
105015.000000
106009.000000
107040.000000
108076.000000
109051.000000
110053.000000
111016.000000
111888.000000
112949.000000
114083.000000
115040.000000
116057.000000
117095.000000
117986.000000
118943.000000
120036.000000
120968.000000
122005.000000
123087.000000
124071.000000
125194.000000
126167.000000
127210.000000
128452.000000
129450.000000
130442.000000
131513.000000
132502.000000
133431.000000
134691.000000
135858.000000
136967.000000
138103.000000
139218.000000
140156.000000
141142.000000
142231.000000
143192.000000
144277.000000
145482.000000
146646.000000
147834.000000
148841.000000
149774.000000
150787.000000
151751.000000
152710.000000
154016.000000
155162.000000
156333.000000
157498.000000
158605.000000
159765.000000
160874.000000
161927.000000
163033.000000
164119.000000
165199.000000
166346.000000
167318.000000
168460.000000
169631.000000
170676.000000
171863.000000
172923.000000
173899.000000
175034.000000
176035.000000
176987.000000
178207.000000
179258.000000
180281.000000
181300.000000
182201.000000
183301.000000
184468.000000
185467.000000
186525.000000
187546.000000
188495.000000
189633.000000
190716.000000
191626.000000
192645.000000
193666.000000
194608.000000
195621.000000
196556.000000
197515.000000
198392.000000
199161.000000
199940.000000
201149.000000
202210.000000
203302.000000
204351.000000
205386.000000
206498.000000
207593.000000
208643.000000
209773.000000
210854.000000
211853.000000
212996.000000
214088.000000
215096.000000
216204.000000
217307.000000
218259.000000
219228.000000
220443.000000
221570.000000
222538.000000
223594.000000
224691.000000
225614.000000
226514.000000
227465.000000
228387.000000
229299.000000
230574.000000
231661.000000
232688.000000
233731.000000
234636.000000
235558.000000
236538.000000
237462.000000
238294.000000
239152.000000
240453.000000
241632.000000
242625.000000
243747.000000
244879.000000
245927.000000
246822.000000
247822.000000
248650.000000
249413.000000
250248.000000
251466.000000
252558.000000
253508.000000
254487.000000
255599.000000
256658.000000
257626.000000
258710.000000
259705.000000
260676.000000
261770.000000
262745.000000
263634.000000
264742.000000
265844.000000
266778.000000
267669.000000
268608.000000
269558.000000
270449.000000
271432.000000
272439.000000
273373.000000
274361.000000
275329.000000
276253.000000
277245.000000
278269.000000
279197.000000
280167.000000
281146.000000
282034.000000
282992.000000
284034.000000
285001.000000
286030.000000
287058.000000
287947.000000
288894.000000
289965.000000
290912.000000
291938.000000
293002.000000
293949.000000
294955.000000
296023.000000
296973.000000
297970.000000
298994.000000
299895.000000
300887.000000
301939.000000
302910.000000
304013.000000
305157.000000
306158.000000
307190.000000
308289.000000
309252.000000
310324.000000
311432.000000
312435.000000
313486.000000
314679.000000
315720.000000
316770.000000
317884.000000
318920.000000
319968.000000
321206.000000
322229.000000
323254.000000
324364.000000
325392.000000
326385.000000
327526.000000
328656.000000
329658.000000
330815.000000
331930.000000
332957.000000
334107.000000
335204.000000
336236.000000
337439.000000
338572.000000
339549.000000
340594.000000
341735.000000
342736.000000
343935.000000
345051.000000
346066.000000
347215.000000
348299.000000
349178.000000
350120.000000
351225.000000
352181.000000
353237.000000
354255.000000
355242.000000
356518.000000
357604.000000
358590.000000
359631.000000
360664.000000
361608.000000
362582.000000
363537.000000
364488.000000
365605.000000
366625.000000
367498.000000
368423.000000
369348.000000
370214.000000
371211.000000
372199.000000
373147.000000
374225.000000
375167.000000
376134.000000
377223.000000
378144.000000
379100.000000
380074.000000
380976.000000
381940.000000
382901.000000
383803.000000
384833.000000
385819.000000
386789.000000
387886.000000
388906.000000
389894.000000
390926.000000
391791.000000
392554.000000
393305.000000
394073.000000
395101.000000
395897.000000
396739.000000
397570.000000
398705.000000
399799.000000
400741.000000
401740.000000
402749.000000
403639.000000
404536.000000
405505.000000
406410.000000
407335.000000
408376.000000
409420.000000
410384.000000
411417.000000
412409.000000
413318.000000
414263.000000
415272.000000
416204.000000
417174.000000
418253.000000
419262.000000
420169.000000
421104.000000
422098.000000
423052.000000
424038.000000
425123.000000
426050.000000
427003.000000
428102.000000
429117.000000
430175.000000
431233.000000
432163.000000
433209.000000
434199.000000
435104.000000
436126.000000
437066.000000
437999.000000
438999.000000
439921.000000
440934.000000
441961.000000
442898.000000
444028.000000
445044.000000
445998.000000
447049.000000
447958.000000
448860.000000
449904.000000
450872.000000
451843.000000
452878.000000
453814.000000
454801.000000
455813.000000
456687.000000
457707.000000
458862.000000
459875.000000
461027.000000
462176.000000
463221.000000
464284.000000
465269.000000
466215.000000
467421.000000
468518.000000
469615.000000
470790.000000
471752.000000
472701.000000
473617.000000
474484.000000
475484.000000
476727.000000
477823.000000
479005.000000
479911.000000
480704.000000
481593.000000
482622.000000
483450.000000
484657.000000
485790.000000
486940.000000
488011.000000
489066.000000
490158.000000
491181.000000
492177.000000
493258.000000
494248.000000
495193.000000
496217.000000
497320.000000
498365.000000
499480.000000
500575.000000
501700.000000
502812.000000
503868.000000
504970.000000
506074.000000
507137.000000
508214.000000
509311.000000
510351.000000
511452.000000
512557.000000
513625.000000
514733.000000
515808.000000
516907.000000
518041.000000
519114.000000
520241.000000
521342.000000
522381.000000
523484.000000
524438.000000
525329.000000
526396.000000
527426.000000
528374.000000
529442.000000
530464.000000
531434.000000
532477.000000
533449.000000
534442.000000
535523.000000
536520.000000
537523.000000
538581.000000
539528.000000
540552.000000
541645.000000
542610.000000
543762.000000
544836.000000
545796.000000
546827.000000
547816.000000
548772.000000
549883.000000
550889.000000
551812.000000
552843.000000
553843.000000
554771.000000
555774.000000
556800.000000
557728.000000
558711.000000
559660.000000
560534.000000
561528.000000
562501.000000
563433.000000
564508.000000
565524.000000
566461.000000
567496.000000
568527.000000
569450.000000
570478.000000
571528.000000
572496.000000
573558.000000
574560.000000
575475.000000
576466.000000
577413.000000
578349.000000
579422.000000
580419.000000
581430.000000
582529.000000
583533.000000
584588.000000
585661.000000
586608.000000
587593.000000
588586.000000
589482.000000
590555.000000
591573.000000
592504.000000
593583.000000
594702.000000
595597.000000
596534.000000
597454.000000
598260.000000
599006.000000
599783.000000
601021.000000
602172.000000
603256.000000
604403.000000
605518.000000
606576.000000
607680.000000
608743.000000
609734.000000
610757.000000
611789.000000
612700.000000
613735.000000
614879.000000
615919.000000
616947.000000
618024.000000
619028.000000
619994.000000
621067.000000
622110.000000
623046.000000
624183.000000
625299.000000
626249.000000
627171.000000
628245.000000
629399.000000
630389.000000
631549.000000
632702.000000
633721.000000
634761.000000
635920.000000
637092.000000
638171.000000
639264.000000
640338.000000
641315.000000
642364.000000
643586.000000
644623.000000
645637.000000
646696.000000
647728.000000
648682.000000
649722.000000
650778.000000
651728.000000
652836.000000
653904.000000
654915.000000
656063.000000
657164.000000
658169.000000
659120.000000
659974.000000
660902.000000
662080.000000
663072.000000
664186.000000
665257.000000
666176.000000
667175.000000
668153.000000
669048.000000
670049.000000
671111.000000
672090.000000
673178.000000
674214.000000
675227.000000
676269.000000
677280.000000
678181.000000
679133.000000
680203.000000
681168.000000
682141.000000
683159.000000
684076.000000
685079.000000
686118.000000
687004.000000
687897.000000
688828.000000
689661.000000
690525.000000
691695.000000
692705.000000
693671.000000
694686.000000
695598.000000
696525.000000
697588.000000
698551.000000
699585.000000
700570.000000
701433.000000
702355.000000
703376.000000
704278.000000
705229.000000
706268.000000
707206.000000
708163.000000
709154.000000
710053.000000
710991.000000
711948.000000
712801.000000
713696.000000
714729.000000
715630.000000
716535.000000
717504.000000
718350.000000
719116.000000
719866.000000
720744.000000
721786.000000
722728.000000
723560.000000
724314.000000
725048.000000
725843.000000
726798.000000
727733.000000
728649.000000
729576.000000
730526.000000
731374.000000
732307.000000
733279.000000
734136.000000
735031.000000
735974.000000
736840.000000
737781.000000
738804.000000
739751.000000
740745.000000
741748.000000
742645.000000
743569.000000
744546.000000
745421.000000
746384.000000
747333.000000
748225.000000
749290.000000
750291.000000
751157.000000
752052.000000
752977.000000
753852.000000
754835.000000
755812.000000
756696.000000
757737.000000
758752.000000
759686.000000
760720.000000
761774.000000
762740.000000
763742.000000
764751.000000
765691.000000
766766.000000
767844.000000
768850.000000
769932.000000
770998.000000
771961.000000
772996.000000
773951.000000
774879.000000
775850.000000
776961.000000
777924.000000
778908.000000
779897.000000
780773.000000
781744.000000
782814.000000
783815.000000
784983.000000
786065.000000
787109.000000
788182.000000
789120.000000
790047.000000
791131.000000
792134.000000
793140.000000
794281.000000
795364.000000
796479.000000
797587.000000
798561.000000
799555.000000
800597.000000
801542.000000
802623.000000
803705.000000
804699.000000
805787.000000
806785.000000
807769.000000
808859.000000
809912.000000
810924.000000
812076.000000
813212.000000
814243.000000
815380.000000
816472.000000
817422.000000
818580.000000
819695.000000
820697.000000
821852.000000
822953.000000
823946.000000
825075.000000
826171.000000
827137.000000
828273.000000
829304.000000
830304.000000
831404.000000
832376.000000
833367.000000
834500.000000
835509.000000
836549.000000
837667.000000
838648.000000
839690.000000
840826.000000
841799.000000
842803.000000
843814.000000
844706.000000
845797.000000
846961.000000
847952.000000
849006.000000
850097.000000
851042.000000
852058.000000
853093.000000
853994.000000
854964.000000
856087.000000
857132.000000
858169.000000
859307.000000
860381.000000
861340.000000
862376.000000
863365.000000
864336.000000
865435.000000
866479.000000
867434.000000
868502.000000
869555.000000
870508.000000
871590.000000
872666.000000
873639.000000
874712.000000
875782.000000
876803.000000
877945.000000
879061.000000
880044.000000
881088.000000
882166.000000
883143.000000
884198.000000
885316.000000
886312.000000
887155.000000
887934.000000
888760.000000
890021.000000
890925.000000
891730.000000
892859.000000
893820.000000
894934.000000
896100.000000
897132.000000
898206.000000
899286.000000
900311.000000
901267.000000
902305.000000
903371.000000
904348.000000
905293.000000
906288.000000
907278.000000
908199.000000
909154.000000
910179.000000
911120.000000
912111.000000
913175.000000
914149.000000
915185.000000
916235.000000
917208.000000
918218.000000
919265.000000
920131.000000
921042.000000
922078.000000
922999.000000
923882.000000
924920.000000
925943.000000
926931.000000
927988.000000
929027.000000
930011.000000
931088.000000
932117.000000
933057.000000
934101.000000
935188.000000
936150.000000
937157.000000
938253.000000
939259.000000
940125.000000
941106.000000
942092.000000
942969.000000
943754.000000
944552.000000
945792.000000
946912.000000
947971.000000
949068.000000
950133.000000
951155.000000
952213.000000
953247.000000
954208.000000
955294.000000
956427.000000
957486.000000
958507.000000
959595.000000
960641.000000
961575.000000
962554.000000
963577.000000
964539.000000
965480.000000
966607.000000
967619.000000
968564.000000
969616.000000
970534.000000
971409.000000
972499.000000
973507.000000
974403.000000
975583.000000
976632.000000
977640.000000
978674.000000
979570.000000
980593.000000
981659.000000
982591.000000
983524.000000
984498.000000
985509.000000
986522.000000
987712.000000
988802.000000
989872.000000
990967.000000
992066.000000
993119.000000
994254.000000
995354.000000
996294.000000
997136.000000
997989.000000
998751.000000
999524.000000
1000283.000000
1001023.000000
1002275.000000
1003324.000000
1004434.000000
1005608.000000
1006744.000000
1007817.000000
1008912.000000
1010034.000000
1011144.000000
1012236.000000
1013338.000000
1014444.000000
1015558.000000
1016715.000000
1017870.000000
1018954.000000
1020014.000000
1021115.000000
1022237.000000
1023219.000000
1024273.000000
1025431.000000
1026518.000000
1027435.000000
1028384.000000
1029506.000000
1030542.000000
1031527.000000
1032622.000000
1033692.000000
1034614.000000
1035454.000000
1036406.000000
1037554.000000
1038544.000000
1039633.000000
1040713.000000
1041696.000000
1042762.000000
1043858.000000
1044860.000000
1045826.000000
1046886.000000
1047945.000000
1048894.000000
1049944.000000
1051030.000000
1052015.000000
1053057.000000
1054175.000000
1055158.000000
1056208.000000
1057281.000000
1058233.000000
1059195.000000
1060221.000000
1061231.000000
1062162.000000
1063225.000000
1064279.000000
1065211.000000
1066180.000000
1067159.000000
1068059.000000
1069046.000000
1070088.000000
1071019.000000
1072006.000000
1073035.000000
1073958.000000
1074944.000000
1075939.000000
1076875.000000
1077875.000000
1078868.000000
1079769.000000
1080747.000000
1081767.000000
1082707.000000
1083709.000000
1084691.000000
1085599.000000
1086565.000000
1087532.000000
1088375.000000
1089220.000000
1090342.000000
1091327.000000
1092290.000000
1093295.000000
1094293.000000
1095218.000000
1096219.000000
1097207.000000
1098099.000000
1099044.000000
1100024.000000
1100900.000000
1101736.000000
1102609.000000
1103487.000000
1104307.000000
1105105.000000
1105933.000000
1106706.000000
1107446.000000
1108260.000000
1109352.000000
1110410.000000
1111365.000000
1112331.000000
1113310.000000
1114220.000000
1115022.000000
1115775.000000
1116547.000000
1117749.000000
1118851.000000
1119926.000000
1120889.000000
1121923.000000
1123030.000000
1124098.000000
1125105.000000
1126179.000000
1127263.000000
1128239.000000
1129219.000000
1130210.000000
1131180.000000
1132093.000000
1133112.000000
1134159.000000
1135130.000000
1135990.000000
1136908.000000
1137949.000000
1138942.000000
1139841.000000
1140805.000000
1141877.000000
1142911.000000
1143821.000000
1144789.000000
1145857.000000
1146912.000000
1147878.000000
1148912.000000
1149972.000000
1150973.000000
1151926.000000
1152928.000000
1153968.000000
1154901.000000
1155932.000000
1157028.000000
1158028.000000
1159108.000000
1160172.000000
1161133.000000
1162079.000000
1163124.000000
1164200.000000
1165186.000000
1166261.000000
1167407.000000
1168450.000000
1169482.000000
1170573.000000
1171626.000000
1172582.000000
1173450.000000
1174425.000000
1175440.000000
1176364.000000
1177340.000000
1178399.000000
1179346.000000
1180157.000000
1180956.000000
1181919.000000
1183094.000000
1184133.000000
1185117.000000
1186144.000000
1187208.000000
1188148.000000
1189142.000000
1190195.000000
1191205.000000
1192183.000000
1193256.000000
1194341.000000
1195316.000000
1196313.000000
1197337.000000
1198259.000000
1199229.000000
1200305.000000
1201404.000000
1202471.000000
