ECG (ms)
384.000000
1172.000000
1964.000000
2759.000000
3565.000000
4350.000000
5123.000000
5903.000000
6684.000000
7456.000000
8244.000000
9048.000000
9836.000000
10612.000000
11396.000000
12185.000000
12955.000000
13736.000000
14519.000000
15297.000000
16060.000000
16837.000000
17619.000000
18398.000000
19162.000000
19932.000000
20706.000000
21473.000000
22233.000000
23004.000000
23779.000000
24535.000000
25295.000000
26062.000000
26828.000000
27577.000000
28315.000000
29075.000000
29858.000000
30615.000000
31363.000000
32128.000000
32906.000000
33677.000000
34423.000000
35182.000000
35959.000000
36748.000000
37514.000000
38272.000000
39047.000000
39839.000000
40606.000000
41369.000000
42166.000000
42983.000000
43765.000000
44534.000000
45307.000000
46079.000000
46832.000000
47597.000000
48392.000000
49239.000000
50049.000000
50824.000000
51618.000000
52419.000000
53209.000000
53989.000000
54808.000000
55631.000000
56430.000000
57198.000000
57954.000000
58688.000000
59445.000000
60235.000000
61015.000000
61845.000000
62685.000000
63532.000000
64356.000000
65192.000000
66024.000000
66852.000000
67670.000000
68463.000000
69257.000000
70070.000000
70895.000000
71726.000000
72538.000000
73335.000000
74143.000000
74965.000000
75757.000000
76532.000000
77307.000000
78089.000000
78865.000000
79635.000000
80400.000000
81190.000000
82001.000000
82828.000000
83629.000000
84436.000000
85258.000000
86091.000000
86914.000000
87710.000000
88506.000000
89315.000000
90130.000000
90932.000000
91722.000000
92512.000000
93307.000000
94082.000000
94842.000000
95609.000000
96374.000000
97144.000000
97911.000000
98692.000000
99494.000000
100279.000000
101064.000000
101850.000000
102631.000000
103392.000000
104145.000000
104897.000000
105666.000000
106430.000000
107175.000000
107931.000000
108693.000000
109489.000000
110267.000000
111040.000000
111840.000000
112650.000000
113461.000000
114246.000000
115028.000000
115838.000000
116661.000000
117458.000000
118240.000000
119045.000000
119879.000000
120690.000000
121474.000000
122264.000000
123078.000000
123891.000000
124665.000000
125416.000000
126175.000000
126933.000000
127693.000000
128458.000000
129242.000000
130053.000000
130861.000000
131629.000000
132391.000000
133158.000000
133921.000000
134664.000000
135388.000000
136122.000000
136892.000000
137711.000000
138514.000000
139294.000000
140082.000000
140884.000000
141664.000000
142423.000000
143185.000000
143954.000000
144707.000000
145459.000000
146235.000000
147013.000000
147774.000000
148523.000000
149285.000000
150060.000000
150812.000000
151551.000000
152298.000000
153082.000000
153849.000000
154599.000000
155372.000000
156148.000000
156906.000000
157651.000000
158399.000000
159141.000000
159868.000000
160585.000000
161311.000000
162063.000000
162820.000000
163573.000000
164341.000000
165110.000000
165853.000000
166599.000000
167363.000000
168152.000000
168910.000000
169664.000000
170437.000000
171214.000000
171968.000000
172744.000000
173590.000000
174414.000000
175227.000000
176038.000000
176837.000000
177644.000000
178453.000000
179254.000000
180040.000000
180830.000000
181638.000000
182445.000000
183234.000000
184022.000000
184823.000000
185626.000000
186393.000000
187160.000000
187905.000000
188598.000000
189278.000000
190002.000000
190740.000000
191473.000000
192227.000000
193007.000000
193801.000000
194578.000000
195352.000000
196133.000000
196903.000000
197666.000000
198417.000000
199165.000000
199943.000000
200733.000000
201501.000000
202263.000000
203034.000000
203813.000000
204571.000000
205315.000000
206074.000000
206852.000000
207628.000000
208383.000000
209143.000000
209913.000000
210706.000000
211517.000000
212291.000000
213064.000000
213850.000000
214668.000000
215524.000000
216342.000000
217125.000000
217916.000000
218718.000000
219502.000000
220263.000000
221056.000000
221842.000000
222602.000000
223360.000000
224123.000000
224881.000000
225625.000000
226370.000000
227120.000000
227864.000000
228595.000000
229326.000000
230065.000000
230804.000000
231540.000000
232288.000000
233041.000000
233788.000000
234547.000000
235325.000000
236104.000000
236847.000000
237578.000000
238320.000000
239086.000000
239880.000000
240661.000000
241438.000000
242235.000000
243072.000000
243902.000000
244686.000000
245458.000000
246247.000000
247039.000000
247832.000000
248594.000000
249372.000000
250195.000000
251029.000000
251821.000000
252585.000000
253355.000000
254148.000000
254922.000000
255689.000000
256479.000000
257296.000000
258091.000000
258899.000000
259716.000000
260522.000000
261303.000000
262086.000000
262868.000000
263659.000000
264444.000000
265239.000000
266063.000000
266887.000000
267686.000000
268486.000000
269295.000000
270070.000000
270843.000000
271673.000000
272527.000000
273329.000000
274100.000000
274875.000000
275666.000000
276470.000000
277267.000000
278098.000000
278929.000000
279727.000000
280523.000000
281301.000000
282071.000000
282826.000000
283586.000000
284374.000000
285187.000000
285976.000000
286749.000000
287528.000000
288319.000000
289119.000000
289901.000000
290679.000000
291468.000000
292248.000000
293005.000000
293761.000000
294532.000000
295321.000000
296085.000000
296836.000000
297599.000000
298374.000000
299168.000000
299945.000000
300706.000000
301472.000000
302275.000000
303068.000000
303862.000000
304643.000000
305386.000000
306091.000000
306796.000000
307551.000000
308313.000000
309101.000000
309931.000000
310788.000000
311602.000000
312399.000000
313214.000000
314027.000000
314850.000000
315652.000000
316468.000000
317293.000000
318122.000000
318924.000000
319724.000000
320530.000000
321340.000000
322156.000000
322953.000000
323762.000000
324590.000000
325420.000000
326257.000000
327080.000000
327910.000000
328758.000000
329607.000000
330445.000000
331263.000000
332093.000000
332921.000000
333715.000000
334516.000000
335332.000000
336153.000000
336948.000000
337754.000000
338575.000000
339402.000000
340205.000000
341015.000000
341839.000000
342659.000000
343458.000000
344270.000000
345086.000000
345896.000000
346692.000000
347501.000000
348315.000000
349128.000000
349900.000000
350655.000000
351443.000000
352244.000000
353028.000000
353816.000000
354638.000000
355468.000000
356240.000000
357007.000000
357810.000000
358647.000000
359444.000000
360245.000000
361066.000000
361911.000000
362737.000000
363544.000000
364369.000000
365198.000000
366002.000000
366791.000000
367594.000000
368427.000000
369254.000000
370055.000000
370862.000000
371667.000000
372451.000000
373209.000000
373992.000000
374801.000000
375623.000000
376407.000000
377181.000000
377981.000000
378806.000000
379593.000000
380360.000000
381129.000000
381907.000000
382695.000000
383490.000000
384271.000000
385088.000000
385935.000000
386747.000000
387534.000000
388339.000000
389163.000000
389982.000000
390773.000000
391568.000000
392384.000000
393196.000000
393972.000000
394735.000000
395530.000000
396353.000000
397168.000000
397958.000000
398743.000000
399543.000000
400370.000000
401159.000000
401951.000000
402756.000000
403553.000000
404332.000000
405128.000000
405950.000000
406766.000000
407550.000000
408319.000000
409120.000000
409938.000000
410730.000000
411509.000000
412304.000000
413106.000000
413879.000000
414638.000000
415424.000000
416254.000000
417096.000000
417893.000000
418697.000000
419501.000000
420290.000000
421077.000000
421878.000000
422685.000000
423497.000000
424288.000000
425077.000000
425892.000000
426727.000000
427569.000000
428361.000000
429125.000000
429896.000000
430694.000000
431515.000000
432322.000000
433139.000000
433980.000000
434783.000000
435568.000000
436358.000000
437162.000000
437960.000000
438733.000000
439508.000000
440279.000000
441056.000000
441830.000000
442625.000000
443460.000000
444288.000000
445073.000000
445854.000000
446654.000000
447451.000000
448222.000000
448999.000000
449814.000000
450655.000000
451486.000000
452320.000000
453191.000000
454045.000000
454838.000000
455660.000000
456518.000000
457413.000000
458262.000000
459118.000000
459984.000000
460840.000000
461670.000000
462519.000000
463391.000000
464285.000000
465120.000000
465944.000000
466783.000000
467626.000000
468448.000000
469260.000000
470078.000000
470904.000000
471732.000000
472537.000000
473334.000000
474132.000000
474942.000000
475749.000000
476548.000000
477363.000000
478201.000000
479041.000000
479856.000000
480677.000000
481508.000000
482321.000000
483117.000000
483904.000000
484607.000000
485295.000000
486021.000000
486797.000000
487574.000000
488356.000000
489189.000000
490059.000000
490931.000000
491740.000000
492538.000000
493356.000000
494167.000000
494960.000000
495782.000000
496624.000000
497409.000000
498218.000000
499055.000000
499897.000000
500698.000000
501512.000000
502346.000000
503186.000000
503990.000000
504790.000000
505611.000000
506444.000000
507246.000000
508028.000000
508814.000000
509612.000000
510384.000000
511148.000000
511932.000000
512726.000000
513480.000000
514243.000000
515024.000000
515805.000000
516569.000000
517347.000000
518154.000000
518966.000000
519742.000000
520540.000000
521349.000000
522158.000000
522957.000000
523738.000000
524540.000000
525360.000000
526172.000000
526948.000000
527709.000000
528482.000000
529268.000000
530069.000000
530848.000000
531623.000000
532432.000000
533209.000000
533988.000000
534787.000000
535582.000000
536348.000000
537138.000000
537934.000000
538734.000000
539509.000000
540306.000000
541102.000000
541905.000000
542696.000000
543493.000000
544313.000000
545147.000000
545963.000000
546738.000000
547520.000000
548326.000000
549148.000000
549949.000000
550731.000000
551556.000000
552404.000000
553197.000000
553969.000000
554759.000000
555566.000000
556360.000000
557153.000000
557993.000000
558857.000000
559692.000000
560482.000000
561286.000000
562110.000000
562935.000000
563730.000000
564508.000000
565314.000000
566127.000000
566913.000000
567675.000000
568445.000000
569224.000000
569985.000000
570747.000000
571549.000000
572377.000000
573196.000000
573985.000000
574783.000000
575589.000000
576426.000000
577279.000000
578089.000000
578870.000000
579655.000000
580456.000000
581277.000000
582070.000000
582872.000000
583733.000000
584622.000000
585439.000000
586212.000000
586994.000000
587796.000000
588589.000000
589354.000000
590129.000000
590912.000000
591704.000000
592485.000000
593298.000000
594142.000000
594981.000000
595790.000000
596627.000000
597458.000000
598279.000000
599054.000000
599828.000000
600631.000000
601429.000000
602215.000000
603005.000000
603819.000000
604607.000000
605378.000000
606194.000000
607022.000000
607809.000000
608574.000000
609342.000000
610128.000000
610941.000000
611738.000000
612538.000000
613346.000000
614161.000000
614977.000000
615769.000000
616532.000000
617311.000000
618110.000000
618909.000000
619710.000000
620522.000000
621327.000000
622103.000000
622859.000000
623662.000000
624532.000000
625367.000000
626185.000000
627067.000000
627969.000000
628794.000000
629570.000000
630333.000000
631114.000000
631915.000000
632686.000000
633455.000000
634254.000000
635083.000000
635928.000000
636725.000000
637510.000000
638299.000000
639095.000000
639872.000000
640649.000000
641446.000000
642261.000000
643058.000000
643842.000000
644630.000000
645441.000000
646232.000000
647008.000000
647819.000000
648644.000000
649455.000000
650235.000000
651031.000000
651856.000000
652693.000000
653496.000000
654296.000000
655124.000000
656003.000000
656842.000000
657658.000000
658508.000000
659402.000000
660255.000000
661064.000000
661888.000000
662740.000000
663598.000000
664414.000000
665213.000000
666054.000000
666931.000000
667801.000000
668628.000000
669426.000000
670244.000000
671082.000000
671934.000000
672791.000000
673627.000000
674465.000000
675263.000000
676035.000000
676801.000000
677587.000000
678382.000000
679171.000000
680006.000000
680859.000000
681723.000000
682568.000000
683392.000000
684216.000000
685030.000000
685823.000000
686599.000000
687397.000000
688209.000000
688994.000000
689785.000000
690620.000000
691531.000000
692407.000000
693251.000000
694102.000000
694960.000000
695782.000000
696583.000000
697399.000000
698231.000000
699035.000000
699828.000000
700654.000000
701504.000000
702362.000000
703184.000000
703981.000000
704800.000000
705651.000000
706491.000000
707268.000000
708021.000000
708816.000000
709758.000000
710665.000000
711559.000000
712491.000000
713396.000000
714223.000000
715038.000000
715875.000000
716690.000000
717460.000000
718232.000000
719016.000000
719827.000000
720665.000000
721475.000000
722295.000000
723122.000000
723954.000000
724744.000000
725525.000000
726340.000000
727150.000000
727948.000000
728729.000000
729489.000000
730241.000000
730991.000000
731748.000000
732564.000000
733420.000000
734238.000000
735063.000000
735951.000000
736857.000000
737692.000000
738517.000000
739363.000000
740200.000000
741047.000000
741830.000000
742611.000000
743409.000000
744220.000000
745030.000000
745819.000000
746600.000000
747377.000000
748154.000000
748915.000000
749678.000000
750476.000000
751308.000000
752091.000000
752868.000000
753666.000000
754481.000000
755270.000000
756047.000000
756837.000000
757637.000000
758453.000000
759247.000000
760053.000000
760916.000000
761800.000000
762662.000000
763469.000000
764225.000000
764982.000000
765766.000000
766596.000000
767418.000000
768202.000000
769037.000000
769905.000000
770723.000000
771510.000000
772312.000000
773129.000000
773970.000000
774745.000000
775491.000000
776253.000000
777068.000000
777946.000000
778744.000000
779523.000000
780276.000000
780993.000000
781685.000000
782392.000000
783122.000000
783860.000000
784619.000000
785416.000000
786192.000000
786954.000000
787762.000000
788589.000000
789416.000000
790201.000000
790979.000000
791784.000000
792628.000000
793503.000000
794340.000000
795200.000000
796104.000000
796976.000000
797777.000000
798562.000000
799370.000000
800224.000000
801103.000000
801931.000000
802775.000000
803641.000000
804496.000000
805301.000000
806081.000000
806882.000000
807727.000000
808603.000000
809431.000000
810233.000000
811068.000000
811896.000000
812695.000000
813471.000000
814261.000000
815069.000000
815922.000000
816743.000000
817528.000000
818331.000000
819163.000000
819985.000000
820814.000000
821689.000000
822561.000000
823377.000000
824194.000000
825040.000000
825876.000000
826669.000000
827431.000000
828185.000000
828982.000000
829892.000000
830779.000000
831672.000000
832612.000000
833551.000000
834467.000000
835290.000000
836112.000000
836952.000000
837765.000000
838569.000000
839404.000000
840271.000000
841125.000000
841938.000000
842752.000000
843564.000000
844383.000000
845176.000000
845931.000000
846717.000000
847530.000000
848356.000000
849146.000000
849941.000000
850792.000000
851690.000000
852532.000000
853324.000000
854120.000000
854915.000000
855703.000000
856488.000000
857270.000000
858050.000000
858810.000000
859569.000000
860364.000000
861226.000000
862057.000000
862886.000000
863766.000000
864662.000000
865497.000000
866317.000000
867181.000000
868079.000000
868975.000000
869812.000000
870615.000000
871399.000000
872176.000000
872945.000000
873753.000000
874623.000000
875496.000000
876335.000000
877194.000000
878066.000000
878957.000000
879806.000000
880605.000000
881413.000000
882251.000000
883071.000000
883874.000000
884655.000000
885468.000000
886306.000000
887150.000000
887962.000000
888807.000000
889681.000000
890485.000000
891249.000000
891989.000000
892748.000000
893509.000000
894282.000000
895104.000000
895942.000000
896788.000000
897625.000000
898472.000000
899355.000000
900245.000000
901140.000000
901982.000000
902819.000000
903655.000000
904508.000000
905359.000000
906157.000000
906932.000000
907718.000000
908518.000000
909286.000000
910036.000000
910813.000000
911621.000000
912440.000000
913225.000000
914036.000000
914868.000000
915737.000000
916564.000000
917392.000000
918259.000000
919147.000000
919999.000000
920777.000000
921547.000000
922333.000000
923177.000000
924008.000000
924845.000000
925739.000000
926636.000000
927472.000000
928320.000000
929196.000000
930058.000000
930872.000000
931679.000000
932474.000000
933214.000000
933950.000000
934662.000000
935347.000000
936027.000000
936752.000000
937576.000000
938368.000000
939127.000000
939895.000000
940698.000000
941529.000000
942301.000000
943035.000000
943783.000000
944570.000000
945439.000000
946286.000000
947084.000000
947882.000000
948714.000000
949593.000000
950475.000000
951306.000000
952142.000000
952992.000000
953874.000000
954721.000000
955525.000000
956330.000000
957151.000000
957960.000000
958712.000000
959458.000000
960217.000000
961025.000000
961843.000000
962636.000000
963469.000000
964378.000000
965296.000000
966161.000000
966971.000000
967800.000000
968627.000000
969427.000000
970211.000000
971043.000000
971900.000000
972742.000000
973547.000000
974357.000000
975175.000000
976006.000000
976817.000000
977616.000000
978437.000000
979251.000000
980062.000000
980851.000000
981634.000000
982461.000000
983326.000000
984190.000000
985018.000000
985813.000000
986608.000000
987404.000000
988191.000000
989003.000000
989867.000000
990784.000000
991650.000000
992455.000000
993257.000000
994050.000000
994844.000000
995620.000000
996374.000000
997119.000000
997879.000000
998642.000000
999450.000000
1000327.000000
1001286.000000
1002233.000000
1003096.000000
1003923.000000
1004745.000000
1005560.000000
1006352.000000
1007137.000000
1007953.000000
1008774.000000
1009595.000000
1010380.000000
1011150.000000
1011939.000000
1012764.000000
1013571.000000
1014350.000000
1015115.000000
1015903.000000
1016707.000000
1017494.000000
1018285.000000
1019149.000000
1020060.000000
1020938.000000
1021740.000000
1022528.000000
1023313.000000
1024120.000000
1024914.000000
1025720.000000
1026544.000000
1027393.000000
1028249.000000
1029072.000000
1029854.000000
1030613.000000
1031396.000000
1032216.000000
1033069.000000
1033898.000000
1034688.000000
1035493.000000
1036326.000000
1037137.000000
1037916.000000
1038669.000000
1039445.000000
1040224.000000
1041008.000000
1041820.000000
1042692.000000
1043544.000000
1044420.000000
1045371.000000
1046366.000000
1047296.000000
1048194.000000
1049083.000000
1049965.000000
1050835.000000
1051652.000000
1052481.000000
1053329.000000
1054196.000000
1055037.000000
1055845.000000
1056637.000000
1057451.000000
1058260.000000
1059047.000000
1059817.000000
1060595.000000
1061379.000000
1062145.000000
1062859.000000
1063549.000000
1064275.000000
1065080.000000
1065887.000000
1066711.000000
1067568.000000
1068488.000000
1069373.000000
1070249.000000
1071128.000000
1071998.000000
1072843.000000
1073666.000000
1074507.000000
1075356.000000
1076178.000000
1076990.000000
1077804.000000
1078637.000000
1079435.000000
1080218.000000
1081014.000000
1081829.000000
1082666.000000
1083499.000000
1084315.000000
1085162.000000
1086034.000000
1086920.000000
1087810.000000
1088693.000000
1089562.000000
1090414.000000
1091246.000000
1092120.000000
1093038.000000
1093909.000000
1094736.000000
1095563.000000
1096400.000000
1097192.000000
1097989.000000
1098812.000000
1099636.000000
1100444.000000
1101262.000000
1102090.000000
1102938.000000
1103803.000000
1104672.000000
1105516.000000
1106359.000000
1107194.000000
1108060.000000
1108930.000000
1109813.000000
1110661.000000
1111522.000000
1112389.000000
1113263.000000
1114126.000000
1114961.000000
1115801.000000
1116666.000000
1117530.000000
1118356.000000
1119171.000000
1120010.000000
1120860.000000
1121710.000000
1122526.000000
1123361.000000
1124232.000000
1125095.000000
1125941.000000
1126763.000000
1127574.000000
1128427.000000
1129308.000000
1130173.000000
1131005.000000
1131853.000000
1132724.000000
1133592.000000
1134425.000000
1135250.000000
1136105.000000
1136945.000000
1137777.000000
1138595.000000
1139427.000000
1140261.000000
1141098.000000
1141912.000000
1142743.000000
1143594.000000
1144462.000000
1145319.000000
1146152.000000
1146991.000000
1147791.000000
1148568.000000
1149316.000000
1150049.000000
1150742.000000
1151441.000000
1152177.000000
1152987.000000
1153886.000000
1154740.000000
1155574.000000
1156425.000000
1157305.000000
1158204.000000
1159013.000000
1159799.000000
1160598.000000
1161435.000000
1162254.000000
1163060.000000
1163890.000000
1164743.000000
1165572.000000
1166394.000000
1167256.000000
1168156.000000
1169018.000000
1169858.000000
1170751.000000
1171692.000000
1172618.000000
1173518.000000
1174337.000000
1175131.000000
1175958.000000
1176848.000000
1177687.000000
1178511.000000
1179355.000000
1180225.000000
1181069.000000
1181880.000000
1182736.000000
1183597.000000
1184442.000000
1185221.000000
1185972.000000
1186746.000000
1187598.000000
1188555.000000
1189466.000000
1190393.000000
1191377.000000
1192331.000000
1193221.000000
1194095.000000
1194940.000000
1195756.000000
1196532.000000
1197292.000000
1198085.000000
1198917.000000
1199725.000000
1200556.000000
1201401.000000
1202255.000000
1203097.000000
1203960.000000
1204846.000000
1205672.000000
1206476.000000
1207287.000000
1208110.000000
1208909.000000
1209721.000000
1210552.000000
1211390.000000
1212223.000000
1213040.000000
1213876.000000
1214730.000000
1215550.000000
1216366.000000
1217189.000000
1218013.000000
1218806.000000
1219597.000000
1220412.000000
1221246.000000
1222041.000000
1222847.000000
1223676.000000
1224504.000000
1225308.000000
1226148.000000
1227001.000000
1227821.000000
1228624.000000
1229459.000000
1230344.000000
1231207.000000
1232041.000000
1232892.000000
1233726.000000
1234523.000000
1235296.000000
1236129.000000
1237099.000000
1238016.000000
1238849.000000
1239668.000000
1240480.000000
1241267.000000
1242035.000000
1242837.000000
1243661.000000
1244444.000000
1245225.000000
1246017.000000
1246811.000000
1247581.000000
1248367.000000
1249188.000000
1250037.000000
1250852.000000
1251695.000000
1252563.000000
1253427.000000
1254276.000000
1255083.000000
1255901.000000
1256772.000000
1257685.000000
1258579.000000
1259382.000000
1260142.000000
1260934.000000
1261736.000000
1262559.000000
1263409.000000
1264316.000000
1265257.000000
1266151.000000
1267029.000000
1267961.000000
1268872.000000
1269726.000000
1270587.000000
1271494.000000
1272401.000000
1273274.000000
1274100.000000
1274912.000000
1275761.000000
1276639.000000
1277559.000000
1278440.000000
1279271.000000
1280129.000000
1281022.000000
1281917.000000
1282739.000000
1283521.000000
1284322.000000
1285142.000000
1285948.000000
1286781.000000
1287642.000000
1288498.000000
1289295.000000
1290094.000000
1290929.000000
1291767.000000
1292581.000000
1293431.000000
1294301.000000
1295192.000000
1296090.000000
1296965.000000
1297813.000000
1298687.000000
1299622.000000
1300565.000000
1301418.000000
1302199.000000
1302959.000000
1303751.000000
1304538.000000
1305321.000000
1306116.000000
1306932.000000
1307737.000000
1308553.000000
1309389.000000
1310305.000000
1311318.000000
1312232.000000
1313137.000000
1314045.000000
1314929.000000
1315768.000000
1316629.000000
1317509.000000
1318399.000000
1319281.000000
1320135.000000
1321020.000000
1321904.000000
1322774.000000
1323614.000000
1324412.000000
1325212.000000
1326036.000000
1326892.000000
1327727.000000
1328573.000000
1329449.000000
1330347.000000
1331246.000000
1332105.000000
1332983.000000
1333878.000000
1334771.000000
1335671.000000
1336529.000000
1337375.000000
1338231.000000
1339092.000000
1339944.000000
1340790.000000
1341665.000000
1342559.000000
1343421.000000
1344241.000000
1345088.000000
1345945.000000
1346798.000000
1347615.000000
1348406.000000
1349226.000000
1350060.000000
1350898.000000
1351751.000000
1352644.000000
1353563.000000
1354498.000000
1355376.000000
1356262.000000
1357144.000000
1358002.000000
1358815.000000
1359639.000000
1360486.000000
1361355.000000
1362196.000000
1363029.000000
1363889.000000
1364772.000000
1365641.000000
1366486.000000
1367358.000000
1368229.000000
1369100.000000
1369952.000000
1370766.000000
1371586.000000
1372399.000000
1373195.000000
1374019.000000
1374922.000000
1375818.000000
1376688.000000
1377572.000000
1378479.000000
1379345.000000
1380196.000000
1381050.000000
1381929.000000
1382813.000000
1383657.000000
1384509.000000
1385376.000000
1386255.000000
1387145.000000
1388030.000000
1388882.000000
1389719.000000
1390571.000000
1391432.000000
1392239.000000
1393033.000000
1393799.000000
1394541.000000
1395254.000000
1395993.000000
1396747.000000
1397501.000000
1398292.000000
1399159.000000
1400064.000000
1400894.000000
1401722.000000
1402567.000000
1403450.000000
1404311.000000
1405133.000000
1406004.000000
1406924.000000
1407833.000000
1408673.000000
1409504.000000
1410362.000000
1411221.000000
1412055.000000
1412928.000000
1413866.000000
1414808.000000
1415683.000000
1416533.000000
1417405.000000
1418301.000000
1419162.000000
1419995.000000
1420849.000000
1421719.000000
1422539.000000
1423350.000000
1424208.000000
1425136.000000
1426020.000000
1426850.000000
1427659.000000
1428499.000000
1429441.000000
1430375.000000
1431217.000000
1432036.000000
1432863.000000
1433685.000000
1434505.000000
1435354.000000
1436312.000000
1437298.000000
1438198.000000
1439090.000000
1440010.000000
1440938.000000
1441824.000000
1442706.000000
1443604.000000
1444496.000000
1445352.000000
1446176.000000
1447041.000000
1447904.000000
1448728.000000
1449545.000000
1450377.000000
1451229.000000
1452045.000000
1452851.000000
1453664.000000
1454477.000000
1455257.000000
1456068.000000
1456875.000000
1457695.000000
1458482.000000
1459283.000000
1460108.000000
1460931.000000
1461731.000000
1462549.000000
1463389.000000
1464216.000000
1465040.000000
1465872.000000
1466718.000000
1467575.000000
1468437.000000
1469266.000000
1470063.000000
1470880.000000
1471710.000000
1472508.000000
1473323.000000
1474158.000000
1475026.000000
1475864.000000
1476706.000000
1477578.000000
1478463.000000
1479346.000000
1480195.000000
1481057.000000
1481927.000000
1482804.000000
1483673.000000
1484483.000000
1485271.000000
1486076.000000
1486923.000000
1487758.000000
1488587.000000
1489449.000000
1490325.000000
1491169.000000
1491978.000000
1492811.000000
1493669.000000
1494503.000000
1495334.000000
1496207.000000
1497062.000000
1497872.000000
1498665.000000
1499476.000000
1500286.000000
1501115.000000
1501966.000000
1502808.000000
1503674.000000
1504548.000000
1505417.000000
1506251.000000
1507092.000000
1507973.000000
1508872.000000
1509731.000000
1510576.000000
1511431.000000
1512288.000000
1513124.000000
1513968.000000
1514836.000000
1515705.000000
1516553.000000
1517389.000000
1518247.000000
1519113.000000
1519999.000000
1520848.000000
1521673.000000
1522524.000000
1523392.000000
1524267.000000
1525117.000000
1525930.000000
1526774.000000
1527643.000000
1528489.000000
1529325.000000
1530190.000000
1531069.000000
1531913.000000
1532745.000000
1533585.000000
1534433.000000
1535243.000000
1536051.000000
1536879.000000
1537749.000000
1538636.000000
1539503.000000
1540399.000000
1541344.000000
1542292.000000
1543183.000000
1544077.000000
1544969.000000
1545865.000000
1546726.000000
1547580.000000
1548466.000000
1549328.000000
1550152.000000
1550988.000000
1551864.000000
1552780.000000
1553672.000000
1554592.000000
1555502.000000
1556375.000000
1557240.000000
1558129.000000
1559031.000000
1559916.000000
1560793.000000
1561701.000000
1562602.000000
1563496.000000
1564356.000000
1565220.000000
1566119.000000
1566999.000000
1567848.000000
1568657.000000
1569462.000000
1570289.000000
1571126.000000
1571966.000000
1572815.000000
1573690.000000
1574555.000000
1575405.000000
1576265.000000
1577141.000000
1578017.000000
1578864.000000
1579734.000000
1580597.000000
1581447.000000
1582257.000000
1583077.000000
1583913.000000
1584747.000000
1585541.000000
1586326.000000
1587115.000000
1587890.000000
1588637.000000
1589424.000000
1590303.000000
1591127.000000
1591940.000000
1592752.000000
1593566.000000
1594396.000000
1595203.000000
1595980.000000
1596759.000000
1597573.000000
1598361.000000
1599104.000000
1599826.000000
1600564.000000
1601353.000000
1602194.000000
1603021.000000
1603833.000000
1604667.000000
1605509.000000
1606344.000000
1607137.000000
1607913.000000
1608723.000000
1609588.000000
1610441.000000
1611247.000000
1612069.000000
1612912.000000
1613791.000000
1614614.000000
1615412.000000
1616212.000000
1617016.000000
1617793.000000
1618582.000000
1619427.000000
1620322.000000
1621175.000000
1622007.000000
1622872.000000
1623782.000000
1624675.000000
1625525.000000
1626371.000000
1627229.000000
1628134.000000
1629007.000000
1629849.000000
1630771.000000
1631669.000000
1632497.000000
1633288.000000
1634056.000000
1634884.000000
1635780.000000
1636617.000000
1637409.000000
1638184.000000
1638942.000000
1639656.000000
1640349.000000
1641051.000000
1641777.000000
1642563.000000
1643459.000000
1644412.000000
1645282.000000
1646087.000000
1646899.000000
1647780.000000
1648732.000000
1649669.000000
1650560.000000
1651462.000000
1652396.000000
1653304.000000
1654144.000000
1654996.000000
1655860.000000
1656748.000000
1657622.000000
1658469.000000
1659337.000000
1660189.000000
1661029.000000
1661834.000000
1662651.000000
1663519.000000
1664409.000000
1665288.000000
1666136.000000
1666988.000000
1667836.000000
1668677.000000
1669509.000000
1670344.000000
1671190.000000
1672007.000000
1672839.000000
1673706.000000
1674562.000000
1675394.000000
1676232.000000
1677095.000000
1677946.000000
1678753.000000
1679572.000000
1680396.000000
1681235.000000
1682044.000000
1682848.000000
1683661.000000
1684489.000000
1685314.000000
1686112.000000
1686895.000000
1687680.000000
1688498.000000
1689302.000000
1690124.000000
1690971.000000
1691833.000000
1692699.000000
1693531.000000
1694383.000000
1695239.000000
1696102.000000
1696928.000000
1697749.000000
1698582.000000
1699434.000000
1700262.000000
1701085.000000
1701938.000000
1702801.000000
1703644.000000
1704476.000000
1705353.000000
1706210.000000
1707045.000000
1707860.000000
1708678.000000
1709527.000000
1710391.000000
1711218.000000
1712018.000000
1712832.000000
1713675.000000
1714531.000000
1715362.000000
1716218.000000
1717052.000000
1717862.000000
1718642.000000
1719452.000000
1720258.000000
1721066.000000
1721902.000000
1722802.000000
1723679.000000
1724498.000000
1725301.000000
1726124.000000
1726956.000000
1727751.000000
1728552.000000
1729379.000000
1730214.000000
1731046.000000
1731854.000000
1732635.000000
1733465.000000
1734294.000000
1735113.000000
1735903.000000
1736691.000000
1737443.000000
1738197.000000
1738896.000000
1739566.000000
1740246.000000
1740941.000000
1741670.000000
1742465.000000
1743321.000000
1744133.000000
1744893.000000
1745656.000000
1746433.000000
1747225.000000
1748006.000000
1748772.000000
1749556.000000
1750370.000000
1751202.000000
1752035.000000
1752930.000000
1753826.000000
1754647.000000
1755468.000000
1756302.000000
1757169.000000
1758020.000000
1758888.000000
1759802.000000
1760709.000000
1761570.000000
1762386.000000
1763212.000000
1764080.000000
1764996.000000
1765865.000000
1766735.000000
1767648.000000
1768562.000000
1769428.000000
1770270.000000
1771153.000000
1772066.000000
1772932.000000
1773757.000000
1774568.000000
1775416.000000
1776290.000000
1777148.000000
1778048.000000
1778978.000000
1779868.000000
1780706.000000
1781525.000000
1782344.000000
1783135.000000
1783901.000000
1784681.000000
1785501.000000
1786362.000000
1787190.000000
1788034.000000
1788923.000000
1789871.000000
1790770.000000
1791661.000000
1792565.000000
1793484.000000
1794367.000000
1795206.000000
1796074.000000
1796981.000000
