ECG (ms)
-2.000000
584.000000
1166.000000
1742.000000
2314.000000
2887.000000
3459.000000
4038.000000
4618.000000
5204.000000
5789.000000
6370.000000
6948.000000
7531.000000
8119.000000
8707.000000
9298.000000
9884.000000
10465.000000
11044.000000
11630.000000
12221.000000
12816.000000
13408.000000
13994.000000
14575.000000
15158.000000
15745.000000
16338.000000
16930.000000
17523.000000
18109.000000
18692.000000
19276.000000
19863.000000
20442.000000
21016.000000
21587.000000
22164.000000
22744.000000
23321.000000
23891.000000
24457.000000
25028.000000
25604.000000
26184.000000
26766.000000
27342.000000
27914.000000
28486.000000
29061.000000
29640.000000
30221.000000
30802.000000
31384.000000
31963.000000
32537.000000
33109.000000
33683.000000
34264.000000
34848.000000
35434.000000
36017.000000
36595.000000
37175.000000
37760.000000
38348.000000
38937.000000
39522.000000
40100.000000
40680.000000
41260.000000
41842.000000
42423.000000
42998.000000
43560.000000
44130.000000
44709.000000
45280.000000
45841.000000
46397.000000
46953.000000
47511.000000
48067.000000
48618.000000
49170.000000
49725.000000
50287.000000
50854.000000
51428.000000
52002.000000
52575.000000
53143.000000
53710.000000
54282.000000
54857.000000
55435.000000
56010.000000
56585.000000
57159.000000
57734.000000
58304.000000
58870.000000
59441.000000
60014.000000
60595.000000
61185.000000
61777.000000
62368.000000
62952.000000
63531.000000
64110.000000
64695.000000
65280.000000
65867.000000
66453.000000
67033.000000
67610.000000
68183.000000
68759.000000
69340.000000
69923.000000
70504.000000
71081.000000
71660.000000
72239.000000
72822.000000
73407.000000
73986.000000
74565.000000
75148.000000
75729.000000
76306.000000
76880.000000
77458.000000
78039.000000
78621.000000
79201.000000
79774.000000
80342.000000
80914.000000
81489.000000
82065.000000
82637.000000
83205.000000
83774.000000
84348.000000
84927.000000
85508.000000
86083.000000
86660.000000
87247.000000
87842.000000
88436.000000
89031.000000
89619.000000
90208.000000
90797.000000
91390.000000
91982.000000
92565.000000
93142.000000
93726.000000
94311.000000
94896.000000
95477.000000
96051.000000
96628.000000
97211.000000
97798.000000
98385.000000
98971.000000
99556.000000
100134.000000
100711.000000
101288.000000
101874.000000
102462.000000
103052.000000
103639.000000
104220.000000
104802.000000
105387.000000
105978.000000
106571.000000
107162.000000
107750.000000
108335.000000
108914.000000
109499.000000
110080.000000
110658.000000
111226.000000
111791.000000
112357.000000
112925.000000
113491.000000
114056.000000
114623.000000
115197.000000
115778.000000
116362.000000
116947.000000
117525.000000
118101.000000
118680.000000
119264.000000
119851.000000
120438.000000
121018.000000
121594.000000
122176.000000
122763.000000
123351.000000
123935.000000
124515.000000
125102.000000
125692.000000
126284.000000
126876.000000
127461.000000
128050.000000
128644.000000
129237.000000
129825.000000
130409.000000
130993.000000
131578.000000
132164.000000
132745.000000
133322.000000
133905.000000
134491.000000
135082.000000
135669.000000
136250.000000
136831.000000
137417.000000
138002.000000
138585.000000
139162.000000
139740.000000
140318.000000
140904.000000
141492.000000
142074.000000
142652.000000
143227.000000
143803.000000
144382.000000
144963.000000
145540.000000
146112.000000
146684.000000
147253.000000
147827.000000
148404.000000
148980.000000
149553.000000
150122.000000
150692.000000
151264.000000
151843.000000
152420.000000
152995.000000
153566.000000
154136.000000
154714.000000
155293.000000
155872.000000
156449.000000
157021.000000
157591.000000
158160.000000
158732.000000
159307.000000
159879.000000
160447.000000
161019.000000
161595.000000
162170.000000
162742.000000
163310.000000
163878.000000
164457.000000
165039.000000
165624.000000
166208.000000
166786.000000
167363.000000
167947.000000
168531.000000
169112.000000
169684.000000
170255.000000
170829.000000
171403.000000
171977.000000
172544.000000
173107.000000
173677.000000
174251.000000
174825.000000
175399.000000
175972.000000
176538.000000
177105.000000
177672.000000
178247.000000
178828.000000
179411.000000
179989.000000
180563.000000
181138.000000
181717.000000
182300.000000
182883.000000
183461.000000
184038.000000
184621.000000
185206.000000
185790.000000
186371.000000
186947.000000
187524.000000
188105.000000
188687.000000
189266.000000
189840.000000
190415.000000
190995.000000
191579.000000
192162.000000
192738.000000
193316.000000
193897.000000
194481.000000
195062.000000
195635.000000
196209.000000
196786.000000
197366.000000
197945.000000
198519.000000
199094.000000
199675.000000
200261.000000
200849.000000
201427.000000
202002.000000
202581.000000
203163.000000
203742.000000
204313.000000
204884.000000
205460.000000
206037.000000
206609.000000
207177.000000
207745.000000
208316.000000
208892.000000
209470.000000
210042.000000
210613.000000
211186.000000
211762.000000
212335.000000
212903.000000
213470.000000
214035.000000
214608.000000
215184.000000
215763.000000
216339.000000
216911.000000
217488.000000
218069.000000
218659.000000
219245.000000
219825.000000
220406.000000
220996.000000
221592.000000
222184.000000
222771.000000
223367.000000
223968.000000
224567.000000
225157.000000
225749.000000
226343.000000
226935.000000
227522.000000
228109.000000
228700.000000
229293.000000
229881.000000
230461.000000
231043.000000
231629.000000
232213.000000
232788.000000
233368.000000
233953.000000
234537.000000
235117.000000
235693.000000
236274.000000
236861.000000
237448.000000
238033.000000
238615.000000
239190.000000
239767.000000
240348.000000
240934.000000
241523.000000
242105.000000
242682.000000
243260.000000
243839.000000
244419.000000
245000.000000
245578.000000
246151.000000
246724.000000
247303.000000
247885.000000
248468.000000
249045.000000
249622.000000
250207.000000
250795.000000
251382.000000
251963.000000
252545.000000
253130.000000
253714.000000
254293.000000
254870.000000
255447.000000
256025.000000
256604.000000
257183.000000
257760.000000
258333.000000
258908.000000
259486.000000
260067.000000
260645.000000
261219.000000
261794.000000
262373.000000
262954.000000
263533.000000
264110.000000
264684.000000
265263.000000
265845.000000
266426.000000
267003.000000
267582.000000
268167.000000
268751.000000
269334.000000
269917.000000
270505.000000
271097.000000
271687.000000
272270.000000
272856.000000
273446.000000
274038.000000
274625.000000
275208.000000
275789.000000
276370.000000
276956.000000
277546.000000
278133.000000
278714.000000
279299.000000
279885.000000
280470.000000
281049.000000
281625.000000
282203.000000
282784.000000
283365.000000
283944.000000
284517.000000
285093.000000
285675.000000
286260.000000
286842.000000
287422.000000
288005.000000
288588.000000
289172.000000
289751.000000
290325.000000
290895.000000
291461.000000
292026.000000
292583.000000
293138.000000
293694.000000
294254.000000
294817.000000
295380.000000
295941.000000
296507.000000
297073.000000
297647.000000
298225.000000
298804.000000
299379.000000
299950.000000
300516.000000
301086.000000
301659.000000
302234.000000
302809.000000
303380.000000
303947.000000
304518.000000
305094.000000
305672.000000
306249.000000
306823.000000
307398.000000
307978.000000
308561.000000
309140.000000
309716.000000
310296.000000
310883.000000
311471.000000
312057.000000
312641.000000
313226.000000
313816.000000
314405.000000
314989.000000
315568.000000
316153.000000
316741.000000
317328.000000
317910.000000
318489.000000
319072.000000
319657.000000
320240.000000
320818.000000
321393.000000
321973.000000
322558.000000
323143.000000
323722.000000
324302.000000
324889.000000
325480.000000
326073.000000
326659.000000
327244.000000
327832.000000
328423.000000
329008.000000
329589.000000
330174.000000
330761.000000
331347.000000
331926.000000
332509.000000
333096.000000
333685.000000
334271.000000
334855.000000
335443.000000
336036.000000
336631.000000
337218.000000
337804.000000
338392.000000
338979.000000
339566.000000
340147.000000
340722.000000
341296.000000
341872.000000
342448.000000
343024.000000
343596.000000
344172.000000
344753.000000
345338.000000
345920.000000
346500.000000
347078.000000
347657.000000
348237.000000
348821.000000
349404.000000
349988.000000
350569.000000
351142.000000
351714.000000
352288.000000
352865.000000
353441.000000
354016.000000
354587.000000
355158.000000
355734.000000
356314.000000
356899.000000
357480.000000
358057.000000
358638.000000
359224.000000
359811.000000
360399.000000
360981.000000
361567.000000
362159.000000
362750.000000
363343.000000
363930.000000
364516.000000
365108.000000
365703.000000
366298.000000
366887.000000
367474.000000
368065.000000
368658.000000
369247.000000
369834.000000
370417.000000
371004.000000
371593.000000
372178.000000
372762.000000
373348.000000
373940.000000
374532.000000
375116.000000
375699.000000
376286.000000
376876.000000
377462.000000
378043.000000
378625.000000
379214.000000
379803.000000
380385.000000
380970.000000
381560.000000
382150.000000
382737.000000
383323.000000
383914.000000
384507.000000
385099.000000
385685.000000
386277.000000
386871.000000
387463.000000
388049.000000
388633.000000
389221.000000
389812.000000
390396.000000
390974.000000
391554.000000
392135.000000
392716.000000
393293.000000
393867.000000
394442.000000
395022.000000
395604.000000
396185.000000
396762.000000
397341.000000
397921.000000
398502.000000
399082.000000
399658.000000
400232.000000
400811.000000
401394.000000
401976.000000
402554.000000
403131.000000
403718.000000
404306.000000
404892.000000
405476.000000
406060.000000
406650.000000
407240.000000
407827.000000
408408.000000
408988.000000
409568.000000
410153.000000
410736.000000
411314.000000
411889.000000
412469.000000
413055.000000
413637.000000
414215.000000
414796.000000
415379.000000
415967.000000
416556.000000
417138.000000
417718.000000
418301.000000
418885.000000
419470.000000
420054.000000
420630.000000
421205.000000
421784.000000
422363.000000
422943.000000
423520.000000
424093.000000
424670.000000
425251.000000
425834.000000
426414.000000
426989.000000
427561.000000
428137.000000
428717.000000
429296.000000
429872.000000
430447.000000
431027.000000
431613.000000
432204.000000
432791.000000
433376.000000
433961.000000
434548.000000
435141.000000
435733.000000
436320.000000
436901.000000
437483.000000
438065.000000
438649.000000
439229.000000
439804.000000
440381.000000
440964.000000
441548.000000
442129.000000
442707.000000
443289.000000
443879.000000
444470.000000
445057.000000
445639.000000
446225.000000
446814.000000
447405.000000
447992.000000
448573.000000
449158.000000
449748.000000
450335.000000
450918.000000
451504.000000
452094.000000
452680.000000
453263.000000
453853.000000
454449.000000
455044.000000
455630.000000
456212.000000
456795.000000
457385.000000
457973.000000
458557.000000
459136.000000
459721.000000
460312.000000
460900.000000
461482.000000
462062.000000
462643.000000
463232.000000
463822.000000
464407.000000
464989.000000
465571.000000
466156.000000
466742.000000
467332.000000
467923.000000
468509.000000
469093.000000
469680.000000
470269.000000
470857.000000
471442.000000
472023.000000
472602.000000
473179.000000
473762.000000
474346.000000
474932.000000
475514.000000
476090.000000
476669.000000
477250.000000
477831.000000
478409.000000
478988.000000
479572.000000
480161.000000
480747.000000
481329.000000
481914.000000
482504.000000
483094.000000
483680.000000
484266.000000
484856.000000
485449.000000
486036.000000
486617.000000
487200.000000
487785.000000
488369.000000
488947.000000
489526.000000
490108.000000
490695.000000
491282.000000
491862.000000
492447.000000
493037.000000
493634.000000
494227.000000
494812.000000
495399.000000
495994.000000
496588.000000
497178.000000
497760.000000
498347.000000
498941.000000
499536.000000
500122.000000
500707.000000
501300.000000
501893.000000
502482.000000
503065.000000
503650.000000
504240.000000
504827.000000
505408.000000
505985.000000
506565.000000
507151.000000
507738.000000
508321.000000
508903.000000
509496.000000
510088.000000
510675.000000
511256.000000
511830.000000
512407.000000
512990.000000
513576.000000
514158.000000
514738.000000
515320.000000
515907.000000
516498.000000
517085.000000
517668.000000
518250.000000
518839.000000
519430.000000
520020.000000
520604.000000
521192.000000
521784.000000
522379.000000
522969.000000
523555.000000
524146.000000
524741.000000
525335.000000
525921.000000
526499.000000
527081.000000
527666.000000
528250.000000
528829.000000
529404.000000
529979.000000
530559.000000
531145.000000
531736.000000
532324.000000
532908.000000
533492.000000
534081.000000
534676.000000
535271.000000
535860.000000
536444.000000
537032.000000
537626.000000
538221.000000
538809.000000
539399.000000
539994.000000
540593.000000
541187.000000
541776.000000
542370.000000
542969.000000
543571.000000
544163.000000
544753.000000
545349.000000
545946.000000
546538.000000
547123.000000
547712.000000
548303.000000
548899.000000
549494.000000
550081.000000
550668.000000
551258.000000
551846.000000
552431.000000
553016.000000
553606.000000
554199.000000
554788.000000
555373.000000
555962.000000
556561.000000
557154.000000
557744.000000
558335.000000
558933.000000
559529.000000
560119.000000
560708.000000
561299.000000
561894.000000
562485.000000
563072.000000
563655.000000
564242.000000
564833.000000
565424.000000
566008.000000
566596.000000
567188.000000
567784.000000
568378.000000
568970.000000
569567.000000
570169.000000
570770.000000
571365.000000
571962.000000
572566.000000
573169.000000
573766.000000
574356.000000
574941.000000
575529.000000
576121.000000
576712.000000
577296.000000
577879.000000
578467.000000
579059.000000
579647.000000
580231.000000
580818.000000
581405.000000
581995.000000
582585.000000
583171.000000
583753.000000
584335.000000
584921.000000
585510.000000
586093.000000
586673.000000
587255.000000
587844.000000
588432.000000
589016.000000
589598.000000
590186.000000
590777.000000
591365.000000
591947.000000
592528.000000
593113.000000
593701.000000
594289.000000
594872.000000
595457.000000
596049.000000
596644.000000
597233.000000
597819.000000
598411.000000
599007.000000
599595.000000
600177.000000
600754.000000
601334.000000
601915.000000
602498.000000
603080.000000
603660.000000
604237.000000
604807.000000
605376.000000
605950.000000
606524.000000
607096.000000
607662.000000
608230.000000
608806.000000
609383.000000
609959.000000
610531.000000
611101.000000
611676.000000
612254.000000
612831.000000
613408.000000
613983.000000
614555.000000
615131.000000
615710.000000
616289.000000
616866.000000
617442.000000
618023.000000
618606.000000
619188.000000
619767.000000
620346.000000
620926.000000
621510.000000
622092.000000
622672.000000
623250.000000
623828.000000
624410.000000
624993.000000
625575.000000
626151.000000
626727.000000
627307.000000
627889.000000
628468.000000
629046.000000
629628.000000
630212.000000
630794.000000
631372.000000
631948.000000
632529.000000
633111.000000
633693.000000
634269.000000
634846.000000
635425.000000
636005.000000
636585.000000
637162.000000
637736.000000
638317.000000
638897.000000
639478.000000
640059.000000
640636.000000
641210.000000
641785.000000
642364.000000
642941.000000
643511.000000
644081.000000
644651.000000
645216.000000
645777.000000
646333.000000
646890.000000
647451.000000
648017.000000
648589.000000
649163.000000
649734.000000
650306.000000
650880.000000
651458.000000
652035.000000
652609.000000
653181.000000
653758.000000
654340.000000
654921.000000
655499.000000
656078.000000
656660.000000
657247.000000
657833.000000
658414.000000
659001.000000
659594.000000
660192.000000
660792.000000
661385.000000
661977.000000
662576.000000
663177.000000
663775.000000
664367.000000
664961.000000
665561.000000
666158.000000
666749.000000
667332.000000
667916.000000
668504.000000
669092.000000
669675.000000
670255.000000
670840.000000
671426.000000
672012.000000
672593.000000
673174.000000
673760.000000
674349.000000
674942.000000
675530.000000
676114.000000
676699.000000
677286.000000
677876.000000
678463.000000
679045.000000
679626.000000
680212.000000
680803.000000
681393.000000
681979.000000
682563.000000
683145.000000
683726.000000
684311.000000
684893.000000
685476.000000
686056.000000
686631.000000
687206.000000
687785.000000
688365.000000
688944.000000
689520.000000
690096.000000
690677.000000
691262.000000
691850.000000
692434.000000
693014.000000
693594.000000
694178.000000
694767.000000
695356.000000
695947.000000
696529.000000
697110.000000
697695.000000
698285.000000
698880.000000
699474.000000
700063.000000
700655.000000
701254.000000
701852.000000
702444.000000
703038.000000
703635.000000
704233.000000
704826.000000
705413.000000
706004.000000
706599.000000
707196.000000
707786.000000
708372.000000
708963.000000
709555.000000
710147.000000
710732.000000
711315.000000
711902.000000
712492.000000
713083.000000
713666.000000
714245.000000
714828.000000
715417.000000
716005.000000
716590.000000
717170.000000
717753.000000
718342.000000
718932.000000
719520.000000
720103.000000
720682.000000
721262.000000
721847.000000
722434.000000
723018.000000
723598.000000
724183.000000
724774.000000
725371.000000
725966.000000
726557.000000
727149.000000
727747.000000
728344.000000
728936.000000
729525.000000
730117.000000
730712.000000
731302.000000
731887.000000
732470.000000
733058.000000
733649.000000
734235.000000
734817.000000
735401.000000
735990.000000
736580.000000
737167.000000
737756.000000
738352.000000
738947.000000
739535.000000
740124.000000
740721.000000
741319.000000
741910.000000
742497.000000
743087.000000
743678.000000
744267.000000
744849.000000
745429.000000
746012.000000
746598.000000
747188.000000
747777.000000
748364.000000
748953.000000
749550.000000
750150.000000
750742.000000
751334.000000
751932.000000
752533.000000
753134.000000
753728.000000
754317.000000
754909.000000
755501.000000
756089.000000
756673.000000
757264.000000
757862.000000
758463.000000
759058.000000
759649.000000
760244.000000
760849.000000
761454.000000
762051.000000
762648.000000
763247.000000
763849.000000
764451.000000
765046.000000
765644.000000
766249.000000
766854.000000
767455.000000
768049.000000
768646.000000
769249.000000
769853.000000
770455.000000
771053.000000
771658.000000
772269.000000
772878.000000
773479.000000
774077.000000
774681.000000
775289.000000
775896.000000
776495.000000
777093.000000
777696.000000
778302.000000
778904.000000
779498.000000
780090.000000
780689.000000
781291.000000
781893.000000
782486.000000
783083.000000
783685.000000
784285.000000
784879.000000
785470.000000
786066.000000
786667.000000
787267.000000
787865.000000
788457.000000
789049.000000
789649.000000
790253.000000
790856.000000
791452.000000
792045.000000
792644.000000
793248.000000
793850.000000
794443.000000
795038.000000
795636.000000
796239.000000
796841.000000
797432.000000
798023.000000
798617.000000
799214.000000
799807.000000
800394.000000
800985.000000
801580.000000
802179.000000
802773.000000
803367.000000
803964.000000
804568.000000
805173.000000
805774.000000
806373.000000
806980.000000
807589.000000
808198.000000
808800.000000
809396.000000
809991.000000
810589.000000
811190.000000
811789.000000
812385.000000
812989.000000
813605.000000
814219.000000
814827.000000
815432.000000
816043.000000
816657.000000
817271.000000
817881.000000
818495.000000
819112.000000
819729.000000
820341.000000
820945.000000
821548.000000
822154.000000
822764.000000
823368.000000
823973.000000
824582.000000
825198.000000
825812.000000
826421.000000
827029.000000
827644.000000
828264.000000
828883.000000
829494.000000
830109.000000
830723.000000
831339.000000
831949.000000
832552.000000
833161.000000
833773.000000
834382.000000
834985.000000
835582.000000
836184.000000
836790.000000
837395.000000
837997.000000
838592.000000
839191.000000
839796.000000
840404.000000
841009.000000
841608.000000
842213.000000
842826.000000
843442.000000
844052.000000
844652.000000
845253.000000
845857.000000
846463.000000
847063.000000
847658.000000
848250.000000
848847.000000
849447.000000
850046.000000
850641.000000
851234.000000
851835.000000
852442.000000
853047.000000
853644.000000
854244.000000
854850.000000
855456.000000
856057.000000
856652.000000
857251.000000
857858.000000
858464.000000
859064.000000
859659.000000
860259.000000
860863.000000
861467.000000
862064.000000
862654.000000
863245.000000
863843.000000
864448.000000
865045.000000
865636.000000
866231.000000
866831.000000
867436.000000
868039.000000
868636.000000
869239.000000
869852.000000
870464.000000
871067.000000
871660.000000
872258.000000
872853.000000
873441.000000
874023.000000
874603.000000
875184.000000
875761.000000
876332.000000
876897.000000
877460.000000
878026.000000
878599.000000
879176.000000
879752.000000
880326.000000
880903.000000
881486.000000
882069.000000
882650.000000
883229.000000
883809.000000
884391.000000
884975.000000
885554.000000
886130.000000
886705.000000
887283.000000
887864.000000
888444.000000
889021.000000
889599.000000
890178.000000
890762.000000
891348.000000
891930.000000
892511.000000
893095.000000
893686.000000
894280.000000
894874.000000
895466.000000
896056.000000
896648.000000
897247.000000
897846.000000
898439.000000
899028.000000
899619.000000
900212.000000
900804.000000
901392.000000
901975.000000
902561.000000
903151.000000
903744.000000
904338.000000
904927.000000
905516.000000
906108.000000
906702.000000
907298.000000
907890.000000
908476.000000
909065.000000
909657.000000
910250.000000
910843.000000
911438.000000
912031.000000
912618.000000
913204.000000
913795.000000
914387.000000
914977.000000
915561.000000
916146.000000
916733.000000
917319.000000
917900.000000
918480.000000
919066.000000
919655.000000
920244.000000
920830.000000
921411.000000
921993.000000
922579.000000
923168.000000
923757.000000
924341.000000
924926.000000
925514.000000
926107.000000
926699.000000
927288.000000
927875.000000
928467.000000
929066.000000
929665.000000
930259.000000
930850.000000
931444.000000
932044.000000
932647.000000
933249.000000
933845.000000
934446.000000
935052.000000
935659.000000
936262.000000
936860.000000
937459.000000
938058.000000
938660.000000
939257.000000
939847.000000
940442.000000
941039.000000
941638.000000
942231.000000
942822.000000
943417.000000
944014.000000
944607.000000
945193.000000
945782.000000
946376.000000
946974.000000
947575.000000
948169.000000
948759.000000
949356.000000
949956.000000
950559.000000
951160.000000
951756.000000
952357.000000
952966.000000
953575.000000
954181.000000
954782.000000
955384.000000
955992.000000
956599.000000
957203.000000
957801.000000
958403.000000
959012.000000
959620.000000
960223.000000
960832.000000
961451.000000
962068.000000
962681.000000
963288.000000
963898.000000
964511.000000
965123.000000
965727.000000
966327.000000
966932.000000
967540.000000
968147.000000
968746.000000
969342.000000
969944.000000
970551.000000
971155.000000
971753.000000
972354.000000
972959.000000
973565.000000
974163.000000
974760.000000
975361.000000
975967.000000
976572.000000
977170.000000
977768.000000
978371.000000
978977.000000
979582.000000
980182.000000
980777.000000
981378.000000
981985.000000
982591.000000
983193.000000
983793.000000
984396.000000
985007.000000
985617.000000
986221.000000
986824.000000
987432.000000
988044.000000
988654.000000
989258.000000
989857.000000
990458.000000
991060.000000
991666.000000
992268.000000
992868.000000
993475.000000
994085.000000
994694.000000
995299.000000
995897.000000
996498.000000
997106.000000
997715.000000
998317.000000
998919.000000
999529.000000
1000145.000000
1000755.000000
1001358.000000
1001964.000000
1002575.000000
1003192.000000
1003802.000000
1004410.000000
1005024.000000
1005642.000000
1006256.000000
1006866.000000
1007473.000000
1008083.000000
1008697.000000
1009311.000000
1009919.000000
1010524.000000
1011136.000000
1011749.000000
1012359.000000
1012963.000000
1013566.000000
1014174.000000
1014786.000000
1015397.000000
1016001.000000
1016603.000000
1017210.000000
1017820.000000
1018427.000000
1019029.000000
1019629.000000
1020232.000000
1020843.000000
1021449.000000
1022050.000000
1022652.000000
1023257.000000
1023864.000000
1024466.000000
1025062.000000
1025657.000000
1026248.000000
1026835.000000
1027414.000000
1027988.000000
1028558.000000
1029126.000000
1029699.000000
1030280.000000
1030863.000000
1031447.000000
1032026.000000
1032608.000000
1033194.000000
1033787.000000
1034384.000000
1034981.000000
1035572.000000
1036158.000000
1036749.000000
1037341.000000
1037933.000000
1038521.000000
1039108.000000
1039700.000000
1040299.000000
1040899.000000
1041495.000000
1042089.000000
1042688.000000
1043289.000000
1043891.000000
1044487.000000
1045079.000000
1045677.000000
1046275.000000
1046870.000000
1047459.000000
1048045.000000
1048632.000000
1049222.000000
1049812.000000
1050400.000000
1050985.000000
1051572.000000
1052163.000000
1052757.000000
1053349.000000
1053939.000000
1054531.000000
1055132.000000
1055738.000000
1056344.000000
1056945.000000
1057547.000000
1058153.000000
1058763.000000
1059372.000000
1059974.000000
1060573.000000
1061176.000000
1061781.000000
1062386.000000
1062990.000000
1063595.000000
1064192.000000
1064785.000000
1065381.000000
1065981.000000
1066585.000000
1067184.000000
1067780.000000
1068377.000000
1068981.000000
1069587.000000
1070195.000000
1070799.000000
1071397.000000
1071998.000000
1072603.000000
1073209.000000
1073808.000000
1074406.000000
1075009.000000
1075616.000000
1076220.000000
1076819.000000
1077424.000000
1078033.000000
1078638.000000
1079238.000000
1079838.000000
1080438.000000
1081038.000000
1081633.000000
1082222.000000
1082809.000000
1083400.000000
1083997.000000
1084593.000000
1085183.000000
1085774.000000
1086370.000000
1086971.000000
1087570.000000
1088164.000000
1088755.000000
1089347.000000
1089945.000000
1090539.000000
1091130.000000
1091719.000000
1092313.000000
1092909.000000
1093506.000000
1094102.000000
1094691.000000
1095281.000000
1095876.000000
1096473.000000
1097068.000000
1097657.000000
1098248.000000
1098843.000000
1099440.000000
1100034.000000
1100626.000000
1101222.000000
1101826.000000
1102428.000000
1103027.000000
1103625.000000
1104227.000000
1104834.000000
1105439.000000
1106036.000000
1106633.000000
1107234.000000
1107839.000000
1108440.000000
1109033.000000
1109627.000000
1110225.000000
1110823.000000
1111421.000000
1112011.000000
1112604.000000
1113201.000000
1113798.000000
1114390.000000
1114979.000000
1115573.000000
1116174.000000
1116780.000000
1117382.000000
1117983.000000
1118596.000000
1119214.000000
1119829.000000
1120438.000000
1121042.000000
1121650.000000
1122262.000000
1122871.000000
1123471.000000
1124070.000000
1124673.000000
1125280.000000
1125883.000000
1126481.000000
1127083.000000
1127695.000000
1128308.000000
1128923.000000
1129528.000000
1130129.000000
1130732.000000
1131342.000000
1131953.000000
1132556.000000
1133157.000000
1133763.000000
1134373.000000
1134980.000000
1135579.000000
1136183.000000
1136795.000000
1137407.000000
1138011.000000
1138618.000000
1139232.000000
1139847.000000
1140459.000000
1141065.000000
1141678.000000
1142297.000000
1142916.000000
1143530.000000
1144142.000000
1144762.000000
1145388.000000
1146009.000000
1146623.000000
1147236.000000
1147855.000000
1148474.000000
1149091.000000
1149701.000000
1150313.000000
1150930.000000
1151547.000000
1152155.000000
1152762.000000
1153374.000000
1153989.000000
1154603.000000
1155209.000000
1155808.000000
1156407.000000
1157006.000000
1157593.000000
1158175.000000
1158755.000000
1159329.000000
1159902.000000
1160480.000000
1161068.000000
1161663.000000
1162258.000000
1162848.000000
1163440.000000
1164038.000000
1164641.000000
1165243.000000
1165837.000000
1166428.000000
1167023.000000
1167619.000000
1168215.000000
1168807.000000
1169397.000000
1169985.000000
1170574.000000
1171171.000000
1171768.000000
1172367.000000
1172961.000000
1173553.000000
1174148.000000
1174746.000000
1175347.000000
1175946.000000
1176539.000000
1177133.000000
1177730.000000
1178329.000000
1178923.000000
1179515.000000
1180100.000000
1180690.000000
1181284.000000
1181880.000000
1182475.000000
1183070.000000
1183660.000000
1184250.000000
1184842.000000
1185437.000000
1186037.000000
1186635.000000
1187229.000000
1187827.000000
1188432.000000
1189036.000000
1189634.000000
1190228.000000
1190827.000000
1191429.000000
1192029.000000
1192626.000000
1193221.000000
1193820.000000
1194423.000000
1195032.000000
1195640.000000
1196243.000000
1196846.000000
1197451.000000
1198059.000000
1198665.000000
1199271.000000
1199870.000000
1200466.000000
1201059.000000
1201657.000000
1202256.000000
1202853.000000
1203443.000000
1204030.000000
1204620.000000
1205213.000000
1205804.000000
1206393.000000
1206978.000000
1207569.000000
1208166.000000
1208762.000000
1209356.000000
1209949.000000
1210547.000000
1211150.000000
1211753.000000
1212350.000000
1212944.000000
1213543.000000
1214144.000000
1214747.000000
1215344.000000
1215937.000000
1216535.000000
1217137.000000
1217737.000000
1218330.000000
1218923.000000
1219521.000000
1220120.000000
1220716.000000
1221307.000000
1221902.000000
1222503.000000
1223105.000000
1223704.000000
1224301.000000
1224902.000000
1225508.000000
1226116.000000
1226717.000000
1227321.000000
1227931.000000
1228543.000000
1229150.000000
1229750.000000
1230351.000000
1230955.000000
1231558.000000
1232155.000000
1232752.000000
1233356.000000
1233961.000000
1234564.000000
1235163.000000
1235766.000000
1236374.000000
1236982.000000
1237582.000000
1238180.000000
1238782.000000
1239386.000000
1239987.000000
1240582.000000
1241178.000000
1241782.000000
1242384.000000
1242982.000000
1243580.000000
1244183.000000
1244792.000000
1245400.000000
1246010.000000
1246614.000000
1247217.000000
1247824.000000
1248431.000000
1249037.000000
1249636.000000
1250231.000000
1250828.000000
1251430.000000
1252035.000000
1252638.000000
1253234.000000
1253834.000000
1254441.000000
1255049.000000
1255655.000000
1256256.000000
1256864.000000
1257473.000000
1258079.000000
1258680.000000
1259285.000000
1259899.000000
1260510.000000
1261114.000000
1261712.000000
1262310.000000
1262898.000000
1263486.000000
1264073.000000
1264652.000000
1265228.000000
1265803.000000
1266378.000000
1266952.000000
1267523.000000
1268093.000000
1268665.000000
1269233.000000
1269801.000000
1270370.000000
1270940.000000
1271505.000000
1272069.000000
1272628.000000
1273185.000000
1273741.000000
1274297.000000
1274854.000000
1275413.000000
1275969.000000
1276527.000000
1277094.000000
1277673.000000
1278260.000000
1278850.000000
1279436.000000
1280022.000000
1280613.000000
1281209.000000
1281810.000000
1282408.000000
1283001.000000
1283593.000000
1284189.000000
1284787.000000
1285386.000000
1285982.000000
1286577.000000
1287173.000000
1287775.000000
1288381.000000
1288988.000000
1289590.000000
1290188.000000
1290785.000000
1291381.000000
1291983.000000
1292587.000000
1293190.000000
1293786.000000
1294383.000000
1294982.000000
1295581.000000
1296178.000000
1296769.000000
1297359.000000
1297953.000000
1298554.000000
1299153.000000
1299749.000000
1300343.000000
1300940.000000
1301547.000000
1302154.000000
1302755.000000
1303351.000000
1303954.000000
1304561.000000
1305167.000000
1305767.000000
1306366.000000
1306967.000000
1307571.000000
1308176.000000
1308777.000000
1309373.000000
1309970.000000
1310569.000000
1311173.000000
1311778.000000
1312380.000000
1312975.000000
1313568.000000
1314168.000000
1314769.000000
1315371.000000
1315968.000000
1316563.000000
1317158.000000
1317759.000000
1318365.000000
1318967.000000
1319564.000000
1320163.000000
1320767.000000
1321375.000000
1321981.000000
1322586.000000
1323185.000000
1323783.000000
1324386.000000
1324998.000000
1325608.000000
1326212.000000
1326817.000000
1327425.000000
1328035.000000
1328647.000000
1329256.000000
1329860.000000
1330465.000000
1331075.000000
1331686.000000
1332292.000000
1332895.000000
1333500.000000
1334109.000000
1334717.000000
1335318.000000
1335914.000000
1336512.000000
1337113.000000
1337712.000000
1338301.000000
1338883.000000
1339462.000000
1340044.000000
1340630.000000
1341220.000000
1341809.000000
1342398.000000
1342989.000000
1343591.000000
1344199.000000
1344807.000000
1345407.000000
1346003.000000
1346602.000000
1347207.000000
1347813.000000
1348416.000000
1349013.000000
1349610.000000
1350212.000000
1350818.000000
1351423.000000
1352022.000000
1352617.000000
1353215.000000
1353818.000000
1354427.000000
1355034.000000
1355638.000000
1356237.000000
1356840.000000
1357450.000000
1358060.000000
1358668.000000
1359274.000000
1359873.000000
1360474.000000
1361079.000000
1361686.000000
1362289.000000
1362883.000000
1363479.000000
1364081.000000
1364681.000000
1365282.000000
1365881.000000
1366474.000000
1367070.000000
1367671.000000
1368275.000000
1368879.000000
1369476.000000
1370072.000000
1370675.000000
1371283.000000
1371890.000000
1372491.000000
1373089.000000
1373692.000000
1374302.000000
1374914.000000
1375524.000000
1376132.000000
1376743.000000
1377355.000000
1377968.000000
1378577.000000
1379183.000000
1379790.000000
1380400.000000
1381010.000000
1381615.000000
1382216.000000
1382821.000000
1383431.000000
1384041.000000
1384649.000000
1385253.000000
1385861.000000
1386471.000000
1387082.000000
1387693.000000
1388300.000000
1388903.000000
1389498.000000
1390094.000000
1390693.000000
1391293.000000
1391888.000000
1392481.000000
1393076.000000
1393682.000000
1394291.000000
1394903.000000
1395507.000000
1396107.000000
1396713.000000
1397320.000000
1397923.000000
1398521.000000
1399117.000000
1399718.000000
1400320.000000
1400920.000000
1401513.000000
1402111.000000
1402716.000000
1403321.000000
1403922.000000
1404519.000000
1405121.000000
1405729.000000
1406339.000000
1406944.000000
1407549.000000
1408159.000000
1408779.000000
1409397.000000
1410004.000000
1410615.000000
1411232.000000
1411847.000000
1412454.000000
1413062.000000
1413677.000000
1414296.000000
1414913.000000
1415522.000000
1416123.000000
1416727.000000
1417338.000000
1417948.000000
1418553.000000
1419154.000000
1419759.000000
1420367.000000
1420978.000000
1421585.000000
1422187.000000
1422794.000000
1423409.000000
1424025.000000
1424635.000000
1425239.000000
1425842.000000
1426456.000000
1427072.000000
1427682.000000
1428283.000000
1428883.000000
1429489.000000
1430100.000000
1430711.000000
1431315.000000
1431916.000000
1432526.000000
1433140.000000
1433754.000000
1434362.000000
1434965.000000
1435568.000000
1436177.000000
1436790.000000
1437401.000000
1438006.000000
1438615.000000
1439232.000000
1439849.000000
1440462.000000
1441068.000000
1441682.000000
1442296.000000
1442908.000000
1443514.000000
1444124.000000
1444741.000000
1445359.000000
1445968.000000
1446578.000000
1447195.000000
1447813.000000
1448431.000000
1449039.000000
1449654.000000
1450272.000000
1450891.000000
1451504.000000
1452107.000000
1452714.000000
1453327.000000
1453936.000000
1454543.000000
1455147.000000
1455760.000000
1456378.000000
1456996.000000
1457604.000000
1458213.000000
1458833.000000
1459458.000000
1460078.000000
1460692.000000
1461298.000000
1461905.000000
1462515.000000
1463124.000000
1463722.000000
1464322.000000
1464930.000000
1465536.000000
1466139.000000
1466740.000000
1467348.000000
1467967.000000
1468584.000000
1469197.000000
1469814.000000
1470434.000000
1471054.000000
1471667.000000
1472273.000000
1472880.000000
1473493.000000
1474104.000000
1474709.000000
1475316.000000
1475929.000000
1476544.000000
1477156.000000
1477763.000000
1478378.000000
1479000.000000
1479622.000000
1480236.000000
1480850.000000
1481471.000000
1482096.000000
1482715.000000
1483327.000000
1483933.000000
1484544.000000
1485160.000000
1485774.000000
1486379.000000
1486990.000000
1487605.000000
1488217.000000
1488823.000000
1489425.000000
1490031.000000
1490639.000000
1491248.000000
1491852.000000
1492453.000000
1493058.000000
1493669.000000
1494285.000000
1494898.000000
1495503.000000
1496108.000000
1496719.000000
1497333.000000
1497944.000000
1498549.000000
1499144.000000
1499744.000000
1500346.000000
1500948.000000
1501550.000000
1502150.000000
1502744.000000
1503341.000000
1503940.000000
1504541.000000
1505136.000000
1505722.000000
1506306.000000
1506889.000000
1507471.000000
1508046.000000
1508622.000000
1509203.000000
1509786.000000
1510368.000000
1510948.000000
1511530.000000
1512116.000000
1512707.000000
1513298.000000
1513888.000000
1514474.000000
1515062.000000
1515653.000000
1516248.000000
1516845.000000
1517436.000000
1518027.000000
1518623.000000
1519223.000000
1519825.000000
1520424.000000
1521019.000000
1521622.000000
1522231.000000
1522841.000000
1523449.000000
1524050.000000
1524651.000000
1525249.000000
1525843.000000
1526428.000000
1527011.000000
1527591.000000
1528166.000000
1528734.000000
1529301.000000
1529868.000000
1530434.000000
1530997.000000
1531561.000000
1532128.000000
1532702.000000
1533281.000000
1533861.000000
1534439.000000
1535016.000000
1535596.000000
1536180.000000
1536769.000000
1537359.000000
1537943.000000
1538529.000000
1539118.000000
1539714.000000
1540316.000000
1540915.000000
1541510.000000
1542105.000000
1542707.000000
1543316.000000
1543926.000000
1544536.000000
1545139.000000
1545742.000000
1546349.000000
1546959.000000
1547569.000000
1548172.000000
1548775.000000
1549384.000000
1549993.000000
1550601.000000
1551201.000000
1551808.000000
1552422.000000
1553038.000000
1553650.000000
1554257.000000
1554869.000000
1555485.000000
1556105.000000
1556720.000000
1557336.000000
1557956.000000
1558574.000000
1559191.000000
1559805.000000
1560426.000000
1561048.000000
1561671.000000
1562288.000000
1562910.000000
1563532.000000
1564157.000000
1564774.000000
1565389.000000
1566000.000000
1566605.000000
1567200.000000
1567792.000000
1568386.000000
1568975.000000
1569558.000000
1570143.000000
1570731.000000
1571318.000000
1571903.000000
1572485.000000
1573070.000000
1573656.000000
1574248.000000
1574842.000000
1575432.000000
1576026.000000
1576627.000000
1577229.000000
1577829.000000
1578425.000000
1579025.000000
1579630.000000
1580237.000000
1580840.000000
1581441.000000
1582048.000000
1582660.000000
1583271.000000
1583881.000000
1584488.000000
1585100.000000
1585715.000000
1586326.000000
1586929.000000
1587535.000000
1588145.000000
1588755.000000
1589362.000000
1589967.000000
1590576.000000
1591181.000000
1591783.000000
1592374.000000
1592964.000000
1593556.000000
1594149.000000
1594740.000000
1595324.000000
1595912.000000
1596505.000000
1597108.000000
1597707.000000
1598301.000000
1598896.000000
1599497.000000
1600105.000000
1600712.000000
1601314.000000
1601917.000000
1602526.000000
1603144.000000
1603766.000000
1604389.000000
1605005.000000
1605622.000000
1606244.000000
1606868.000000
1607495.000000
1608116.000000
1608736.000000
1609360.000000
1609986.000000
1610607.000000
1611220.000000
1611834.000000
1612453.000000
1613077.000000
1613697.000000
1614309.000000
1614927.000000
1615556.000000
1616189.000000
1616818.000000
1617437.000000
1618062.000000
1618688.000000
1619315.000000
1619935.000000
1620550.000000
1621171.000000
1621797.000000
1622426.000000
1623053.000000
1623665.000000
1624279.000000
1624897.000000
1625510.000000
1626114.000000
1626710.000000
1627308.000000
1627910.000000
1628512.000000
1629110.000000
1629707.000000
1630311.000000
1630921.000000
1631534.000000
1632139.000000
1632745.000000
1633360.000000
1633979.000000
1634597.000000
1635210.000000
1635823.000000
1636441.000000
1637054.000000
1637656.000000
1638251.000000
1638846.000000
1639444.000000
1640040.000000
1640631.000000
1641222.000000
1641817.000000
1642419.000000
1643023.000000
1643623.000000
1644226.000000
1644834.000000
1645448.000000
1646062.000000
1646668.000000
1647278.000000
1647887.000000
1648491.000000
1649087.000000
1649679.000000
1650266.000000
1650850.000000
1651429.000000
1652006.000000
1652580.000000
1653154.000000
1653727.000000
1654292.000000
1654857.000000
1655417.000000
1655973.000000
1656529.000000
1657082.000000
1657633.000000
1658181.000000
1658728.000000
1659276.000000
1659825.000000
1660376.000000
1660927.000000
1661478.000000
1662027.000000
1662575.000000
1663128.000000
1663685.000000
1664248.000000
1664812.000000
1665380.000000
1665950.000000
1666524.000000
1667100.000000
1667676.000000
1668252.000000
1668832.000000
1669415.000000
1670000.000000
1670586.000000
1671168.000000
1671748.000000
1672327.000000
1672909.000000
1673495.000000
1674083.000000
1674669.000000
1675254.000000
1675837.000000
1676415.000000
1676991.000000
1677569.000000
1678151.000000
1678737.000000
1679323.000000
1679911.000000
1680495.000000
1681076.000000
1681657.000000
1682241.000000
1682833.000000
1683427.000000
1684024.000000
1684620.000000
1685213.000000
1685807.000000
1686409.000000
1687019.000000
1687628.000000
1688238.000000
1688845.000000
1689448.000000
1690047.000000
1690644.000000
1691245.000000
1691849.000000
1692454.000000
1693057.000000
1693653.000000
1694244.000000
1694837.000000
1695431.000000
1696017.000000
1696602.000000
1697195.000000
1697793.000000
1698386.000000
1698979.000000
1699574.000000
1700175.000000
1700781.000000
1701385.000000
1701988.000000
1702587.000000
1703179.000000
1703770.000000
1704362.000000
1704959.000000
1705558.000000
1706156.000000
1706751.000000
1707341.000000
1707931.000000
1708526.000000
1709126.000000
1709731.000000
1710338.000000
1710939.000000
1711538.000000
1712142.000000
1712754.000000
1713369.000000
1713982.000000
1714593.000000
1715198.000000
1715807.000000
1716423.000000
1717040.000000
1717658.000000
1718272.000000
1718881.000000
1719490.000000
1720105.000000
1720722.000000
1721340.000000
1721951.000000
1722556.000000
1723169.000000
1723786.000000
1724401.000000
1725010.000000
1725612.000000
1726216.000000
1726824.000000
1727433.000000
1728040.000000
1728637.000000
1729231.000000
1729827.000000
1730427.000000
1731030.000000
1731636.000000
1732238.000000
1732832.000000
1733425.000000
1734019.000000
1734619.000000
1735219.000000
1735821.000000
1736420.000000
1737014.000000
1737608.000000
1738207.000000
1738813.000000
1739422.000000
1740030.000000
1740633.000000
1741235.000000
1741841.000000
1742453.000000
1743070.000000
1743685.000000
1744293.000000
1744898.000000
1745504.000000
1746113.000000
1746723.000000
1747330.000000
1747931.000000
1748528.000000
1749128.000000
1749733.000000
1750340.000000
1750944.000000
1751543.000000
1752139.000000
1752742.000000
1753346.000000
1753954.000000
1754561.000000
1755163.000000
1755762.000000
1756362.000000
1756968.000000
1757578.000000
1758189.000000
1758795.000000
1759395.000000
1759999.000000
1760607.000000
1761218.000000
1761831.000000
1762436.000000
1763041.000000
1763652.000000
1764265.000000
1764875.000000
1765481.000000
1766081.000000
1766688.000000
1767296.000000
1767901.000000
1768496.000000
1769089.000000
1769680.000000
1770269.000000
1770850.000000
1771427.000000
1771998.000000
1772570.000000
1773147.000000
1773729.000000
1774312.000000
1774897.000000
1775480.000000
1776063.000000
1776652.000000
1777244.000000
1777837.000000
1778430.000000
1779018.000000
1779606.000000
1780202.000000
1780802.000000
1781405.000000
1782013.000000
1782617.000000
1783216.000000
1783822.000000
1784431.000000
1785040.000000
1785648.000000
1786251.000000
1786854.000000
1787461.000000
1788073.000000
1788687.000000
1789294.000000
1789899.000000
1790512.000000
1791131.000000
1791746.000000
1792353.000000
1792964.000000
1793582.000000
1794206.000000
1794829.000000
1795445.000000
1796061.000000
1796681.000000
1797303.000000
1797919.000000
1798526.000000
1799137.000000
1799755.000000
1800372.000000
1800984.000000
1801593.000000
1802211.000000
1802833.000000
1803452.000000
1804064.000000
1804675.000000
1805290.000000
1805912.000000
1806532.000000
1807146.000000
1807763.000000
1808383.000000
1809007.000000
1809622.000000
1810231.000000
1810842.000000
1811458.000000
1812076.000000
1812689.000000
1813299.000000
1813901.000000
1814507.000000
1815116.000000
1815724.000000
1816331.000000
1816932.000000
1817527.000000
1818125.000000
1818727.000000
1819330.000000
1819931.000000
1820528.000000
1821123.000000
1821725.000000
1822331.000000
1822936.000000
1823540.000000
1824141.000000
1824749.000000
1825363.000000
1825976.000000
1826585.000000
1827191.000000
1827803.000000
1828419.000000
1829031.000000
1829636.000000
1830233.000000
1830835.000000
1831441.000000
1832046.000000
1832645.000000
1833242.000000
1833846.000000
1834452.000000
1835059.000000
1835661.000000
1836261.000000
1836864.000000
1837473.000000
1838083.000000
1838694.000000
1839304.000000
1839905.000000
1840504.000000
1841109.000000
1841719.000000
1842328.000000
1842935.000000
1843538.000000
1844140.000000
1844745.000000
1845351.000000
1845960.000000
1846563.000000
1847162.000000
1847766.000000
1848371.000000
1848975.000000
1849574.000000
1850176.000000
1850787.000000
1851396.000000
1852001.000000
1852602.000000
1853204.000000
1853811.000000
1854420.000000
1855028.000000
1855628.000000
1856221.000000
1856809.000000
1857390.000000
1857968.000000
1858548.000000
1859131.000000
1859714.000000
1860295.000000
1860875.000000
1861462.000000
1862054.000000
1862650.000000
1863250.000000
1863852.000000
1864457.000000
1865060.000000
1865657.000000
1866250.000000
1866844.000000
1867443.000000
1868043.000000
1868646.000000
1869248.000000
1869846.000000
1870442.000000
1871039.000000
1871646.000000
1872259.000000
1872873.000000
1873489.000000
1874102.000000
1874710.000000
1875319.000000
1875931.000000
1876546.000000
1877165.000000
1877787.000000
1878404.000000
1879013.000000
1879619.000000
1880230.000000
1880840.000000
1881454.000000
1882067.000000
1882671.000000
1883271.000000
1883871.000000
1884477.000000
1885086.000000
1885695.000000
1886296.000000
1886895.000000
1887502.000000
1888115.000000
1888729.000000
1889346.000000
1889959.000000
1890566.000000
1891177.000000
1891790.000000
1892401.000000
1893006.000000
1893608.000000
1894215.000000
1894824.000000
1895436.000000
1896044.000000
1896645.000000
1897246.000000
1897852.000000
1898463.000000
1899073.000000
1899680.000000
1900283.000000
1900886.000000
1901496.000000
1902109.000000
1902719.000000
1903330.000000
1903942.000000
1904548.000000
1905149.000000
1905746.000000
1906345.000000
1906952.000000
1907562.000000
1908175.000000
1908787.000000
1909396.000000
1910001.000000
1910608.000000
1911220.000000
1911835.000000
1912451.000000
1913060.000000
1913667.000000
1914278.000000
1914894.000000
1915514.000000
1916131.000000
1916740.000000
1917346.000000
1917958.000000
1918571.000000
1919184.000000
1919795.000000
1920399.000000
1920997.000000
1921603.000000
1922212.000000
1922822.000000
1923424.000000
1924026.000000
1924635.000000
1925251.000000
1925869.000000
1926481.000000
1927087.000000
1927694.000000
1928310.000000
1928928.000000
1929543.000000
1930155.000000
1930767.000000
1931384.000000
1932006.000000
1932626.000000
1933239.000000
1933848.000000
1934463.000000
1935080.000000
1935696.000000
1936303.000000
1936910.000000
1937520.000000
1938129.000000
1938736.000000
1939336.000000
1939938.000000
1940543.000000
1941151.000000
1941755.000000
1942354.000000
1942951.000000
1943553.000000
1944160.000000
1944765.000000
1945366.000000
