ECG (ms)
323.000000
1163.000000
1993.000000
2800.000000
3623.000000
4472.000000
5327.000000
6163.000000
6998.000000
7847.000000
8696.000000
9531.000000
10353.000000
11161.000000
11989.000000
12820.000000
13653.000000
14481.000000
15313.000000
16186.000000
17076.000000
17955.000000
18810.000000
19650.000000
20503.000000
21326.000000
22158.000000
22943.000000
23718.000000
24525.000000
25379.000000
26251.000000
27078.000000
27870.000000
28672.000000
29524.000000
30394.000000
31247.000000
32065.000000
32890.000000
33745.000000
34580.000000
35421.000000
36220.000000
36999.000000
37786.000000
38586.000000
39374.000000
40134.000000
40892.000000
41653.000000
42435.000000
43209.000000
43951.000000
44708.000000
45523.000000
46328.000000
47077.000000
47807.000000
48546.000000
49271.000000
49963.000000
50606.000000
51266.000000
51951.000000
52703.000000
53503.000000
54276.000000
55012.000000
55790.000000
56574.000000
57336.000000
58050.000000
58762.000000
59506.000000
60267.000000
61011.000000
61718.000000
62433.000000
63176.000000
63924.000000
64659.000000
65398.000000
66169.000000
66869.000000
67560.000000
68248.000000
68930.000000
69630.000000
70372.000000
71124.000000
71837.000000
72544.000000
73279.000000
74047.000000
74788.000000
75527.000000
76304.000000
77049.000000
77780.000000
78488.000000
79213.000000
79971.000000
80757.000000
81507.000000
82254.000000
83049.000000
83855.000000
84646.000000
85426.000000
86226.000000
87022.000000
87784.000000
88500.000000
89205.000000
89947.000000
90763.000000
91609.000000
92432.000000
93235.000000
94048.000000
94897.000000
95743.000000
96560.000000
97345.000000
98138.000000
98920.000000
99690.000000
100439.000000
101235.000000
102055.000000
102897.000000
103725.000000
104499.000000
105250.000000
106024.000000
106811.000000
107626.000000
108446.000000
109261.000000
110120.000000
110961.000000
111782.000000
112565.000000
113362.000000
114142.000000
114868.000000
115543.000000
116212.000000
116902.000000
117581.000000
118239.000000
118961.000000
119723.000000
120487.000000
121187.000000
121893.000000
122628.000000
123356.000000
124123.000000
124912.000000
125679.000000
126438.000000
127191.000000
127968.000000
128776.000000
129590.000000
130383.000000
131159.000000
131914.000000
132701.000000
133498.000000
134286.000000
135059.000000
135866.000000
136696.000000
137555.000000
138438.000000
139303.000000
140183.000000
141096.000000
141976.000000
142817.000000
143631.000000
144435.000000
145213.000000
145962.000000
146688.000000
147440.000000
148233.000000
149086.000000
149927.000000
150742.000000
151526.000000
152326.000000
153141.000000
153928.000000
154699.000000
155453.000000
156219.000000
157037.000000
157853.000000
158669.000000
159435.000000
160250.000000
161129.000000
161930.000000
162713.000000
163498.000000
164286.000000
165102.000000
165924.000000
166731.000000
167546.000000
168382.000000
169220.000000
170021.000000
170820.000000
171578.000000
172297.000000
172954.000000
173594.000000
174248.000000
174939.000000
175726.000000
176553.000000
177427.000000
178272.000000
179145.000000
180038.000000
180873.000000
181662.000000
182421.000000
183152.000000
183857.000000
184564.000000
185359.000000
186280.000000
187158.000000
188000.000000
188855.000000
189692.000000
190485.000000
191217.000000
191945.000000
192733.000000
193581.000000
194401.000000
195208.000000
196060.000000
196912.000000
197767.000000
198574.000000
199354.000000
200130.000000
200897.000000
201678.000000
202435.000000
203187.000000
203998.000000
204868.000000
205721.000000
206540.000000
207339.000000
208140.000000
208927.000000
209706.000000
210465.000000
211252.000000
212090.000000
212952.000000
213793.000000
214640.000000
215476.000000
216297.000000
217058.000000
217781.000000
218523.000000
219299.000000
220133.000000
220930.000000
221694.000000
222504.000000
223332.000000
224198.000000
224969.000000
225729.000000
226466.000000
227179.000000
227886.000000
228578.000000
229294.000000
230114.000000
230993.000000
231859.000000
232701.000000
233507.000000
234279.000000
235025.000000
235741.000000
236441.000000
237135.000000
237797.000000
238484.000000
239208.000000
240016.000000
240888.000000
241767.000000
242622.000000
243412.000000
244158.000000
244896.000000
245630.000000
246414.000000
247210.000000
247967.000000
248695.000000
249408.000000
250152.000000
250873.000000
251524.000000
252168.000000
252851.000000
253552.000000
254279.000000
255045.000000
255780.000000
256478.000000
257171.000000
257857.000000
258551.000000
259293.000000
260028.000000
260788.000000
261613.000000
262454.000000
263314.000000
264094.000000
264810.000000
265513.000000
266242.000000
266999.000000
267798.000000
268568.000000
269336.000000
270155.000000
270994.000000
271843.000000
272632.000000
273420.000000
274156.000000
274883.000000
275588.000000
276292.000000
276981.000000
277662.000000
278364.000000
279092.000000
279821.000000
280488.000000
281131.000000
281748.000000
282356.000000
282932.000000
283492.000000
284038.000000
284572.000000
285104.000000
285650.000000
286228.000000
286835.000000
287507.000000
288240.000000
288971.000000
289689.000000
290428.000000
291162.000000
291913.000000
292638.000000
293338.000000
294085.000000
294901.000000
295714.000000
296489.000000
297244.000000
298024.000000
298798.000000
299602.000000
300364.000000
301114.000000
301934.000000
302827.000000
303699.000000
304528.000000
305302.000000
306066.000000
306840.000000
307600.000000
308368.000000
309158.000000
309923.000000
310707.000000
311529.000000
312402.000000
313271.000000
314115.000000
314918.000000
315709.000000
316455.000000
317243.000000
318102.000000
318974.000000
319782.000000
320570.000000
321307.000000
322019.000000
322751.000000
323489.000000
324235.000000
324987.000000
325746.000000
326509.000000
327305.000000
328058.000000
328775.000000
329463.000000
330098.000000
330783.000000
331497.000000
332237.000000
332943.000000
333646.000000
334371.000000
335083.000000
335797.000000
336533.000000
337296.000000
338065.000000
338840.000000
339590.000000
340334.000000
341072.000000
341801.000000
342522.000000
343313.000000
344170.000000
345013.000000
345836.000000
346637.000000
347406.000000
348148.000000
348873.000000
349592.000000
350353.000000
351202.000000
352077.000000
352911.000000
353767.000000
354646.000000
355534.000000
356385.000000
357245.000000
358085.000000
358891.000000
359644.000000
360387.000000
361114.000000
361803.000000
362487.000000
363397.000000
364249.000000
365107.000000
365982.000000
366869.000000
367723.000000
368578.000000
369461.000000
370314.000000
371138.000000
371954.000000
372790.000000
373651.000000
374496.000000
375377.000000
376289.000000
377205.000000
378093.000000
378967.000000
379845.000000
380718.000000
381564.000000
382381.000000
383210.000000
384041.000000
384858.000000
385677.000000
386506.000000
387374.000000
388266.000000
389153.000000
390025.000000
390902.000000
391780.000000
392620.000000
393444.000000
394292.000000
395123.000000
395944.000000
396716.000000
397432.000000
398184.000000
399029.000000
399853.000000
400680.000000
401499.000000
402337.000000
403186.000000
404037.000000
404873.000000
405682.000000
406493.000000
407314.000000
408179.000000
409078.000000
409952.000000
410832.000000
411720.000000
412604.000000
413451.000000
414292.000000
415158.000000
416024.000000
416879.000000
417725.000000
418584.000000
419454.000000
420313.000000
421164.000000
422038.000000
422904.000000
423748.000000
424601.000000
425466.000000
426319.000000
427151.000000
427988.000000
428840.000000
429709.000000
430553.000000
431379.000000
432215.000000
433050.000000
433880.000000
434695.000000
435511.000000
436353.000000
437198.000000
438027.000000
438853.000000
439649.000000
440473.000000
441304.000000
442149.000000
443001.000000
443835.000000
444662.000000
445516.000000
446375.000000
447236.000000
448069.000000
448924.000000
449777.000000
450629.000000
451450.000000
452231.000000
453002.000000
453801.000000
454653.000000
455544.000000
456453.000000
457323.000000
458173.000000
459045.000000
459917.000000
460804.000000
461671.000000
462493.000000
463278.000000
464076.000000
464875.000000
465715.000000
466563.000000
467406.000000
468248.000000
469081.000000
469922.000000
470766.000000
471617.000000
472462.000000
473287.000000
474125.000000
474969.000000
475831.000000
476691.000000
477542.000000
478353.000000
479067.000000
479806.000000
480549.000000
481351.000000
482226.000000
483070.000000
483931.000000
484769.000000
485599.000000
486460.000000
487322.000000
488200.000000
489062.000000
489876.000000
490686.000000
491507.000000
492334.000000
493194.000000
494046.000000
494873.000000
495685.000000
496524.000000
497387.000000
498292.000000
499192.000000
500051.000000
500898.000000
501743.000000
502588.000000
503428.000000
504273.000000
505131.000000
505975.000000
506833.000000
507701.000000
508562.000000
509421.000000
510258.000000
511072.000000
511898.000000
512728.000000
513588.000000
514463.000000
515322.000000
516164.000000
516997.000000
517837.000000
518645.000000
519362.000000
520106.000000
520885.000000
521668.000000
522488.000000
523379.000000
524243.000000
525079.000000
525903.000000
526700.000000
527501.000000
528315.000000
529161.000000
530015.000000
530861.000000
531679.000000
532479.000000
533293.000000
534150.000000
535036.000000
535904.000000
536752.000000
537568.000000
538380.000000
539217.000000
540067.000000
540952.000000
541840.000000
542698.000000
543526.000000
544368.000000
545206.000000
546048.000000
546864.000000
547638.000000
548370.000000
549114.000000
550013.000000
550947.000000
551871.000000
552754.000000
553637.000000
554531.000000
555411.000000
556279.000000
557096.000000
557888.000000
558660.000000
559472.000000
560335.000000
561265.000000
562146.000000
562965.000000
563774.000000
564598.000000
565469.000000
566349.000000
567192.000000
567926.000000
568717.000000
569562.000000
570369.000000
571178.000000
572017.000000
572853.000000
573695.000000
574478.000000
575243.000000
576038.000000
576856.000000
577732.000000
578609.000000
579460.000000
580283.000000
581123.000000
581983.000000
582832.000000
583676.000000
584501.000000
585294.000000
586084.000000
586903.000000
587762.000000
588633.000000
589509.000000
590393.000000
591251.000000
592065.000000
592869.000000
593684.000000
594501.000000
595335.000000
596182.000000
597014.000000
597823.000000
598642.000000
599467.000000
600306.000000
601156.000000
601999.000000
602819.000000
603681.000000
604549.000000
605412.000000
606260.000000
607077.000000
607872.000000
608684.000000
609508.000000
610359.000000
611246.000000
612130.000000
613005.000000
613900.000000
614813.000000
615728.000000
616631.000000
617475.000000
618285.000000
619080.000000
619881.000000
620685.000000
621521.000000
622367.000000
623212.000000
624086.000000
624972.000000
625872.000000
626770.000000
627627.000000
628479.000000
629313.000000
630134.000000
630914.000000
631654.000000
632423.000000
633259.000000
634105.000000
634847.000000
635571.000000
636336.000000
637075.000000
637806.000000
638554.000000
639341.000000
640158.000000
641025.000000
641837.000000
642577.000000
643317.000000
644089.000000
644904.000000
645768.000000
646607.000000
647423.000000
648211.000000
649033.000000
649907.000000
650800.000000
651713.000000
652592.000000
653416.000000
654226.000000
655051.000000
655894.000000
656794.000000
657666.000000
658511.000000
659369.000000
660258.000000
661155.000000
662033.000000
662874.000000
663694.000000
664522.000000
665380.000000
666258.000000
667121.000000
667939.000000
668771.000000
669638.000000
670525.000000
671413.000000
672245.000000
673030.000000
673796.000000
674588.000000
675502.000000
676414.000000
677268.000000
678126.000000
679019.000000
679927.000000
680837.000000
681715.000000
682547.000000
683366.000000
684195.000000
685049.000000
685908.000000
686747.000000
687583.000000
688446.000000
689342.000000
690241.000000
691144.000000
692013.000000
692852.000000
693694.000000
694547.000000
695422.000000
696338.000000
697241.000000
698097.000000
698965.000000
699837.000000
700727.000000
701616.000000
702496.000000
703334.000000
704166.000000
705027.000000
705909.000000
706809.000000
707718.000000
708601.000000
709482.000000
710392.000000
711306.000000
712210.000000
713075.000000
713942.000000
714812.000000
715683.000000
716539.000000
717389.000000
718265.000000
719150.000000
720029.000000
720891.000000
721731.000000
722556.000000
723410.000000
724298.000000
725181.000000
726089.000000
726971.000000
727812.000000
728677.000000
729550.000000
730453.000000
731361.000000
732238.000000
733092.000000
733961.000000
734832.000000
735714.000000
736606.000000
737464.000000
738323.000000
739198.000000
740064.000000
740933.000000
741779.000000
742627.000000
743472.000000
744304.000000
745100.000000
745833.000000
746586.000000
747352.000000
748219.000000
749101.000000
749975.000000
750818.000000
751607.000000
752381.000000
753168.000000
753994.000000
754873.000000
755755.000000
756574.000000
757353.000000
758168.000000
759035.000000
759877.000000
760717.000000
761524.000000
762310.000000
763135.000000
764027.000000
764975.000000
765896.000000
766776.000000
767631.000000
768501.000000
769388.000000
770294.000000
771196.000000
772073.000000
772934.000000
773792.000000
774659.000000
775532.000000
776386.000000
777226.000000
778056.000000
778860.000000
779692.000000
780555.000000
781458.000000
782364.000000
783255.000000
784089.000000
784899.000000
785688.000000
786577.000000
787488.000000
788409.000000
789296.000000
790146.000000
791001.000000
791864.000000
792705.000000
793576.000000
794434.000000
795272.000000
796136.000000
797037.000000
797953.000000
798869.000000
799736.000000
800567.000000
801402.000000
802273.000000
803167.000000
804058.000000
804918.000000
805756.000000
806595.000000
807459.000000
808359.000000
809270.000000
810169.000000
811043.000000
811865.000000
812664.000000
813496.000000
814357.000000
815243.000000
816133.000000
816983.000000
817801.000000
818617.000000
819463.000000
820297.000000
821134.000000
821946.000000
822741.000000
823542.000000
824421.000000
825356.000000
826308.000000
827235.000000
828102.000000
828948.000000
829793.000000
830643.000000
831499.000000
832349.000000
833158.000000
833969.000000
834788.000000
835694.000000
836605.000000
837473.000000
838301.000000
839130.000000
839980.000000
840833.000000
841708.000000
842497.000000
842972.000000
843564.000000
844055.000000
844509.000000
845266.000000
846320.000000
847479.000000
848421.000000
849333.000000
850234.000000
851150.000000
852061.000000
852944.000000
853808.000000
854658.000000
855542.000000
856456.000000
857374.000000
858278.000000
859164.000000
860014.000000
860881.000000
861763.000000
862647.000000
863547.000000
864427.000000
865277.000000
866140.000000
867014.000000
867916.000000
868826.000000
869705.000000
870557.000000
871397.000000
872252.000000
873116.000000
873933.000000
874759.000000
875591.000000
876443.000000
877327.000000
878225.000000
879127.000000
879987.000000
880827.000000
881673.000000
882490.000000
883289.000000
884085.000000
884876.000000
885683.000000
886532.000000
887428.000000
888345.000000
889236.000000
890113.000000
890998.000000
891881.000000
892768.000000
893648.000000
894487.000000
895299.000000
896142.000000
897001.000000
897874.000000
898752.000000
899598.000000
900423.000000
901261.000000
902090.000000
902926.000000
903778.000000
904628.000000
905477.000000
906351.000000
907264.000000
908183.000000
909092.000000
909960.000000
910814.000000
911700.000000
912564.000000
913439.000000
914302.000000
915133.000000
915974.000000
916837.000000
917728.000000
918638.000000
919543.000000
920416.000000
921267.000000
922138.000000
923026.000000
923924.000000
924822.000000
925693.000000
926573.000000
927483.000000
928402.000000
929327.000000
930190.000000
930978.000000
931805.000000
932598.000000
933367.000000
934162.000000
935014.000000
935893.000000
936772.000000
937622.000000
938443.000000
939310.000000
940225.000000
941097.000000
941987.000000
942866.000000
943723.000000
944601.000000
945501.000000
946413.000000
947335.000000
948225.000000
949093.000000
949984.000000
950882.000000
951773.000000
952654.000000
953497.000000
954326.000000
955176.000000
956022.000000
956878.000000
957746.000000
958599.000000
959452.000000
960326.000000
961215.000000
962108.000000
962974.000000
963825.000000
964678.000000
965554.000000
966437.000000
967304.000000
968152.000000
968995.000000
969866.000000
970747.000000
971628.000000
972488.000000
973325.000000
974156.000000
974998.000000
975856.000000
976710.000000
977552.000000
978387.000000
979231.000000
980095.000000
980968.000000
981847.000000
982703.000000
983542.000000
984377.000000
985225.000000
986091.000000
986979.000000
987863.000000
988736.000000
989580.000000
990412.000000
991262.000000
992125.000000
993020.000000
993907.000000
994786.000000
995640.000000
996492.000000
997363.000000
998247.000000
999162.000000
1000042.000000
1000877.000000
1001741.000000
1002621.000000
1003497.000000
1004384.000000
1005255.000000
1006105.000000
1006971.000000
1007847.000000
1008731.000000
1009621.000000
1010487.000000
1011339.000000
1012223.000000
1013105.000000
1013985.000000
1014854.000000
1015708.000000
1016565.000000
1017458.000000
1018362.000000
1019273.000000
1020154.000000
1020988.000000
1021852.000000
1022709.000000
1023584.000000
1024463.000000
1025328.000000
1026197.000000
1027087.000000
1027989.000000
1028887.000000
1029758.000000
1030618.000000
1031490.000000
1032356.000000
1033236.000000
1034104.000000
1034954.000000
1035806.000000
1036686.000000
1037590.000000
1038448.000000
1039218.000000
1040003.000000
1040773.000000
1041596.000000
1042525.000000
1043432.000000
1044319.000000
1045161.000000
1045981.000000
1046821.000000
1047733.000000
1048642.000000
1049519.000000
1050358.000000
1051191.000000
1052036.000000
1052896.000000
1053774.000000
1054655.000000
1055518.000000
1056402.000000
1057291.000000
1058186.000000
1059085.000000
1059947.000000
1060777.000000
1061606.000000
1062434.000000
1063264.000000
1064107.000000
1064947.000000
1065786.000000
1066659.000000
1067557.000000
1068459.000000
1069349.000000
1070201.000000
1071032.000000
1071879.000000
1072781.000000
1073696.000000
1074562.000000
1075363.000000
1076161.000000
1076937.000000
1077706.000000
1078533.000000
1079449.000000
1080331.000000
1081195.000000
1082053.000000
1082933.000000
1083827.000000
1084721.000000
1085592.000000
1086426.000000
1087266.000000
1088106.000000
1088949.000000
1089817.000000
1090689.000000
1091551.000000
1092426.000000
1093315.000000
1094187.000000
1095040.000000
1095865.000000
1096656.000000
1097452.000000
1098344.000000
1099275.000000
1100211.000000
1101110.000000
1102008.000000
1102925.000000
1103849.000000
1104775.000000
1105692.000000
1106555.000000
1107425.000000
1108309.000000
1109181.000000
1110050.000000
1110889.000000
1111735.000000
1112591.000000
1113487.000000
1114385.000000
1115265.000000
1116136.000000
1117021.000000
1117930.000000
1118827.000000
1119702.000000
1120527.000000
1121329.000000
1122147.000000
1122968.000000
1123840.000000
1124768.000000
1125670.000000
1126567.000000
1127482.000000
1128410.000000
1129329.000000
1130231.000000
1131089.000000
1131947.000000
1132811.000000
1133667.000000
1134544.000000
1135398.000000
1136254.000000
1137142.000000
1138037.000000
1138878.000000
1139705.000000
1140559.000000
1141410.000000
1142264.000000
1143136.000000
1144026.000000
1144884.000000
1145720.000000
1146587.000000
1147470.000000
1148375.000000
1149305.000000
1150197.000000
1151087.000000
1151992.000000
1152907.000000
1153825.000000
1154750.000000
1155629.000000
1156531.000000
1157498.000000
1158463.000000
1159393.000000
1160267.000000
1161126.000000
1162004.000000
1162899.000000
1163819.000000
1164719.000000
1165599.000000
1166513.000000
1167426.000000
1168351.000000
1169245.000000
1170099.000000
1170974.000000
1171851.000000
1172737.000000
1173624.000000
1174508.000000
1175416.000000
1176354.000000
1177314.000000
1178259.000000
1179156.000000
1180038.000000
1180931.000000
1181830.000000
1182716.000000
1183612.000000
1184494.000000
1185350.000000
1186206.000000
1187092.000000
1187985.000000
1188897.000000
1189792.000000
1190664.000000
1191535.000000
1192420.000000
1193306.000000
1194159.000000
1194992.000000
1195820.000000
1196665.000000
1197563.000000
1198504.000000
1199428.000000
1200336.000000
1201275.000000
1202206.000000
1203130.000000
1204022.000000
1204858.000000
1205680.000000
1206523.000000
1207376.000000
1208272.000000
1209169.000000
1210028.000000
1210907.000000
1211791.000000
1212688.000000
1213571.000000
1214400.000000
1215228.000000
1216044.000000
1216850.000000
1217701.000000
1218587.000000
1219492.000000
1220402.000000
1221282.000000
1222128.000000
1222965.000000
1223819.000000
1224736.000000
1225662.000000
1226568.000000
1227447.000000
1228308.000000
1229173.000000
1230051.000000
1230931.000000
1231797.000000
1232646.000000
1233509.000000
1234380.000000
1235256.000000
1236137.000000
1237002.000000
1237858.000000
1238738.000000
1239649.000000
1240579.000000
1241499.000000
1242375.000000
1243204.000000
1244065.000000
1244936.000000
1245839.000000
1246751.000000
1247648.000000
1248541.000000
1249452.000000
1250353.000000
1251222.000000
1252048.000000
1252849.000000
1253673.000000
1254526.000000
1255400.000000
1256272.000000
1257117.000000
1257958.000000
1258802.000000
1259653.000000
1260492.000000
1261272.000000
1261977.000000
1262690.000000
1263439.000000
1264266.000000
1265191.000000
1266100.000000
1266944.000000
1267768.000000
1268649.000000
1269576.000000
1270505.000000
1271372.000000
1272189.000000
1273030.000000
1273883.000000
1274784.000000
1275651.000000
1276499.000000
1277362.000000
1278247.000000
1279171.000000
1280058.000000
1280924.000000
1281802.000000
1282685.000000
1283563.000000
1284431.000000
1285275.000000
1286116.000000
1286971.000000
1287820.000000
1288661.000000
1289501.000000
1290327.000000
1291166.000000
1292025.000000
1292920.000000
1293834.000000
1294732.000000
1295611.000000
1296493.000000
1297378.000000
1298264.000000
1299145.000000
1299999.000000
1300849.000000
1301727.000000
1302647.000000
1303582.000000
1304494.000000
1305384.000000
1306296.000000
1307203.000000
1308095.000000
1308975.000000
1309858.000000
1310736.000000
1311605.000000
1312442.000000
1313297.000000
1314166.000000
1315040.000000
1315877.000000
1316611.000000
1317385.000000
1318213.000000
1319017.000000
1319855.000000
1320754.000000
1321671.000000
1322569.000000
1323419.000000
1324214.000000
1324972.000000
1325786.000000
1326731.000000
1327748.000000
1328725.000000
1329628.000000
1330518.000000
1331450.000000
1332413.000000
1333323.000000
1334207.000000
1335099.000000
1336008.000000
1336914.000000
1337806.000000
1338628.000000
1339427.000000
1340226.000000
1341177.000000
1342088.000000
1342982.000000
1343898.000000
1344853.000000
1345807.000000
1346735.000000
1347626.000000
1348518.000000
1349415.000000
1350335.000000
1351266.000000
1352151.000000
1353051.000000
1353991.000000
1354928.000000
1355855.000000
1356747.000000
1357606.000000
1358475.000000
1359359.000000
1360252.000000
1361168.000000
1362053.000000
1362926.000000
1363826.000000
1364742.000000
1365676.000000
1366586.000000
1367459.000000
1368322.000000
1369184.000000
1370060.000000
1370953.000000
1371841.000000
1372713.000000
1373578.000000
1374463.000000
1375355.000000
1376256.000000
1377121.000000
1377964.000000
1378830.000000
1379709.000000
1380629.000000
1381547.000000
1382451.000000
1383329.000000
1384241.000000
1385175.000000
1386090.000000
1386989.000000
1387844.000000
1388696.000000
1389562.000000
1390464.000000
1391372.000000
1392256.000000
1393110.000000
1393992.000000
1394888.000000
1395770.000000
1396594.000000
1397380.000000
1398161.000000
1398964.000000
1399836.000000
1400766.000000
1401658.000000
1402495.000000
1403312.000000
1404174.000000
1405112.000000
1406039.000000
1406901.000000
1407733.000000
1408578.000000
1409433.000000
1410309.000000
1411199.000000
1412067.000000
1412932.000000
1413816.000000
1414703.000000
1415576.000000
1416434.000000
1417307.000000
1418207.000000
1419139.000000
1420072.000000
1420976.000000
1421849.000000
1422749.000000
1423655.000000
1424529.000000
1425359.000000
1426168.000000
1426998.000000
1427876.000000
1428796.000000
1429720.000000
1430601.000000
1431480.000000
1432390.000000
1433300.000000
1434210.000000
1435097.000000
1435957.000000
1436840.000000
1437723.000000
1438612.000000
1439473.000000
1440338.000000
1441231.000000
1442120.000000
1442996.000000
1443862.000000
1444749.000000
1445642.000000
1446539.000000
1447424.000000
1448293.000000
1449178.000000
1450090.000000
