ECG (ms)
375.000000
1388.000000
2358.000000
3324.000000
4300.000000
5315.000000
6281.000000
7243.000000
8185.000000
9192.000000
10150.000000
11112.000000
12096.000000
13117.000000
14072.000000
15026.000000
16003.000000
16989.000000
17931.000000
18878.000000
19880.000000
20855.000000
21817.000000
22837.000000
23858.000000
24824.000000
25809.000000
26799.000000
27751.000000
28706.000000
29707.000000
30718.000000
31701.000000
32683.000000
33693.000000
34684.000000
35656.000000
36661.000000
37656.000000
38617.000000
39586.000000
40584.000000
41556.000000
42507.000000
43510.000000
44513.000000
45496.000000
46477.000000
47506.000000
48484.000000
49463.000000
50468.000000
51460.000000
52370.000000
53242.000000
54120.000000
55036.000000
56026.000000
56991.000000
57939.000000
58995.000000
60024.000000
60984.000000
61983.000000
62989.000000
63986.000000
64933.000000
65920.000000
66941.000000
67906.000000
68885.000000
69921.000000
70917.000000
71911.000000
72928.000000
73945.000000
74945.000000
75887.000000
76874.000000
77902.000000
78891.000000
79882.000000
80938.000000
81942.000000
82922.000000
83930.000000
84931.000000
85909.000000
86899.000000
87947.000000
88940.000000
89926.000000
90968.000000
91979.000000
92964.000000
93970.000000
94986.000000
95955.000000
96938.000000
97965.000000
98933.000000
99903.000000
100932.000000
101918.000000
102898.000000
103859.000000
104844.000000
105806.000000
106725.000000
107676.000000
108674.000000
109630.000000
110604.000000
111640.000000
112661.000000
113623.000000
114582.000000
115565.000000
116535.000000
117478.000000
118417.000000
119437.000000
120448.000000
121375.000000
122343.000000
123386.000000
124375.000000
125355.000000
126363.000000
127363.000000
128339.000000
129333.000000
130340.000000
131309.000000
132254.000000
133244.000000
134245.000000
135219.000000
136220.000000
137263.000000
138256.000000
139249.000000
140257.000000
141276.000000
142243.000000
143227.000000
144219.000000
145194.000000
146174.000000
147224.000000
148270.000000
149253.000000
150274.000000
151336.000000
152310.000000
153284.000000
154281.000000
155286.000000
156235.000000
157221.000000
158227.000000
159211.000000
160193.000000
161240.000000
162232.000000
163200.000000
164197.000000
165194.000000
166163.000000
167131.000000
168151.000000
169101.000000
170059.000000
171056.000000
172065.000000
173041.000000
174023.000000
175027.000000
176013.000000
176968.000000
177967.000000
178964.000000
179934.000000
180916.000000
181918.000000
182891.000000
183852.000000
184848.000000
185829.000000
186771.000000
187718.000000
188645.000000
189566.000000
190501.000000
191522.000000
192537.000000
193517.000000
194580.000000
195597.000000
196587.000000
197586.000000
198558.000000
199498.000000
200417.000000
201410.000000
202377.000000
203335.000000
204349.000000
205366.000000
206325.000000
207291.000000
208292.000000
209285.000000
210237.000000
211189.000000
212154.000000
213093.000000
214010.000000
214950.000000
215950.000000
216887.000000
217851.000000
218893.000000
219900.000000
220880.000000
221850.000000
222831.000000
223793.000000
224715.000000
225669.000000
226679.000000
227624.000000
228601.000000
229645.000000
230650.000000
231642.000000
232647.000000
233653.000000
234615.000000
235576.000000
236576.000000
237565.000000
238537.000000
239554.000000
240581.000000
241564.000000
242573.000000
243584.000000
244564.000000
245548.000000
246561.000000
247556.000000
248512.000000
249503.000000
250494.000000
251456.000000
252429.000000
253394.000000
254331.000000
255246.000000
256176.000000
257065.000000
257930.000000
258813.000000
259708.000000
260668.000000
261649.000000
262600.000000
263568.000000
264560.000000
265533.000000
266464.000000
267419.000000
268385.000000
269325.000000
270284.000000
271250.000000
272219.000000
273189.000000
274229.000000
275196.000000
276145.000000
277137.000000
278116.000000
279059.000000
280016.000000
280986.000000
281972.000000
282956.000000
283999.000000
285039.000000
286025.000000
287043.000000
288100.000000
289106.000000
290128.000000
291180.000000
292188.000000
293201.000000
294212.000000
295192.000000
296182.000000
297198.000000
298204.000000
299174.000000
300171.000000
301173.000000
302125.000000
303088.000000
304020.000000
304915.000000
305781.000000
306655.000000
307546.000000
308522.000000
309511.000000
310453.000000
311435.000000
312452.000000
313447.000000
314369.000000
315318.000000
316238.000000
317125.000000
317988.000000
318831.000000
319709.000000
320695.000000
321694.000000
322628.000000
323622.000000
324631.000000
325624.000000
326550.000000
327506.000000
328472.000000
329404.000000
330328.000000
331324.000000
332337.000000
333330.000000
334340.000000
335353.000000
336347.000000
337308.000000
338272.000000
339211.000000
340116.000000
340998.000000
341894.000000
342802.000000
343748.000000
344733.000000
345745.000000
346705.000000
347694.000000
348691.000000
349659.000000
350641.000000
351667.000000
352681.000000
353669.000000
354688.000000
355699.000000
356681.000000
357696.000000
358701.000000
359691.000000
360664.000000
361694.000000
362702.000000
363646.000000
364593.000000
365544.000000
366506.000000
367432.000000
368364.000000
369297.000000
370203.000000
371098.000000
372038.000000
372985.000000
373985.000000
374987.000000
375931.000000
376903.000000
377872.000000
378809.000000
379733.000000
380718.000000
381707.000000
382649.000000
383631.000000
384648.000000
385629.000000
386600.000000
387603.000000
388564.000000
389509.000000
390502.000000
391516.000000
392472.000000
393449.000000
394468.000000
395454.000000
396382.000000
397325.000000
398291.000000
399259.000000
400208.000000
401145.000000
402037.000000
402912.000000
403814.000000
404727.000000
405711.000000
406717.000000
407687.000000
408656.000000
409665.000000
410662.000000
411622.000000
412643.000000
413686.000000
414684.000000
415668.000000
416680.000000
417685.000000
418650.000000
419667.000000
420701.000000
421698.000000
422696.000000
423762.000000
424856.000000
425871.000000
426918.000000
427985.000000
429036.000000
430054.000000
431105.000000
432174.000000
433223.000000
434231.000000
435258.000000
436280.000000
437257.000000
438214.000000
439214.000000
440205.000000
441143.000000
442079.000000
443032.000000
444009.000000
445065.000000
446067.000000
447030.000000
448013.000000
448978.000000
449912.000000
450842.000000
451824.000000
452802.000000
453777.000000
454803.000000
455825.000000
456811.000000
457800.000000
458805.000000
459787.000000
460752.000000
461782.000000
462794.000000
463783.000000
464757.000000
465707.000000
466617.000000
467522.000000
468468.000000
469445.000000
470542.000000
471591.000000
472636.000000
473639.000000
474670.000000
475697.000000
476686.000000
477636.000000
478620.000000
479647.000000
480668.000000
481678.000000
482743.000000
483814.000000
484840.000000
485845.000000
486876.000000
487900.000000
488879.000000
489835.000000
490853.000000
491902.000000
492957.000000
493970.000000
495010.000000
496043.000000
497025.000000
497982.000000
498936.000000
499885.000000
500814.000000
501750.000000
502693.000000
503595.000000
504497.000000
505428.000000
506382.000000
507390.000000
508388.000000
509361.000000
510376.000000
511388.000000
512349.000000
513306.000000
514290.000000
515231.000000
516129.000000
517058.000000
517986.000000
518867.000000
519731.000000
520582.000000
521463.000000
522405.000000
523426.000000
524351.000000
525291.000000
526269.000000
527248.000000
528170.000000
529089.000000
530054.000000
531046.000000
532021.000000
533048.000000
534088.000000
535080.000000
536061.000000
537056.000000
538041.000000
539003.000000
539980.000000
540940.000000
541852.000000
542735.000000
543642.000000
544579.000000
545584.000000
546661.000000
547654.000000
548664.000000
549704.000000
550746.000000
551744.000000
552717.000000
553704.000000
554691.000000
555701.000000
556675.000000
557684.000000
558763.000000
559798.000000
560830.000000
561829.000000
562864.000000
563916.000000
564901.000000
565849.000000
566842.000000
567855.000000
568878.000000
569862.000000
570833.000000
571905.000000
572961.000000
573990.000000
574996.000000
576067.000000
577134.000000
578156.000000
579142.000000
580162.000000
581190.000000
582205.000000
583183.000000
584169.000000
585139.000000
586061.000000
586981.000000
587955.000000
588999.000000
590138.000000
591212.000000
592260.000000
593344.000000
594440.000000
595508.000000
596507.000000
597522.000000
598519.000000
599496.000000
600474.000000
601551.000000
602700.000000
603769.000000
604834.000000
605952.000000
607065.000000
608156.000000
609199.000000
610192.000000
611203.000000
612236.000000
613333.000000
614338.000000
615379.000000
616449.000000
617513.000000
618552.000000
619617.000000
620678.000000
621684.000000
622683.000000
623690.000000
624722.000000
625715.000000
626678.000000
627607.000000
628517.000000
629396.000000
630284.000000
631341.000000
632327.000000
633347.000000
634447.000000
635514.000000
636596.000000
637618.000000
638606.000000
639629.000000
640686.000000
641717.000000
642698.000000
643706.000000
644739.000000
645752.000000
646699.000000
647647.000000
648625.000000
649620.000000
650599.000000
651563.000000
652585.000000
653639.000000
654643.000000
655650.000000
656715.000000
657789.000000
658808.000000
659843.000000
660932.000000
662007.000000
663062.000000
664145.000000
665256.000000
666358.000000
667399.000000
668421.000000
669442.000000
670474.000000
671494.000000
672615.000000
673708.000000
674814.000000
675882.000000
676983.000000
678040.000000
679062.000000
680069.000000
681110.000000
682163.000000
683180.000000
684173.000000
685215.000000
686260.000000
687248.000000
688332.000000
689398.000000
690481.000000
691567.000000
692674.000000
693782.000000
694833.000000
695831.000000
696846.000000
697860.000000
698889.000000
699905.000000
700943.000000
702048.000000
703111.000000
704144.000000
705187.000000
706315.000000
707379.000000
708422.000000
709457.000000
710530.000000
711591.000000
712618.000000
713606.000000
714635.000000
715710.000000
716782.000000
717801.000000
718852.000000
719951.000000
721000.000000
722023.000000
723049.000000
724056.000000
725007.000000
725934.000000
726876.000000
727872.000000
728987.000000
730072.000000
731119.000000
732254.000000
733380.000000
734436.000000
735498.000000
736559.000000
737602.000000
738607.000000
739615.000000
740665.000000
741704.000000
742700.000000
743677.000000
744738.000000
745778.000000
746822.000000
747881.000000
749012.000000
750068.000000
751079.000000
752120.000000
753157.000000
754185.000000
755187.000000
756251.000000
757296.000000
758385.000000
759390.000000
760445.000000
761562.000000
762627.000000
763662.000000
764700.000000
765747.000000
766781.000000
767798.000000
768783.000000
769803.000000
770830.000000
771864.000000
772867.000000
773903.000000
774966.000000
776023.000000
777032.000000
778065.000000
779142.000000
780210.000000
781226.000000
782222.000000
783306.000000
784389.000000
785422.000000
786430.000000
787513.000000
788539.000000
789595.000000
790584.000000
791610.000000
792675.000000
793723.000000
794708.000000
795731.000000
796792.000000
797878.000000
798913.000000
799935.000000
801040.000000
802093.000000
803137.000000
804126.000000
805143.000000
806179.000000
807191.000000
808157.000000
809133.000000
810096.000000
811042.000000
811986.000000
813062.000000
814162.000000
815219.000000
816273.000000
817412.000000
818503.000000
819532.000000
820586.000000
821675.000000
822735.000000
823731.000000
824738.000000
825834.000000
826911.000000
827929.000000
828950.000000
830029.000000
831102.000000
832128.000000
833123.000000
834217.000000
835291.000000
836330.000000
837320.000000
838296.000000
839403.000000
840537.000000
841602.000000
842779.000000
843973.000000
845117.000000
846204.000000
847217.000000
848253.000000
849276.000000
850335.000000
851428.000000
852609.000000
853765.000000
854902.000000
856027.000000
857115.000000
858183.000000
859207.000000
860184.000000
861164.000000
862174.000000
863168.000000
864129.000000
865122.000000
866117.000000
867048.000000
867945.000000
868845.000000
869780.000000
870731.000000
871654.000000
872559.000000
873490.000000
874451.000000
875441.000000
876403.000000
877420.000000
878476.000000
879472.000000
880456.000000
881487.000000
882517.000000
883521.000000
884553.000000
885589.000000
886601.000000
887613.000000
888663.000000
889701.000000
890705.000000
891737.000000
892783.000000
893810.000000
894811.000000
895848.000000
896900.000000
897939.000000
899012.000000
900039.000000
