ECG (ms)
502.000000
1433.000000
2554.000000
3838.000000
5001.000000
6080.000000
6990.000000
7882.000000
9212.000000
10486.000000
11714.000000
12812.000000
13828.000000
14720.000000
16065.000000
17290.000000
18353.000000
19381.000000
20514.000000
21831.000000
23099.000000
24290.000000
25393.000000
26643.000000
27906.000000
29115.000000
30238.000000
31327.000000
32514.000000
33795.000000
35052.000000
36163.000000
37187.000000
38155.000000
39447.000000
40658.000000
41863.000000
42971.000000
43959.000000
45022.000000
46282.000000
47541.000000
48560.000000
49555.000000
50900.000000
52195.000000
53432.000000
54561.000000
55583.000000
56501.000000
57405.000000
58865.000000
60182.000000
61382.000000
62520.000000
63639.000000
64877.000000
65917.000000
66847.000000
67815.000000
68846.000000
70070.000000
71031.000000
71976.000000
73355.000000
74618.000000
75678.000000
76738.000000
77933.000000
79088.000000
80206.000000
81226.000000
82096.000000
82923.000000
84319.000000
85418.000000
86499.000000
87821.000000
89033.000000
90059.000000
91101.000000
92374.000000
93421.000000
94449.000000
95795.000000
96997.000000
98107.000000
99380.000000
100611.000000
101763.000000
102905.000000
104165.000000
105378.000000
106453.000000
107634.000000
108848.000000
110001.000000
111021.000000
111969.000000
113198.000000
114408.000000
115424.000000
116282.000000
117142.000000
118530.000000
119819.000000
121053.000000
122288.000000
123452.000000
124549.000000
125577.000000
126867.000000
128126.000000
129366.000000
130629.000000
131893.000000
133094.000000
134232.000000
135397.000000
136663.000000
137843.000000
138906.000000
139974.000000
141223.000000
142399.000000
143478.000000
144472.000000
145584.000000
146751.000000
147813.000000
148922.000000
150128.000000
151263.000000
152334.000000
153331.000000
154264.000000
155618.000000
156954.000000
158153.000000
159317.000000
160523.000000
161751.000000
162950.000000
164107.000000
165351.000000
166418.000000
167598.000000
168849.000000
170081.000000
171231.000000
172409.000000
173500.000000
174519.000000
175676.000000
176850.000000
178021.000000
179122.000000
180235.000000
181333.000000
182395.000000
183374.000000
184332.000000
185403.000000
186620.000000
187716.000000
188729.000000
189664.000000
190696.000000
191846.000000
192916.000000
193924.000000
194978.000000
196285.000000
197427.000000
198535.000000
199794.000000
200965.000000
202046.000000
203277.000000
204461.000000
205526.000000
206692.000000
207874.000000
208878.000000
210116.000000
211260.000000
212326.000000
213287.000000
214203.000000
215145.000000
216580.000000
217901.000000
219138.000000
220220.000000
221436.000000
222632.000000
223695.000000
224715.000000
225909.000000
227041.000000
228057.000000
229134.000000
230382.000000
231485.000000
232500.000000
233652.000000
234847.000000
235916.000000
237002.000000
238164.000000
239323.000000
240362.000000
241456.000000
242500.000000
243491.000000
244581.000000
245696.000000
246684.000000
247743.000000
248897.000000
249932.000000
251002.000000
252168.000000
253192.000000
254269.000000
255458.000000
256591.000000
257673.000000
258636.000000
259587.000000
260710.000000
262003.000000
263252.000000
264249.000000
265376.000000
266649.000000
267767.000000
268740.000000
269790.000000
271038.000000
272219.000000
273254.000000
274283.000000
275467.000000
276641.000000
277727.000000
278690.000000
279630.000000
280571.000000
281725.000000
282889.000000
284058.000000
285179.000000
286247.000000
287249.000000
288216.000000
289242.000000
290421.000000
291618.000000
292710.000000
293724.000000
294859.000000
296005.000000
297030.000000
298004.000000
299071.000000
300301.000000
301438.000000
302506.000000
303563.000000
304708.000000
305998.000000
307179.000000
308250.000000
309344.000000
310543.000000
311728.000000
312814.000000
313888.000000
314830.000000
315716.000000
316728.000000
318029.000000
319044.000000
320211.000000
321482.000000
322615.000000
323695.000000
324753.000000
325937.000000
327049.000000
328178.000000
329240.000000
330421.000000
331591.000000
332642.000000
333699.000000
334880.000000
335994.000000
337076.000000
338125.000000
339257.000000
340314.000000
341355.000000
342292.000000
343243.000000
344260.000000
345218.000000
346157.000000
347208.000000
348432.000000
349492.000000
350471.000000
351396.000000
352312.000000
353618.000000
354875.000000
355991.000000
357073.000000
358234.000000
359367.000000
360580.000000
361617.000000
362664.000000
363856.000000
364947.000000
366036.000000
367262.000000
368521.000000
369594.000000
370829.000000
372093.000000
373191.000000
374432.000000
375679.000000
376876.000000
377949.000000
379079.000000
380304.000000
381370.000000
382582.000000
383722.000000
384833.000000
386044.000000
387131.000000
388212.000000
389401.000000
390522.000000
391672.000000
392844.000000
393952.000000
395002.000000
396224.000000
397398.000000
398424.000000
399427.000000
400552.000000
401647.000000
402695.000000
403831.000000
404985.000000
406030.000000
407088.000000
408261.000000
409354.000000
410344.000000
411462.000000
412603.000000
413660.000000
414809.000000
416062.000000
417177.000000
418254.000000
419306.000000
420479.000000
421674.000000
422861.000000
423978.000000
425039.000000
426110.000000
427343.000000
428455.000000
429640.000000
430694.000000
431760.000000
432815.000000
434028.000000
435245.000000
436492.000000
437720.000000
438933.000000
440075.000000
441150.000000
442218.000000
443323.000000
444548.000000
445765.000000
446981.000000
448142.000000
449240.000000
450204.000000
451092.000000
452184.000000
453464.000000
454738.000000
455979.000000
457180.000000
458348.000000
459553.000000
460688.000000
461762.000000
462715.000000
463639.000000
464979.000000
466258.000000
467392.000000
468555.000000
469576.000000
470528.000000
471433.000000
472856.000000
474178.000000
475396.000000
476554.000000
477641.000000
478678.000000
479658.000000
480957.000000
482182.000000
483395.000000
484617.000000
485755.000000
486868.000000
487919.000000
488868.000000
490158.000000
491352.000000
492521.000000
493591.000000
494727.000000
495741.000000
496704.000000
497671.000000
499063.000000
500332.000000
501518.000000
502612.000000
503640.000000
504685.000000
505895.000000
507076.000000
508277.000000
509229.000000
510147.000000
510982.000000
512303.000000
513566.000000
514633.000000
515668.000000
516720.000000
517983.000000
519184.000000
520306.000000
521420.000000
522455.000000
523536.000000
524736.000000
525958.000000
527156.000000
528360.000000
529573.000000
530698.000000
531753.000000
532748.000000
533818.000000
535088.000000
536195.000000
537252.000000
538235.000000
539125.000000
540452.000000
541731.000000
542933.000000
544095.000000
545161.000000
546221.000000
547318.000000
548513.000000
549707.000000
550924.000000
552058.000000
553310.000000
554450.000000
555529.000000
556484.000000
557389.000000
558588.000000
559937.000000
561058.000000
562140.000000
563390.000000
564596.000000
565609.000000
566616.000000
567558.000000
568948.000000
570310.000000
571645.000000
572803.000000
573954.000000
575236.000000
576541.000000
577866.000000
579169.000000
580395.000000
581521.000000
582663.000000
583907.000000
585260.000000
586562.000000
587724.000000
588932.000000
590217.000000
591482.000000
592747.000000
593932.000000
595071.000000
596133.000000
597255.000000
598568.000000
599810.000000
600982.000000
602103.000000
603319.000000
604567.000000
605698.000000
606789.000000
607901.000000
609160.000000
610406.000000
611621.000000
612709.000000
613774.000000
614854.000000
616071.000000
617182.000000
618148.000000
619243.000000
620521.000000
621783.000000
622971.000000
624113.000000
625099.000000
626071.000000
627094.000000
628435.000000
629676.000000
630889.000000
632064.000000
633219.000000
634244.000000
635249.000000
636256.000000
637520.000000
638825.000000
640133.000000
641383.000000
642639.000000
643734.000000
644802.000000
645837.000000
647141.000000
648399.000000
649599.000000
650635.000000
651696.000000
652782.000000
654170.000000
655407.000000
656553.000000
657690.000000
658799.000000
659996.000000
661200.000000
662397.000000
663503.000000
664562.000000
665593.000000
666744.000000
667893.000000
668917.000000
669917.000000
671094.000000
672285.000000
673315.000000
674568.000000
675830.000000
676918.000000
678098.000000
679330.000000
680557.000000
681608.000000
682662.000000
683883.000000
685125.000000
686171.000000
687274.000000
688578.000000
689797.000000
690847.000000
692148.000000
693410.000000
694651.000000
695748.000000
696996.000000
698253.000000
699372.000000
700430.000000
701680.000000
702961.000000
704081.000000
705250.000000
706472.000000
707706.000000
708829.000000
710114.000000
711356.000000
712460.000000
713666.000000
714838.000000
715898.000000
716988.000000
718223.000000
719392.000000
720509.000000
721737.000000
722948.000000
724015.000000
725273.000000
726452.000000
727540.000000
728772.000000
730002.000000
731128.000000
732268.000000
733494.000000
734638.000000
735695.000000
736864.000000
738081.000000
739129.000000
740320.000000
741489.000000
742698.000000
743876.000000
745033.000000
746050.000000
747100.000000
748409.000000
749681.000000
750918.000000
752110.000000
753330.000000
754382.000000
755446.000000
756688.000000
758005.000000
759245.000000
760345.000000
761390.000000
762604.000000
763830.000000
764998.000000
766095.000000
767195.000000
768459.000000
769766.000000
771081.000000
772415.000000
773708.000000
774955.000000
776223.000000
777474.000000
778625.000000
779679.000000
780583.000000
781975.000000
783225.000000
784242.000000
785419.000000
786699.000000
787945.000000
788953.000000
790100.000000
791179.000000
792264.000000
793394.000000
794465.000000
795500.000000
796571.000000
797824.000000
798999.000000
800158.000000
801306.000000
802477.000000
803629.000000
804825.000000
805856.000000
806806.000000
807748.000000
809044.000000
810255.000000
811398.000000
812405.000000
813363.000000
814371.000000
815707.000000
816975.000000
818180.000000
819190.000000
820254.000000
821528.000000
822766.000000
823912.000000
824968.000000
826018.000000
827236.000000
828441.000000
829553.000000
830620.000000
831794.000000
833029.000000
834087.000000
835175.000000
836455.000000
837601.000000
838787.000000
840038.000000
841197.000000
842458.000000
843749.000000
844985.000000
846090.000000
847357.000000
848616.000000
849820.000000
851126.000000
852375.000000
853638.000000
854869.000000
855985.000000
857267.000000
858436.000000
859662.000000
860933.000000
862097.000000
863279.000000
864518.000000
865658.000000
866868.000000
868078.000000
869206.000000
870429.000000
871639.000000
872821.000000
873951.000000
874959.000000
875932.000000
877252.000000
878532.000000
879768.000000
880833.000000
882057.000000
883273.000000
884492.000000
885697.000000
886813.000000
887828.000000
888877.000000
890185.000000
891395.000000
892614.000000
893806.000000
894876.000000
896045.000000
897328.000000
898606.000000
899740.000000
900971.000000
902198.000000
903290.000000
904466.000000
905710.000000
906927.000000
908014.000000
909161.000000
910486.000000
911747.000000
912977.000000
914370.000000
915674.000000
916889.000000
918187.000000
919344.000000
920574.000000
921848.000000
923093.000000
924266.000000
925402.000000
926640.000000
927874.000000
929050.000000
930116.000000
931155.000000
932499.000000
933844.000000
935049.000000
936258.000000
937539.000000
938720.000000
939781.000000
941057.000000
942239.000000
943293.000000
944520.000000
945723.000000
946885.000000
947947.000000
949060.000000
950273.000000
951418.000000
952445.000000
953631.000000
954877.000000
956023.000000
957059.000000
958175.000000
959402.000000
960567.000000
961663.000000
962700.000000
963819.000000
965170.000000
966414.000000
967530.000000
968499.000000
969501.000000
970935.000000
972246.000000
973342.000000
974430.000000
975810.000000
977155.000000
978470.000000
979726.000000
980974.000000
982140.000000
983317.000000
984620.000000
985915.000000
987044.000000
988261.000000
989540.000000
990762.000000
991844.000000
992985.000000
994080.000000
995341.000000
996550.000000
997754.000000
998876.000000
999983.000000
1001163.000000
1002347.000000
1003419.000000
1004537.000000
1005759.000000
1006955.000000
1007996.000000
1009220.000000
1010440.000000
1011542.000000
1012691.000000
1013958.000000
1015104.000000
1016237.000000
1017410.000000
1018505.000000
1019553.000000
1020757.000000
1021969.000000
1023107.000000
1024166.000000
1025350.000000
1026587.000000
1027852.000000
1029050.000000
1030162.000000
1031323.000000
1032511.000000
1033636.000000
1034958.000000
1036215.000000
1037332.000000
1038590.000000
1039874.000000
1041170.000000
1042379.000000
1043649.000000
1044935.000000
1046181.000000
1047212.000000
1048555.000000
1049862.000000
1051101.000000
1052200.000000
1053468.000000
1054735.000000
1056004.000000
1057168.000000
1058358.000000
1059579.000000
1060798.000000
1062041.000000
1063197.000000
1064268.000000
1065420.000000
1066674.000000
1067937.000000
1069043.000000
1070215.000000
1071442.000000
1072679.000000
1073883.000000
1075086.000000
1076141.000000
1077204.000000
1078469.000000
1079695.000000
1080877.000000
1081861.000000
1082821.000000
1084147.000000
1085336.000000
1086422.000000
1087721.000000
1088952.000000
1090023.000000
1091226.000000
1092496.000000
1093778.000000
1094940.000000
1096159.000000
1097453.000000
1098741.000000
1099984.000000
1101118.000000
1102442.000000
1103719.000000
1104980.000000
1106210.000000
1107320.000000
1108393.000000
1109662.000000
1110946.000000
1112131.000000
1113232.000000
1114547.000000
1115796.000000
1117058.000000
1118301.000000
1119413.000000
1120578.000000
1121845.000000
1123097.000000
1124184.000000
1125272.000000
1126376.000000
1127786.000000
1129089.000000
1130444.000000
1131547.000000
1132736.000000
1134042.000000
1135367.000000
1136587.000000
1137806.000000
1138888.000000
1139837.000000
1141076.000000
1142392.000000
1143437.000000
1144613.000000
1145907.000000
1147015.000000
1148052.000000
1149373.000000
1150645.000000
1151894.000000
1152991.000000
1154163.000000
1155422.000000
1156613.000000
1157661.000000
1158890.000000
1160089.000000
1161279.000000
1162355.000000
1163507.000000
1164812.000000
1166035.000000
1167196.000000
1168553.000000
1169805.000000
1170910.000000
1171963.000000
1173305.000000
1174557.000000
1175660.000000
1176959.000000
1178245.000000
1179506.000000
1180713.000000
1181832.000000
1183131.000000
1184377.000000
1185485.000000
1186751.000000
1187970.000000
1189048.000000
1190184.000000
1191482.000000
1192740.000000
1193814.000000
1194780.000000
1195918.000000
1197309.000000
