ECG (ms)
20.000000
488.000000
1402.000000
2317.000000
3234.000000
4148.000000
5050.000000
5952.000000
6842.000000
7724.000000
8607.000000
9484.000000
10367.000000
11250.000000
12132.000000
13008.000000
13874.000000
14735.000000
15595.000000
16454.000000
17314.000000
18171.000000
19011.000000
19867.000000
20729.000000
21604.000000
22499.000000
23380.000000
24258.000000
25129.000000
25997.000000
26878.000000
27761.000000
28651.000000
29539.000000
30416.000000
31302.000000
32190.000000
33089.000000
34006.000000
34906.000000
35807.000000
36706.000000
37592.000000
38486.000000
39378.000000
40271.000000
41170.000000
42084.000000
42996.000000
43900.000000
44806.000000
45708.000000
46607.000000
47523.000000
48441.000000
49362.000000
50286.000000
51199.000000
52121.000000
53051.000000
53974.000000
54889.000000
55812.000000
56737.000000
57653.000000
58579.000000
59501.000000
60425.000000
61352.000000
62280.000000
63204.000000
64144.000000
65081.000000
66002.000000
66904.000000
67815.000000
68719.000000
69615.000000
70517.000000
71408.000000
72298.000000
73204.000000
74114.000000
75013.000000
75917.000000
76808.000000
77700.000000
78594.000000
79503.000000
80425.000000
81341.000000
82259.000000
83176.000000
84074.000000
84976.000000
85879.000000
86777.000000
87659.000000
88558.000000
89466.000000
90366.000000
91276.000000
92185.000000
93093.000000
94007.000000
94902.000000
95809.000000
96715.000000
97630.000000
98535.000000
99444.000000
100347.000000
101256.000000
102166.000000
103056.000000
103972.000000
104877.000000
105796.000000
106708.000000
107609.000000
108519.000000
109413.000000
110310.000000
111216.000000
112126.000000
113015.000000
113926.000000
114827.000000
115733.000000
116645.000000
117561.000000
118468.000000
119402.000000
120322.000000
121218.000000
122112.000000
123009.000000
123903.000000
124805.000000
125707.000000
126600.000000
127497.000000
128398.000000
129296.000000
130209.000000
131110.000000
132026.000000
132931.000000
133840.000000
134753.000000
135659.000000
136543.000000
137448.000000
138363.000000
139275.000000
140198.000000
141112.000000
142016.000000
142889.000000
143787.000000
144683.000000
145561.000000
146465.000000
147362.000000
148270.000000
149162.000000
150060.000000
150968.000000
151870.000000
152768.000000
153678.000000
154596.000000
155518.000000
156450.000000
157371.000000
158267.000000
159171.000000
160072.000000
160977.000000
161884.000000
162796.000000
163696.000000
164606.000000
165503.000000
166398.000000
167302.000000
168207.000000
169105.000000
170002.000000
170895.000000
171786.000000
172695.000000
173602.000000
174509.000000
175409.000000
176317.000000
177215.000000
178107.000000
178997.000000
179876.000000
180762.000000
181633.000000
182514.000000
183382.000000
184234.000000
185166.000000
186135.000000
187070.000000
188011.000000
188945.000000
189879.000000
190806.000000
191727.000000
192628.000000
193537.000000
194431.000000
195310.000000
196175.000000
197034.000000
197886.000000
198734.000000
199584.000000
200442.000000
201293.000000
202151.000000
202999.000000
203849.000000
204695.000000
205545.000000
206389.000000
207231.000000
208082.000000
208917.000000
209751.000000
210586.000000
211424.000000
212260.000000
213089.000000
213922.000000
214759.000000
215595.000000
216431.000000
217266.000000
218093.000000
218931.000000
219785.000000
220639.000000
221502.000000
222388.000000
223285.000000
224187.000000
225092.000000
226005.000000
226925.000000
227848.000000
228771.000000
229700.000000
230626.000000
231540.000000
232460.000000
233368.000000
234285.000000
235202.000000
236113.000000
237024.000000
237924.000000
238823.000000
239722.000000
240627.000000
241536.000000
242441.000000
243345.000000
244255.000000
245171.000000
246073.000000
246961.000000
247849.000000
248736.000000
249633.000000
250524.000000
251418.000000
252315.000000
253209.000000
254103.000000
255001.000000
255901.000000
256800.000000
257687.000000
258582.000000
259472.000000
260357.000000
261253.000000
262143.000000
263037.000000
263934.000000
264832.000000
265727.000000
266618.000000
267504.000000
268389.000000
269259.000000
270135.000000
271006.000000
271872.000000
272735.000000
273596.000000
274464.000000
275327.000000
276193.000000
277071.000000
277943.000000
278807.000000
279669.000000
280545.000000
281417.000000
282299.000000
283167.000000
284049.000000
284935.000000
285817.000000
286686.000000
287566.000000
288441.000000
289324.000000
290200.000000
291077.000000
291950.000000
292817.000000
293693.000000
294556.000000
295427.000000
296302.000000
297172.000000
298051.000000
298934.000000
299827.000000
300707.000000
301589.000000
302464.000000
303346.000000
304242.000000
305132.000000
306030.000000
306949.000000
307860.000000
308787.000000
309716.000000
310640.000000
311574.000000
312512.000000
313441.000000
314375.000000
315312.000000
316239.000000
317164.000000
318074.000000
319003.000000
319911.000000
320815.000000
321720.000000
322613.000000
323509.000000
324398.000000
325281.000000
326147.000000
327015.000000
327872.000000
328720.000000
329566.000000
330420.000000
331272.000000
332128.000000
332989.000000
333853.000000
334725.000000
335603.000000
336487.000000
337363.000000
338231.000000
339112.000000
339989.000000
340856.000000
341724.000000
342583.000000
343448.000000
344320.000000
345169.000000
346022.000000
346895.000000
347765.000000
348648.000000
349541.000000
350441.000000
351334.000000
352218.000000
353111.000000
353990.000000
354878.000000
355782.000000
356695.000000
357622.000000
358529.000000
359446.000000
360364.000000
361280.000000
362199.000000
363124.000000
364042.000000
364963.000000
365879.000000
366796.000000
367705.000000
368618.000000
369516.000000
370413.000000
371291.000000
372160.000000
373029.000000
373896.000000
374776.000000
375654.000000
376524.000000
377392.000000
378267.000000
379133.000000
380006.000000
380885.000000
381754.000000
382626.000000
383496.000000
384372.000000
385245.000000
386115.000000
386990.000000
387872.000000
388744.000000
389618.000000
390484.000000
391349.000000
392206.000000
393068.000000
393926.000000
394790.000000
395643.000000
396497.000000
397359.000000
398214.000000
399068.000000
399915.000000
400775.000000
401634.000000
402488.000000
403343.000000
404200.000000
405059.000000
405909.000000
406767.000000
407627.000000
408485.000000
409327.000000
410224.000000
411133.000000
412058.000000
412980.000000
413915.000000
414863.000000
415805.000000
416756.000000
417690.000000
418599.000000
419501.000000
420419.000000
421349.000000
422275.000000
423193.000000
424105.000000
425011.000000
425918.000000
426816.000000
427711.000000
428607.000000
429499.000000
430383.000000
431264.000000
432142.000000
433021.000000
433903.000000
434776.000000
435655.000000
436531.000000
437399.000000
438261.000000
439122.000000
439981.000000
440838.000000
441699.000000
442559.000000
443415.000000
444265.000000
445101.000000
445946.000000
446789.000000
447628.000000
448469.000000
449318.000000
450171.000000
451028.000000
451893.000000
452766.000000
453656.000000
454540.000000
455423.000000
456309.000000
457203.000000
458102.000000
458994.000000
459878.000000
460772.000000
461655.000000
462537.000000
463419.000000
464301.000000
465179.000000
466051.000000
466936.000000
467808.000000
468665.000000
469528.000000
470391.000000
471254.000000
472113.000000
472968.000000
473834.000000
474694.000000
475542.000000
476395.000000
477238.000000
478076.000000
478908.000000
479731.000000
480570.000000
481412.000000
482269.000000
483127.000000
483989.000000
484859.000000
485730.000000
486607.000000
487473.000000
488342.000000
489205.000000
490077.000000
490939.000000
491805.000000
492677.000000
493544.000000
494417.000000
495296.000000
496180.000000
497075.000000
497980.000000
498887.000000
499795.000000
500715.000000
501615.000000
502530.000000
503447.000000
504359.000000
505268.000000
506167.000000
507063.000000
507968.000000
508868.000000
509763.000000
510653.000000
511544.000000
512427.000000
513311.000000
514197.000000
515076.000000
515954.000000
516839.000000
517739.000000
518644.000000
519546.000000
520445.000000
521371.000000
522293.000000
523210.000000
524129.000000
525033.000000
525948.000000
526847.000000
527732.000000
528623.000000
529520.000000
530419.000000
531306.000000
532192.000000
533084.000000
533974.000000
534852.000000
535734.000000
536615.000000
537501.000000
538391.000000
539284.000000
540184.000000
541074.000000
541984.000000
542873.000000
543780.000000
544683.000000
545594.000000
546499.000000
547408.000000
548320.000000
549233.000000
550138.000000
551051.000000
551975.000000
552896.000000
553797.000000
554712.000000
555624.000000
556538.000000
557459.000000
558389.000000
559319.000000
560248.000000
561175.000000
562099.000000
563031.000000
563961.000000
564891.000000
565804.000000
566718.000000
567626.000000
568529.000000
569433.000000
570337.000000
571241.000000
572133.000000
573031.000000
573925.000000
574809.000000
575710.000000
576603.000000
577492.000000
578388.000000
579260.000000
580138.000000
581021.000000
581890.000000
582769.000000
583641.000000
584516.000000
585377.000000
586235.000000
587099.000000
587958.000000
588817.000000
589675.000000
590536.000000
591392.000000
592242.000000
593091.000000
593952.000000
594818.000000
595674.000000
596529.000000
597384.000000
598234.000000
599084.000000
599941.000000
600801.000000
601661.000000
602520.000000
603372.000000
604231.000000
605097.000000
605966.000000
606832.000000
607678.000000
608524.000000
609371.000000
610217.000000
611057.000000
611890.000000
612718.000000
613544.000000
614382.000000
615268.000000
616169.000000
617051.000000
617934.000000
618802.000000
619656.000000
620541.000000
621437.000000
622346.000000
623257.000000
624172.000000
625098.000000
626053.000000
627018.000000
627981.000000
628934.000000
629881.000000
630819.000000
631758.000000
632680.000000
633612.000000
634529.000000
635456.000000
636369.000000
637280.000000
638189.000000
639086.000000
639976.000000
640869.000000
641761.000000
642635.000000
643517.000000
644400.000000
645283.000000
646163.000000
647034.000000
647909.000000
648781.000000
649652.000000
650526.000000
651416.000000
652298.000000
653176.000000
654057.000000
654952.000000
655851.000000
656746.000000
657626.000000
658512.000000
659398.000000
660287.000000
661164.000000
662041.000000
662909.000000
663789.000000
664664.000000
665534.000000
666394.000000
667241.000000
668096.000000
668956.000000
669820.000000
670681.000000
671532.000000
672395.000000
673252.000000
674117.000000
674985.000000
675850.000000
676727.000000
677604.000000
678487.000000
679381.000000
680295.000000
681190.000000
682078.000000
682968.000000
683856.000000
684735.000000
685610.000000
686480.000000
687361.000000
688251.000000
689129.000000
690007.000000
690881.000000
691754.000000
692623.000000
693503.000000
694402.000000
695298.000000
696191.000000
697097.000000
697997.000000
698903.000000
699799.000000
700706.000000
701601.000000
702498.000000
703388.000000
704276.000000
705168.000000
706052.000000
706925.000000
707803.000000
708698.000000
709584.000000
710461.000000
711337.000000
712220.000000
713101.000000
713978.000000
714873.000000
715759.000000
716634.000000
717517.000000
718394.000000
719258.000000
720129.000000
720987.000000
721852.000000
722731.000000
723608.000000
724485.000000
725363.000000
726252.000000
727155.000000
728049.000000
728947.000000
729852.000000
730745.000000
731629.000000
732523.000000
733420.000000
734311.000000
735196.000000
736090.000000
736964.000000
737842.000000
738717.000000
739589.000000
740461.000000
741324.000000
742183.000000
743045.000000
743917.000000
744798.000000
745681.000000
746569.000000
747439.000000
748294.000000
749139.000000
749997.000000
750872.000000
751766.000000
752665.000000
753574.000000
754485.000000
755416.000000
756350.000000
757288.000000
758219.000000
759136.000000
760082.000000
761025.000000
761959.000000
762886.000000
763798.000000
764716.000000
765619.000000
766509.000000
767396.000000
768288.000000
769184.000000
770081.000000
770981.000000
771885.000000
772785.000000
773681.000000
774573.000000
775472.000000
776373.000000
777270.000000
778184.000000
779092.000000
779981.000000
780881.000000
781790.000000
782683.000000
783587.000000
784478.000000
785370.000000
786244.000000
787119.000000
787994.000000
788877.000000
789752.000000
790620.000000
791495.000000
792377.000000
793258.000000
794141.000000
795024.000000
795920.000000
796805.000000
797687.000000
798557.000000
799433.000000
800305.000000
801167.000000
802028.000000
802888.000000
803767.000000
804649.000000
805526.000000
806409.000000
807293.000000
808163.000000
809041.000000
809915.000000
810779.000000
811639.000000
812499.000000
813375.000000
814235.000000
815097.000000
815956.000000
816815.000000
817690.000000
818550.000000
819404.000000
820255.000000
821117.000000
821977.000000
822839.000000
823705.000000
824584.000000
825463.000000
826351.000000
827237.000000
828122.000000
829000.000000
829877.000000
830757.000000
831627.000000
832495.000000
833372.000000
834247.000000
835138.000000
836030.000000
836902.000000
837776.000000
838652.000000
839526.000000
840397.000000
841260.000000
842124.000000
842985.000000
843855.000000
844733.000000
845616.000000
846505.000000
847374.000000
848266.000000
849149.000000
850046.000000
850942.000000
851833.000000
852721.000000
853602.000000
854475.000000
855347.000000
856214.000000
857076.000000
857941.000000
858802.000000
859666.000000
860535.000000
861412.000000
862285.000000
863160.000000
864027.000000
864900.000000
865773.000000
866658.000000
867538.000000
868416.000000
869298.000000
870189.000000
871069.000000
871946.000000
872823.000000
873686.000000
874562.000000
875424.000000
876283.000000
877143.000000
877997.000000
878846.000000
879698.000000
880553.000000
881392.000000
882235.000000
883072.000000
883917.000000
884769.000000
885616.000000
886458.000000
887306.000000
888147.000000
888987.000000
889825.000000
890664.000000
891516.000000
892371.000000
893219.000000
894089.000000
894955.000000
895825.000000
896374.000000
897503.000000
898450.000000
899383.000000
900495.000000
