ECG (ms)
442.000000
1579.000000
2612.000000
3593.000000
4502.000000
5388.000000
6340.000000
7512.000000
8728.000000
9954.000000
11144.000000
12311.000000
13322.000000
14189.000000
15040.000000
15862.000000
16641.000000
17470.000000
18533.000000
19609.000000
20627.000000
21642.000000
22540.000000
23465.000000
24419.000000
25366.000000
26335.000000
27322.000000
28283.000000
29219.000000
30153.000000
31090.000000
32037.000000
32988.000000
33946.000000
34916.000000
35905.000000
36925.000000
37926.000000
38893.000000
39833.000000
40738.000000
41762.000000
42823.000000
43858.000000
44840.000000
45847.000000
46886.000000
47928.000000
48903.000000
49814.000000
50700.000000
51657.000000
52721.000000
53788.000000
54867.000000
55979.000000
56971.000000
57967.000000
58968.000000
60039.000000
61082.000000
62145.000000
63196.000000
64183.000000
65164.000000
66171.000000
67250.000000
68303.000000
69369.000000
70448.000000
71523.000000
72603.000000
73682.000000
74734.000000
75815.000000
76923.000000
78101.000000
79257.000000
80347.000000
81410.000000
82470.000000
83534.000000
84648.000000
85773.000000
86805.000000
87837.000000
88909.000000
90011.000000
91162.000000
92242.000000
93349.000000
94445.000000
95532.000000
96577.000000
97622.000000
98865.000000
100095.000000
101328.000000
102497.000000
103523.000000
104522.000000
105594.000000
106698.000000
107887.000000
109065.000000
110149.000000
111209.000000
112289.000000
113371.000000
114467.000000
115587.000000
116725.000000
117899.000000
119032.000000
120147.000000
121241.000000
122285.000000
123342.000000
124444.000000
125639.000000
126748.000000
127802.000000
128931.000000
130106.000000
131193.000000
132270.000000
133348.000000
134444.000000
135582.000000
136840.000000
138040.000000
139135.000000
140277.000000
141462.000000
142629.000000
143913.000000
145130.000000
146284.000000
147492.000000
148679.000000
149726.000000
150849.000000
151972.000000
153052.000000
154063.000000
155216.000000
156458.000000
157578.000000
158705.000000
159905.000000
160988.000000
162109.000000
163216.000000
164266.000000
165409.000000
166534.000000
167569.000000
168684.000000
169804.000000
170875.000000
172049.000000
173164.000000
174149.000000
175223.000000
176311.000000
177331.000000
178419.000000
179446.000000
180398.000000
181285.000000
182154.000000
183092.000000
184077.000000
185185.000000
186403.000000
187611.000000
188802.000000
189902.000000
190987.000000
192093.000000
193198.000000
194405.000000
195632.000000
196837.000000
197978.000000
198961.000000
199979.000000
201004.000000
201993.000000
202953.000000
203908.000000
205066.000000
206377.000000
207536.000000
208756.000000
209971.000000
211082.000000
212174.000000
213248.000000
214310.000000
215355.000000
216488.000000
217618.000000
218669.000000
219783.000000
220934.000000
222105.000000
223296.000000
224450.000000
225654.000000
226842.000000
227953.000000
229097.000000
230331.000000
231498.000000
232687.000000
233825.000000
234861.000000
236044.000000
237155.000000
238143.000000
239097.000000
240013.000000
240840.000000
241698.000000
242859.000000
244004.000000
245061.000000
246153.000000
247277.000000
248409.000000
249362.000000
250326.000000
251234.000000
252164.000000
253101.000000
254152.000000
255206.000000
256225.000000
257246.000000
258260.000000
259265.000000
260289.000000
261286.000000
262274.000000
263246.000000
264231.000000
265235.000000
266262.000000
267293.000000
268338.000000
269352.000000
270381.000000
271416.000000
272458.000000
273503.000000
274575.000000
275656.000000
276859.000000
278044.000000
279171.000000
280180.000000
281069.000000
281931.000000
282845.000000
284025.000000
285284.000000
286541.000000
287706.000000
288844.000000
289968.000000
291231.000000
292427.000000
293599.000000
294720.000000
295824.000000
296871.000000
297920.000000
298968.000000
300039.000000
301134.000000
302233.000000
303347.000000
304441.000000
305525.000000
306612.000000
307710.000000
308753.000000
309766.000000
310769.000000
311832.000000
312962.000000
314031.000000
315022.000000
316114.000000
317207.000000
318291.000000
319349.000000
320456.000000
321539.000000
322656.000000
323767.000000
324846.000000
325936.000000
327031.000000
328122.000000
329281.000000
330530.000000
331664.000000
332809.000000
333991.000000
335139.000000
336297.000000
337429.000000
338459.000000
339437.000000
340382.000000
341481.000000
342611.000000
343632.000000
344622.000000
345749.000000
346862.000000
347933.000000
349077.000000
350257.000000
351383.000000
352551.000000
353739.000000
354875.000000
355980.000000
357118.000000
358276.000000
359408.000000
360604.000000
361747.000000
362867.000000
364014.000000
365289.000000
366536.000000
367662.000000
368783.000000
369931.000000
371110.000000
372358.000000
373609.000000
374695.000000
375758.000000
376858.000000
377975.000000
378990.000000
380148.000000
381288.000000
382413.000000
383676.000000
384790.000000
385857.000000
387003.000000
388041.000000
389191.000000
390374.000000
391535.000000
392731.000000
393909.000000
394986.000000
396114.000000
397276.000000
398525.000000
399763.000000
400933.000000
402147.000000
403300.000000
404509.000000
405657.000000
406806.000000
407982.000000
409115.000000
410262.000000
411482.000000
412692.000000
413766.000000
414721.000000
415585.000000
416336.000000
417129.000000
418381.000000
419567.000000
420699.000000
421983.000000
423237.000000
424525.000000
425684.000000
426797.000000
427883.000000
429024.000000
430135.000000
431264.000000
432398.000000
433538.000000
434652.000000
435749.000000
436844.000000
437935.000000
439018.000000
440115.000000
441259.000000
442408.000000
443476.000000
444478.000000
445449.000000
446471.000000
447546.000000
448622.000000
449614.000000
450668.000000
451796.000000
452915.000000
454032.000000
455173.000000
456308.000000
457419.000000
458528.000000
459660.000000
460772.000000
461832.000000
462941.000000
464067.000000
465216.000000
466408.000000
467587.000000
468713.000000
469831.000000
470952.000000
472077.000000
473220.000000
474389.000000
475573.000000
476712.000000
477791.000000
479010.000000
480168.000000
481157.000000
482090.000000
482978.000000
483905.000000
485055.000000
486191.000000
487342.000000
488539.000000
489800.000000
491008.000000
492182.000000
493328.000000
494403.000000
495509.000000
496606.000000
497694.000000
498764.000000
499853.000000
500926.000000
502007.000000
503100.000000
504232.000000
505331.000000
506392.000000
507433.000000
508376.000000
509283.000000
510191.000000
511410.000000
512736.000000
513921.000000
515131.000000
516354.000000
517470.000000
518559.000000
519658.000000
520711.000000
521810.000000
522905.000000
523946.000000
525022.000000
526093.000000
527125.000000
528201.000000
529288.000000
530322.000000
531412.000000
532502.000000
533576.000000
534649.000000
535677.000000
536723.000000
537722.000000
538680.000000
539734.000000
540800.000000
541791.000000
542866.000000
543951.000000
544939.000000
546000.000000
547061.000000
548033.000000
549093.000000
550195.000000
551243.000000
552484.000000
553680.000000
554696.000000
555788.000000
556876.000000
557903.000000
559032.000000
560290.000000
561353.000000
562323.000000
563283.000000
564413.000000
565616.000000
566786.000000
567856.000000
568930.000000
570033.000000
571072.000000
572187.000000
573261.000000
574346.000000
575473.000000
576582.000000
577695.000000
578832.000000
579898.000000
580999.000000
582141.000000
583227.000000
584478.000000
585668.000000
586778.000000
587937.000000
589092.000000
590214.000000
591419.000000
592536.000000
593579.000000
594701.000000
595778.000000
596846.000000
597972.000000
599024.000000
600158.000000
601359.000000
602515.000000
603707.000000
604877.000000
606034.000000
607228.000000
608461.000000
609630.000000
610872.000000
612028.000000
613240.000000
614502.000000
615719.000000
616794.000000
617786.000000
618845.000000
619975.000000
621154.000000
622351.000000
623542.000000
624776.000000
626037.000000
627273.000000
628457.000000
629638.000000
630867.000000
632081.000000
633263.000000
634498.000000
635655.000000
636808.000000
637975.000000
639116.000000
640278.000000
641440.000000
642539.000000
643677.000000
644837.000000
645957.000000
646972.000000
648133.000000
649129.000000
650060.000000
650960.000000
651852.000000
652936.000000
654229.000000
655465.000000
656732.000000
657901.000000
659196.000000
660462.000000
661664.000000
662815.000000
663935.000000
665032.000000
666178.000000
667351.000000
668404.000000
669419.000000
670507.000000
671577.000000
672690.000000
673898.000000
674986.000000
676009.000000
677046.000000
677975.000000
679008.000000
680140.000000
681280.000000
682471.000000
683549.000000
684594.000000
685574.000000
686643.000000
687733.000000
688822.000000
689908.000000
691029.000000
692160.000000
693287.000000
694515.000000
695709.000000
696869.000000
698044.000000
699148.000000
700210.000000
701356.000000
702708.000000
703909.000000
705056.000000
706230.000000
707391.000000
708491.000000
709689.000000
710898.000000
712032.000000
713175.000000
714288.000000
715353.000000
716493.000000
717728.000000
718888.000000
720128.000000
721443.000000
722625.000000
723896.000000
725112.000000
726261.000000
727436.000000
728571.000000
729669.000000
730832.000000
731977.000000
733151.000000
734233.000000
735396.000000
736648.000000
737848.000000
739072.000000
740326.000000
741454.000000
742659.000000
743839.000000
744945.000000
746117.000000
747273.000000
748415.000000
749583.000000
750719.000000
751904.000000
753078.000000
754230.000000
755406.000000
756588.000000
757681.000000
758848.000000
760083.000000
761254.000000
762517.000000
763777.000000
765017.000000
766282.000000
767349.000000
768335.000000
769451.000000
770603.000000
771783.000000
773113.000000
774278.000000
775444.000000
776615.000000
777691.000000
778788.000000
779990.000000
781269.000000
782504.000000
783592.000000
784592.000000
785422.000000
786171.000000
786921.000000
787718.000000
788916.000000
790019.000000
791020.000000
792086.000000
793185.000000
794296.000000
795382.000000
796447.000000
797512.000000
798500.000000
799468.000000
800424.000000
801373.000000
802355.000000
803326.000000
804321.000000
805342.000000
806363.000000
807411.000000
808488.000000
809595.000000
810709.000000
811837.000000
812998.000000
814125.000000
815262.000000
816406.000000
817487.000000
818587.000000
819682.000000
820750.000000
821732.000000
822694.000000
823761.000000
824911.000000
825995.000000
827059.000000
828225.000000
829364.000000
830454.000000
831590.000000
832710.000000
833791.000000
834897.000000
835969.000000
837051.000000
838173.000000
839265.000000
840379.000000
841495.000000
842537.000000
843635.000000
844742.000000
845781.000000
846909.000000
848046.000000
849151.000000
850290.000000
851436.000000
852528.000000
853646.000000
854766.000000
855832.000000
857002.000000
858203.000000
859258.000000
860432.000000
861575.000000
862694.000000
863906.000000
865122.000000
866365.000000
867655.000000
868908.000000
870105.000000
871296.000000
872413.000000
873543.000000
874729.000000
875913.000000
877148.000000
878383.000000
879657.000000
880934.000000
882115.000000
883317.000000
884483.000000
885605.000000
886784.000000
887918.000000
889066.000000
890179.000000
891372.000000
892474.000000
893715.000000
894985.000000
896177.000000
897449.000000
898651.000000
899851.000000
901023.000000
902128.000000
903277.000000
904457.000000
905586.000000
906845.000000
908052.000000
909182.000000
910394.000000
911531.000000
912553.000000
913487.000000
914343.000000
915171.000000
916229.000000
917324.000000
918515.000000
919716.000000
920884.000000
922094.000000
