ECG (ms)
880.000000
1791.000000
2746.000000
3721.000000
4640.000000
5594.000000
6558.000000
7500.000000
8394.000000
9305.000000
10236.000000
11122.000000
12037.000000
13010.000000
13995.000000
14976.000000
15954.000000
16872.000000
17762.000000
18685.000000
19654.000000
20592.000000
21511.000000
22443.000000
23382.000000
24247.000000
25113.000000
25930.000000
26747.000000
27591.000000
28477.000000
29419.000000
30355.000000
31268.000000
32167.000000
33069.000000
33929.000000
34820.000000
35730.000000
36651.000000
37534.000000
38446.000000
39410.000000
40356.000000
41240.000000
42146.000000
43088.000000
44042.000000
44932.000000
45835.000000
46793.000000
47745.000000
48642.000000
49574.000000
50470.000000
51358.000000
52322.000000
53248.000000
54168.000000
55137.000000
56145.000000
57077.000000
58023.000000
59012.000000
59960.000000
60919.000000
61934.000000
62946.000000
63881.000000
64851.000000
65836.000000
66745.000000
67683.000000
68661.000000
69571.000000
70499.000000
71447.000000
72365.000000
73288.000000
74274.000000
75266.000000
76191.000000
77109.000000
78059.000000
79027.000000
79944.000000
80838.000000
81792.000000
82811.000000
83826.000000
84818.000000
85794.000000
86739.000000
87617.000000
88522.000000
89470.000000
90435.000000
91401.000000
92327.000000
93214.000000
94150.000000
95124.000000
96112.000000
97031.000000
97890.000000
98774.000000
99691.000000
100639.000000
101596.000000
102526.000000
103412.000000
104341.000000
105325.000000
106305.000000
107196.000000
108090.000000
109033.000000
109968.000000
110812.000000
111638.000000
112448.000000
113254.000000
114121.000000
115074.000000
116026.000000
116899.000000
117814.000000
118778.000000
119742.000000
120636.000000
121568.000000
122538.000000
123452.000000
124307.000000
125175.000000
126056.000000
126909.000000
127778.000000
128708.000000
129642.000000
130531.000000
131468.000000
132439.000000
133362.000000
134285.000000
135259.000000
136231.000000
137136.000000
138055.000000
138989.000000
139912.000000
140750.000000
141593.000000
142433.000000
143289.000000
144194.000000
145132.000000
146029.000000
146937.000000
147899.000000
148865.000000
149779.000000
150700.000000
151643.000000
152550.000000
153402.000000
154277.000000
155150.000000
155970.000000
156783.000000
157650.000000
158503.000000
159396.000000
160364.000000
161318.000000
162225.000000
163188.000000
164190.000000
165150.000000
166069.000000
167055.000000
168069.000000
169014.000000
169947.000000
170891.000000
171818.000000
172693.000000
173595.000000
174529.000000
175419.000000
176341.000000
177305.000000
178277.000000
179256.000000
180188.000000
181080.000000
182025.000000
182996.000000
183990.000000
184956.000000
185857.000000
186799.000000
187789.000000
188754.000000
189669.000000
190630.000000
191601.000000
192535.000000
193434.000000
194359.000000
195319.000000
196273.000000
197230.000000
198129.000000
199021.000000
199923.000000
200820.000000
201650.000000
202479.000000
203315.000000
204160.000000
205085.000000
206073.000000
207035.000000
207936.000000
208859.000000
209809.000000
210755.000000
211661.000000
212554.000000
213400.000000
214221.000000
215095.000000
216036.000000
216941.000000
217784.000000
218654.000000
219513.000000
220424.000000
221423.000000
222422.000000
223382.000000
224274.000000
225166.000000
226112.000000
227095.000000
228064.000000
229020.000000
229907.000000
230780.000000
231708.000000
232684.000000
233627.000000
234494.000000
235386.000000
236264.000000
237225.000000
238281.000000
239333.000000
240276.000000
241233.000000
242231.000000
243244.000000
244184.000000
245087.000000
246064.000000
247104.000000
248094.000000
248998.000000
249940.000000
250945.000000
251965.000000
252913.000000
253793.000000
254728.000000
255719.000000
256695.000000
257614.000000
258580.000000
259599.000000
260566.000000
261466.000000
262408.000000
263388.000000
264374.000000
265312.000000
266272.000000
267261.000000
268247.000000
269236.000000
270203.000000
271107.000000
271968.000000
272835.000000
273732.000000
274663.000000
275561.000000
276478.000000
277479.000000
278526.000000
279499.000000
280493.000000
281530.000000
282540.000000
283489.000000
284451.000000
285445.000000
286453.000000
287419.000000
288308.000000
289198.000000
290122.000000
291105.000000
292032.000000
292941.000000
293910.000000
294933.000000
295878.000000
296856.000000
297859.000000
298835.000000
299781.000000
300709.000000
301633.000000
302505.000000
303360.000000
304218.000000
305052.000000
305862.000000
306711.000000
307552.000000
308435.000000
309393.000000
310378.000000
311340.000000
312237.000000
313118.000000
314048.000000
315027.000000
315967.000000
316825.000000
317677.000000
318586.000000
319559.000000
320534.000000
321424.000000
322289.000000
323205.000000
324184.000000
325130.000000
326002.000000
326861.000000
327764.000000
328716.000000
329666.000000
330606.000000
331528.000000
332438.000000
333298.000000
334186.000000
335143.000000
336095.000000
337031.000000
337904.000000
338797.000000
339759.000000
340734.000000
341649.000000
342518.000000
343435.000000
344426.000000
345422.000000
346326.000000
347214.000000
348113.000000
349007.000000
349847.000000
350745.000000
351641.000000
352517.000000
353466.000000
354473.000000
355476.000000
356413.000000
357307.000000
358249.000000
359254.000000
360203.000000
361080.000000
362015.000000
363024.000000
363972.000000
364915.000000
365923.000000
366916.000000
367833.000000
368787.000000
369752.000000
370661.000000
371564.000000
372529.000000
373543.000000
374476.000000
375385.000000
376363.000000
377346.000000
378263.000000
379163.000000
380106.000000
381016.000000
381851.000000
382713.000000
383546.000000
384387.000000
385336.000000
386348.000000
387332.000000
388302.000000
389260.000000
390192.000000
391068.000000
391945.000000
392886.000000
393860.000000
394773.000000
395706.000000
396726.000000
397748.000000
398681.000000
399606.000000
400563.000000
401430.000000
402283.000000
403134.000000
403966.000000
404877.000000
405906.000000
406940.000000
407892.000000
408846.000000
409854.000000
410887.000000
411906.000000
412904.000000
413824.000000
414718.000000
415665.000000
416686.000000
417666.000000
418579.000000
419562.000000
420601.000000
421585.000000
422495.000000
423463.000000
424478.000000
425482.000000
426463.000000
427368.000000
428282.000000
429204.000000
430063.000000
430895.000000
431724.000000
432567.000000
433540.000000
434591.000000
435583.000000
436497.000000
437457.000000
438481.000000
439501.000000
440508.000000
441443.000000
442362.000000
443359.000000
444399.000000
445365.000000
446275.000000
447247.000000
448255.000000
449267.000000
450227.000000
451123.000000
452057.000000
453059.000000
454052.000000
455038.000000
455976.000000
456874.000000
457818.000000
458785.000000
459770.000000
460732.000000
461616.000000
462509.000000
463475.000000
464444.000000
465350.000000
466325.000000
467316.000000
468231.000000
469150.000000
470109.000000
471054.000000
471926.000000
472831.000000
473795.000000
474718.000000
475591.000000
476513.000000
477459.000000
478345.000000
479273.000000
480251.000000
481187.000000
482078.000000
483015.000000
483982.000000
484872.000000
485783.000000
486750.000000
487697.000000
488586.000000
489507.000000
490455.000000
491368.000000
492256.000000
493177.000000
494122.000000
495001.000000
495921.000000
496898.000000
497847.000000
498720.000000
499613.000000
500555.000000
501482.000000
502357.000000
503283.000000
504250.000000
505240.000000
506214.000000
507119.000000
508011.000000
508940.000000
509907.000000
510867.000000
511813.000000
512707.000000
513581.000000
514500.000000
515452.000000
516347.000000
517250.000000
518200.000000
519146.000000
520028.000000
520941.000000
521801.000000
522641.000000
523522.000000
524385.000000
525337.000000
526359.000000
527347.000000
528257.000000
529219.000000
530229.000000
531223.000000
532226.000000
533179.000000
534080.000000
535026.000000
536021.000000
537026.000000
537994.000000
538907.000000
539870.000000
540882.000000
541880.000000
542785.000000
543710.000000
544697.000000
545711.000000
546630.000000
547521.000000
548479.000000
549491.000000
550448.000000
551335.000000
552285.000000
553292.000000
554243.000000
555116.000000
556028.000000
556989.000000
557926.000000
558828.000000
559786.000000
560798.000000
561769.000000
562697.000000
563699.000000
564719.000000
565687.000000
566588.000000
567525.000000
568496.000000
569408.000000
570320.000000
571286.000000
572275.000000
573190.000000
574101.000000
575055.000000
575995.000000
576893.000000
577853.000000
578857.000000
579782.000000
580687.000000
581657.000000
582631.000000
583527.000000
584434.000000
585391.000000
586357.000000
587255.000000
588178.000000
589149.000000
590126.000000
591100.000000
591999.000000
592913.000000
593915.000000
594958.000000
595931.000000
596847.000000
597826.000000
598849.000000
599812.000000
600699.000000
601632.000000
602630.000000
603587.000000
604486.000000
605445.000000
606447.000000
607430.000000
608335.000000
609262.000000
610225.000000
611190.000000
612145.000000
613104.000000
614071.000000
614982.000000
615856.000000
616781.000000
617735.000000
618671.000000
619523.000000
620369.000000
621244.000000
622081.000000
622942.000000
623895.000000
624902.000000
625829.000000
626718.000000
627669.000000
628678.000000
629625.000000
630502.000000
631435.000000
632421.000000
633409.000000
634355.000000
635237.000000
636145.000000
637146.000000
638166.000000
639140.000000
640060.000000
641020.000000
642012.000000
642936.000000
643867.000000
644853.000000
645839.000000
646757.000000
647657.000000
648631.000000
649650.000000
650590.000000
651560.000000
652595.000000
653572.000000
654482.000000
655459.000000
656493.000000
657502.000000
658457.000000
659339.000000
660260.000000
661248.000000
662229.000000
663205.000000
664110.000000
665032.000000
666016.000000
667012.000000
667983.000000
668927.000000
669798.000000
670666.000000
671614.000000
672630.000000
673662.000000
674637.000000
675536.000000
676496.000000
677509.000000
678439.000000
679341.000000
680314.000000
681321.000000
682230.000000
683142.000000
684117.000000
685087.000000
686003.000000
686994.000000
688018.000000
688956.000000
689897.000000
690896.000000
691868.000000
692781.000000
693752.000000
694760.000000
695757.000000
696738.000000
697674.000000
698561.000000
699504.000000
700497.000000
701459.000000
702365.000000
703341.000000
704360.000000
705310.000000
706190.000000
707099.000000
708051.000000
708981.000000
709886.000000
710883.000000
711919.000000
712866.000000
713813.000000
714824.000000
715849.000000
716790.000000
717755.000000
718782.000000
719799.000000
720727.000000
721642.000000
722497.000000
723315.000000
724193.000000
725058.000000
725970.000000
726975.000000
727996.000000
728936.000000
729914.000000
730932.000000
731943.000000
732945.000000
733931.000000
734849.000000
735795.000000
736822.000000
737899.000000
738925.000000
739925.000000
740916.000000
741816.000000
742738.000000
743728.000000
744672.000000
745533.000000
746450.000000
747465.000000
748455.000000
749369.000000
750327.000000
751345.000000
752309.000000
753227.000000
754246.000000
755301.000000
756327.000000
757347.000000
758282.000000
759199.000000
760177.000000
761163.000000
762071.000000
763040.000000
764093.000000
765101.000000
766056.000000
767050.000000
768068.000000
769065.000000
770042.000000
770982.000000
771868.000000
772808.000000
773835.000000
774861.000000
775810.000000
776735.000000
777746.000000
778762.000000
779684.000000
780648.000000
781662.000000
782617.000000
783549.000000
784547.000000
785560.000000
786488.000000
787428.000000
788434.000000
789447.000000
790443.000000
791385.000000
792280.000000
793262.000000
794297.000000
795222.000000
796203.000000
797256.000000
798244.000000
799174.000000
800172.000000
801211.000000
802161.000000
803110.000000
804142.000000
805179.000000
806127.000000
807103.000000
808098.000000
809101.000000
810087.000000
811042.000000
811918.000000
812812.000000
813729.000000
814583.000000
815437.000000
816312.000000
817194.000000
818210.000000
819264.000000
820213.000000
821194.000000
822235.000000
823258.000000
824187.000000
825124.000000
826111.000000
827117.000000
828051.000000
828981.000000
829971.000000
831025.000000
832079.000000
833029.000000
834001.000000
835040.000000
836098.000000
837080.000000
838058.000000
839119.000000
840213.000000
841281.000000
842257.000000
843271.000000
844327.000000
845363.000000
846369.000000
847364.000000
848337.000000
849322.000000
850276.000000
851207.000000
852169.000000
853180.000000
854102.000000
854966.000000
855954.000000
857053.000000
858132.000000
859114.000000
860139.000000
861213.000000
862267.000000
863220.000000
864207.000000
865287.000000
866322.000000
867268.000000
868255.000000
869177.000000
870072.000000
871046.000000
871967.000000
872920.000000
873947.000000
874972.000000
875913.000000
876945.000000
878026.000000
879019.000000
879998.000000
881047.000000
882116.000000
883097.000000
884109.000000
885171.000000
886218.000000
887182.000000
888166.000000
889204.000000
890234.000000
891173.000000
892153.000000
893169.000000
894141.000000
895036.000000
895982.000000
896974.000000
897923.000000
898901.000000
899972.000000
901058.000000
902045.000000
902974.000000
903950.000000
904961.000000
905895.000000
906868.000000
907900.000000
908892.000000
909836.000000
910852.000000
911901.000000
912908.000000
913900.000000
914907.000000
915910.000000
916897.000000
917812.000000
918755.000000
919759.000000
920789.000000
921717.000000
922694.000000
923711.000000
924707.000000
925628.000000
926638.000000
927704.000000
928688.000000
929681.000000
930713.000000
931743.000000
932746.000000
933666.000000
934622.000000
935595.000000
936483.000000
937413.000000
938312.000000
939254.000000
940281.000000
941304.000000
942244.000000
943253.000000
944274.000000
945214.000000
946172.000000
947172.000000
948168.000000
949145.000000
950042.000000
950998.000000
952027.000000
953037.000000
954038.000000
955009.000000
955924.000000
956895.000000
957957.000000
959015.000000
960043.000000
961027.000000
961940.000000
962893.000000
963886.000000
964870.000000
965833.000000
966776.000000
967652.000000
968566.000000
969552.000000
970546.000000
971449.000000
972422.000000
973459.000000
974398.000000
975339.000000
976369.000000
977390.000000
978357.000000
979245.000000
980183.000000
981202.000000
982189.000000
983087.000000
984025.000000
985058.000000
986035.000000
986958.000000
987963.000000
988997.000000
989943.000000
990901.000000
991898.000000
992856.000000
993719.000000
994557.000000
995436.000000
996419.000000
997431.000000
998354.000000
999320.000000
1000373.000000
1001368.000000
1002323.000000
1003317.000000
1004336.000000
1005342.000000
1006320.000000
1007215.000000
1008129.000000
1009116.000000
1010100.000000
1011045.000000
1012058.000000
1013072.000000
1014008.000000
1014992.000000
1016032.000000
1017015.000000
1017964.000000
1018976.000000
1020017.000000
1020973.000000
1021935.000000
1022983.000000
1024027.000000
1024979.000000
1025949.000000
1026950.000000
1027906.000000
1028791.000000
1029730.000000
1030708.000000
1031630.000000
1032561.000000
1033559.000000
1034616.000000
1035588.000000
1036526.000000
1037533.000000
1038567.000000
1039524.000000
1040523.000000
1041563.000000
1042570.000000
1043500.000000
1044478.000000
1045504.000000
1046480.000000
1047394.000000
1048353.000000
1049367.000000
1050328.000000
1051286.000000
1052311.000000
1053326.000000
1054255.000000
1055235.000000
1056271.000000
1057258.000000
1058239.000000
1059294.000000
1060354.000000
1061321.000000
1062292.000000
1063288.000000
1064281.000000
1065244.000000
1066127.000000
1066991.000000
1067851.000000
1068689.000000
1069633.000000
1070649.000000
1071673.000000
1072609.000000
1073520.000000
1074498.000000
1075515.000000
1076459.000000
1077393.000000
1078386.000000
1079431.000000
1080440.000000
1081359.000000
1082318.000000
1083331.000000
1084315.000000
1085232.000000
1086210.000000
1087235.000000
1088214.000000
1089139.000000
1090140.000000
1091148.000000
1092132.000000
1093113.000000
1094012.000000
1094913.000000
1095880.000000
1096895.000000
1097896.000000
1098818.000000
1099753.000000
1100748.000000
1101743.000000
1102662.000000
1103641.000000
1104652.000000
1105596.000000
1106599.000000
1107628.000000
1108630.000000
1109547.000000
1110493.000000
1111510.000000
1112531.000000
1113468.000000
1114450.000000
1115477.000000
1116461.000000
1117374.000000
1118345.000000
1119348.000000
1120273.000000
1121253.000000
1122316.000000
1123373.000000
1124324.000000
1125283.000000
1126277.000000
1127278.000000
1128285.000000
1129234.000000
1130140.000000
1131121.000000
1132173.000000
1133168.000000
1134071.000000
1135018.000000
1136046.000000
1137067.000000
1138027.000000
1139029.000000
1140040.000000
1141044.000000
1141993.000000
1142895.000000
1143857.000000
1144878.000000
1145894.000000
1146859.000000
1147776.000000
1148788.000000
1149865.000000
1150897.000000
1151835.000000
1152786.000000
1153782.000000
1154777.000000
1155698.000000
1156668.000000
1157683.000000
1158628.000000
1159586.000000
1160655.000000
1161665.000000
1162619.000000
1163629.000000
1164644.000000
1165584.000000
1166547.000000
1167590.000000
1168653.000000
1169686.000000
1170641.000000
1171613.000000
1172632.000000
1173636.000000
1174559.000000
1175539.000000
1176618.000000
1177665.000000
1178640.000000
1179646.000000
1180649.000000
1181622.000000
1182521.000000
1183454.000000
1184480.000000
1185520.000000
1186496.000000
1187540.000000
1188587.000000
1189554.000000
1190575.000000
1191637.000000
1192642.000000
1193588.000000
1194523.000000
1195391.000000
1196296.000000
1197204.000000
1198100.000000
1199080.000000
1200100.000000
1201024.000000
1201954.000000
1202965.000000
1204013.000000
1204993.000000
1205959.000000
1206994.000000
1208001.000000
1208975.000000
1209988.000000
1211014.000000
1212030.000000
1212994.000000
1213905.000000
1214886.000000
1215942.000000
1216952.000000
1217899.000000
1218895.000000
1219934.000000
1220905.000000
1221869.000000
1222894.000000
1223914.000000
1224855.000000
1225826.000000
1226840.000000
1227851.000000
1228830.000000
1229734.000000
1230695.000000
1231735.000000
1232756.000000
1233685.000000
1234664.000000
1235705.000000
1236738.000000
1237696.000000
1238671.000000
1239730.000000
1240786.000000
1241747.000000
1242702.000000
1243724.000000
1244755.000000
1245694.000000
1246680.000000
1247714.000000
1248736.000000
1249821.000000
1250907.000000
1251937.000000
1252921.000000
1253971.000000
1255029.000000
1256052.000000
1256988.000000
1257986.000000
1259012.000000
1259953.000000
1260938.000000
1262000.000000
1263009.000000
1263990.000000
1265044.000000
1266118.000000
1267092.000000
1268047.000000
1269064.000000
1270077.000000
1271069.000000
1271984.000000
1272923.000000
1273933.000000
1274922.000000
1275840.000000
1276805.000000
1277810.000000
1278741.000000
1279685.000000
1280672.000000
1281662.000000
1282630.000000
1283498.000000
1284369.000000
1285246.000000
1286099.000000
1287043.000000
1288067.000000
1289003.000000
1289994.000000
1291020.000000
1291952.000000
1292929.000000
1293939.000000
1294858.000000
1295769.000000
1296744.000000
1297750.000000
1298759.000000
1299714.000000
1300594.000000
1301532.000000
1302543.000000
1303571.000000
1304515.000000
1305510.000000
1306542.000000
1307534.000000
1308463.000000
1309462.000000
1310515.000000
1311507.000000
1312465.000000
1313466.000000
1314503.000000
1315480.000000
1316397.000000
1317407.000000
1318463.000000
1319505.000000
1320503.000000
1321470.000000
1322429.000000
1323382.000000
1324301.000000
1325184.000000
1326153.000000
1327204.000000
1328214.000000
1329149.000000
1330102.000000
1331112.000000
1332097.000000
1332999.000000
1333945.000000
1334945.000000
1335942.000000
1336860.000000
1337764.000000
1338742.000000
1339773.000000
1340754.000000
1341651.000000
1342578.000000
1343526.000000
1344404.000000
1345294.000000
1346195.000000
1347112.000000
1348031.000000
1348965.000000
1349854.000000
1350726.000000
1351705.000000
1352720.000000
1353711.000000
1354614.000000
1355516.000000
1356483.000000
1357490.000000
1358489.000000
1359464.000000
1360427.000000
1361371.000000
1362274.000000
1363114.000000
1363981.000000
1364978.000000
1365984.000000
1366913.000000
1367863.000000
1368893.000000
1369940.000000
1370965.000000
1371950.000000
1372843.000000
1373783.000000
1374842.000000
1375917.000000
1376883.000000
1377798.000000
1378743.000000
1379717.000000
1380641.000000
1381520.000000
1382487.000000
1383572.000000
1384649.000000
1385700.000000
1386659.000000
1387597.000000
1388624.000000
1389715.000000
1390738.000000
1391715.000000
1392732.000000
1393771.000000
1394808.000000
1395766.000000
1396712.000000
1397737.000000
1398754.000000
1399676.000000
1400645.000000
1401688.000000
1402680.000000
1403631.000000
1404643.000000
1405666.000000
1406593.000000
1407540.000000
1408549.000000
1409506.000000
1410485.000000
1411549.000000
1412540.000000
1413517.000000
1414559.000000
1415602.000000
1416636.000000
1417656.000000
1418586.000000
1419541.000000
1420579.000000
1421631.000000
1422586.000000
1423541.000000
1424558.000000
1425594.000000
1426559.000000
1427531.000000
1428581.000000
1429658.000000
1430647.000000
1431658.000000
1432694.000000
1433729.000000
1434738.000000
1435751.000000
1436729.000000
1437637.000000
1438577.000000
1439636.000000
1440697.000000
1441652.000000
1442583.000000
1443591.000000
1444634.000000
1445594.000000
1446564.000000
1447597.000000
1448641.000000
1449654.000000
1450605.000000
1451521.000000
1452494.000000
1453491.000000
1454409.000000
1455384.000000
1456407.000000
1457391.000000
1458285.000000
1459238.000000
1460200.000000
1461090.000000
1462066.000000
1463065.000000
1463986.000000
1464944.000000
1465967.000000
1467005.000000
1467997.000000
1468929.000000
1469945.000000
1471016.000000
1472049.000000
1473084.000000
1474031.000000
1474979.000000
1476011.000000
1477087.000000
1478129.000000
1479169.000000
1480174.000000
1481083.000000
1481961.000000
1482818.000000
1483724.000000
1484598.000000
1485530.000000
1486546.000000
1487486.000000
1488442.000000
1489493.000000
1490552.000000
1491501.000000
1492437.000000
1493455.000000
1494467.000000
1495398.000000
1496419.000000
1497447.000000
1498398.000000
1499401.000000
1500434.000000
1501375.000000
1502366.000000
1503435.000000
1504456.000000
1505429.000000
1506463.000000
1507509.000000
1508482.000000
1509457.000000
1510492.000000
1511561.000000
1512562.000000
1513519.000000
1514546.000000
1515606.000000
1516594.000000
1517548.000000
1518573.000000
1519626.000000
1520595.000000
1521609.000000
1522686.000000
1523746.000000
1524720.000000
1525621.000000
1526538.000000
1527521.000000
1528544.000000
1529517.000000
1530473.000000
1531479.000000
1532502.000000
1533441.000000
1534419.000000
1535449.000000
1536424.000000
1537373.000000
1538386.000000
1539388.000000
1540347.000000
1541289.000000
1542197.000000
1543174.000000
1544085.000000
1545043.000000
1546081.000000
1547124.000000
1548081.000000
1549112.000000
1550192.000000
1551256.000000
1552223.000000
1553241.000000
1554297.000000
1555276.000000
1556238.000000
1557260.000000
1558266.000000
1559185.000000
1560175.000000
1561235.000000
1562196.000000
1563213.000000
1564250.000000
1565214.000000
1566237.000000
1567317.000000
1568345.000000
1569299.000000
1570323.000000
1571370.000000
1572350.000000
1573311.000000
1574339.000000
1575403.000000
1576385.000000
1577350.000000
1578367.000000
1579362.000000
1580293.000000
1581298.000000
1582324.000000
1583247.000000
1584152.000000
1585049.000000
1585937.000000
1586906.000000
1587936.000000
1588972.000000
1589946.000000
1590896.000000
1591909.000000
1592971.000000
1594000.000000
1594959.000000
1596000.000000
1597065.000000
1598076.000000
1599035.000000
1600039.000000
1601086.000000
1602133.000000
1603084.000000
1604035.000000
1605067.000000
1606108.000000
1607056.000000
1607994.000000
1609009.000000
1610061.000000
1611024.000000
1612015.000000
1612997.000000
1613897.000000
1614849.000000
1615770.000000
1616745.000000
1617807.000000
1618844.000000
1619797.000000
1620807.000000
1621868.000000
1622861.000000
1623788.000000
1624814.000000
1625884.000000
1626847.000000
1627829.000000
1628882.000000
1629876.000000
1630874.000000
1631955.000000
1633029.000000
1634002.000000
1634978.000000
1636027.000000
1637077.000000
1638052.000000
1639068.000000
1640113.000000
1641135.000000
1642080.000000
1643093.000000
1644149.000000
1645107.000000
1646063.000000
1647083.000000
1648143.000000
1649118.000000
1650081.000000
1651115.000000
1652171.000000
1653155.000000
1654163.000000
1655205.000000
1656241.000000
1657257.000000
1658252.000000
1659175.000000
1660111.000000
1661134.000000
1662171.000000
1663099.000000
1664041.000000
1665042.000000
1666059.000000
1666983.000000
1667939.000000
1668964.000000
1669947.000000
1670891.000000
1671892.000000
1672917.000000
1673852.000000
1674823.000000
1675843.000000
1676819.000000
1677722.000000
1678684.000000
1679685.000000
1680674.000000
1681560.000000
1682449.000000
1683332.000000
1684224.000000
1685224.000000
1686276.000000
1687306.000000
1688262.000000
1689254.000000
1690274.000000
1691312.000000
1692335.000000
1693274.000000
1694214.000000
1695208.000000
1696233.000000
1697209.000000
1698127.000000
1699101.000000
1700117.000000
1701068.000000
1702060.000000
1703122.000000
1704162.000000
1705126.000000
1706133.000000
1707163.000000
1708202.000000
1709234.000000
1710255.000000
1711204.000000
1712146.000000
1713161.000000
1714194.000000
1715148.000000
1716109.000000
1717112.000000
1718064.000000
1718998.000000
1720019.000000
1721042.000000
1721978.000000
1722992.000000
1724050.000000
1725024.000000
1726032.000000
1727124.000000
1728169.000000
1729114.000000
1730113.000000
1731165.000000
1732141.000000
1732611.000000
