ECG (ms)
114.000000
830.000000
1533.000000
2223.000000
2899.000000
3589.000000
4278.000000
4982.000000
5687.000000
6381.000000
7059.000000
7749.000000
8453.000000
9161.000000
9870.000000
10554.000000
11240.000000
11917.000000
12609.000000
13305.000000
14004.000000
14687.000000
15348.000000
16009.000000
16674.000000
17354.000000
18059.000000
18738.000000
19414.000000
20093.000000
20797.000000
21504.000000
22222.000000
22946.000000
23655.000000
24358.000000
25082.000000
25812.000000
26529.000000
27238.000000
27945.000000
28652.000000
29360.000000
30067.000000
30778.000000
31483.000000
32196.000000
32906.000000
33588.000000
34290.000000
34999.000000
35709.000000
36406.000000
37116.000000
37836.000000
38549.000000
39259.000000
39961.000000
40678.000000
41383.000000
42081.000000
42770.000000
43461.000000
44156.000000
44848.000000
45527.000000
46201.000000
46877.000000
47573.000000
48268.000000
48946.000000
49613.000000
50278.000000
50965.000000
51667.000000
52378.000000
53084.000000
53768.000000
54442.000000
55106.000000
55791.000000
56485.000000
57198.000000
57892.000000
58575.000000
59257.000000
59951.000000
60641.000000
61335.000000
62021.000000
62692.000000
63349.000000
64025.000000
64691.000000
65353.000000
66002.000000
66641.000000
67301.000000
67976.000000
68664.000000
69341.000000
70012.000000
70697.000000
71409.000000
72113.000000
72812.000000
73490.000000
74168.000000
74847.000000
75542.000000
76230.000000
76921.000000
77603.000000
78285.000000
78973.000000
79674.000000
80373.000000
81067.000000
81747.000000
82437.000000
83121.000000
83805.000000
84491.000000
85155.000000
85825.000000
86505.000000
87196.000000
87899.000000
88580.000000
89255.000000
89923.000000
90604.000000
91289.000000
91974.000000
92650.000000
93326.000000
94005.000000
94698.000000
95396.000000
96083.000000
96761.000000
97438.000000
98126.000000
98820.000000
99522.000000
100227.000000
100917.000000
101597.000000
102284.000000
102971.000000
103668.000000
104354.000000
105025.000000
105706.000000
106392.000000
107095.000000
107778.000000
108463.000000
109150.000000
109839.000000
110552.000000
111251.000000
111940.000000
112639.000000
113341.000000
114059.000000
114749.000000
115424.000000
116092.000000
116783.000000
117479.000000
118159.000000
118832.000000
119503.000000
120192.000000
120882.000000
121587.000000
122267.000000
122933.000000
123588.000000
124259.000000
124941.000000
125610.000000
126274.000000
126929.000000
127586.000000
128272.000000
128974.000000
129692.000000
130384.000000
131055.000000
131729.000000
132423.000000
133131.000000
133863.000000
134600.000000
135323.000000
136014.000000
136696.000000
137377.000000
138068.000000
138770.000000
139477.000000
140173.000000
140857.000000
141527.000000
142214.000000
142920.000000
143631.000000
144363.000000
145103.000000
145823.000000
146520.000000
147209.000000
147910.000000
148630.000000
149373.000000
150118.000000
150882.000000
151615.000000
152317.000000
153010.000000
153723.000000
154450.000000
155178.000000
155914.000000
156613.000000
157294.000000
157989.000000
158684.000000
159381.000000
160069.000000
160759.000000
161451.000000
162148.000000
162851.000000
163564.000000
164270.000000
164967.000000
165664.000000
166356.000000
167046.000000
167735.000000
168408.000000
169076.000000
169746.000000
170410.000000
171082.000000
171749.000000
172406.000000
173064.000000
173726.000000
174395.000000
175076.000000
175758.000000
176430.000000
177105.000000
177783.000000
178460.000000
179135.000000
179810.000000
180475.000000
181146.000000
181837.000000
182535.000000
183227.000000
183892.000000
184566.000000
185244.000000
185927.000000
186590.000000
187246.000000
187894.000000
188556.000000
189222.000000
189881.000000
190528.000000
191171.000000
191823.000000
192478.000000
193130.000000
193769.000000
194405.000000
195053.000000
195717.000000
196372.000000
197019.000000
197655.000000
198299.000000
198949.000000
199610.000000
200287.000000
200959.000000
201624.000000
202300.000000
203001.000000
203695.000000
204377.000000
205047.000000
205743.000000
206453.000000
207166.000000
207875.000000
208573.000000
209280.000000
209997.000000
210718.000000
211430.000000
212125.000000
212809.000000
213499.000000
214191.000000
214895.000000
215583.000000
216262.000000
216940.000000
217637.000000
218345.000000
219050.000000
219744.000000
220427.000000
221122.000000
221827.000000
222535.000000
223223.000000
223892.000000
224569.000000
225253.000000
225940.000000
226621.000000
227289.000000
227959.000000
228648.000000
229338.000000
230025.000000
230714.000000
231387.000000
232083.000000
232791.000000
233502.000000
234206.000000
234885.000000
235563.000000
236268.000000
236986.000000
237710.000000
238423.000000
239125.000000
239807.000000
240491.000000
241191.000000
241900.000000
242614.000000
243327.000000
244008.000000
244684.000000
245361.000000
246071.000000
246788.000000
247502.000000
248214.000000
248914.000000
249618.000000
250332.000000
251050.000000
251759.000000
252450.000000
253139.000000
253832.000000
254536.000000
255239.000000
255930.000000
256609.000000
257305.000000
258002.000000
258701.000000
259404.000000
260095.000000
260779.000000
261464.000000
262147.000000
262829.000000
263521.000000
264205.000000
264888.000000
265563.000000
266241.000000
266919.000000
267605.000000
268286.000000
268955.000000
269619.000000
270286.000000
270970.000000
271654.000000
272349.000000
273050.000000
273732.000000
274407.000000
275084.000000
275762.000000
276447.000000
277146.000000
277824.000000
278503.000000
279177.000000
279847.000000
280527.000000
281200.000000
281869.000000
282545.000000
283219.000000
283900.000000
284572.000000
285241.000000
285906.000000
286574.000000
287251.000000
287927.000000
288593.000000
289253.000000
289916.000000
290582.000000
291245.000000
291894.000000
292542.000000
293193.000000
293841.000000
294500.000000
295159.000000
295810.000000
296469.000000
297130.000000
297790.000000
298447.000000
299093.000000
299751.000000
300418.000000
301094.000000
301771.000000
302453.000000
303131.000000
303825.000000
304535.000000
305246.000000
305947.000000
306639.000000
307337.000000
308044.000000
308749.000000
309448.000000
310130.000000
310813.000000
311505.000000
312213.000000
312923.000000
313643.000000
314349.000000
315038.000000
315730.000000
316433.000000
317145.000000
317859.000000
318560.000000
319257.000000
319962.000000
320664.000000
321369.000000
322070.000000
322769.000000
323460.000000
324159.000000
324864.000000
325577.000000
326281.000000
326973.000000
327675.000000
328378.000000
329078.000000
329772.000000
330456.000000
331139.000000
331823.000000
332524.000000
333225.000000
333921.000000
334615.000000
335311.000000
336007.000000
336695.000000
337372.000000
338046.000000
338723.000000
339412.000000
340098.000000
340779.000000
341455.000000
342137.000000
342818.000000
343495.000000
344164.000000
344830.000000
345509.000000
346186.000000
346874.000000
347561.000000
348234.000000
348927.000000
349618.000000
350316.000000
351006.000000
351693.000000
352371.000000
353044.000000
353720.000000
354387.000000
355040.000000
355696.000000
356358.000000
357015.000000
357675.000000
358333.000000
358988.000000
359646.000000
360304.000000
360964.000000
361615.000000
362251.000000
362885.000000
363521.000000
364192.000000
364878.000000
365573.000000
366275.000000
366961.000000
367626.000000
368302.000000
368994.000000
369702.000000
370414.000000
371132.000000
371826.000000
372511.000000
373178.000000
373853.000000
374554.000000
375264.000000
375960.000000
376659.000000
377340.000000
378028.000000
378723.000000
379430.000000
380138.000000
380830.000000
381520.000000
382208.000000
382904.000000
383592.000000
384266.000000
384940.000000
385621.000000
386310.000000
387002.000000
387685.000000
388370.000000
389051.000000
389733.000000
390412.000000
391097.000000
391777.000000
392455.000000
393136.000000
393824.000000
394522.000000
395224.000000
395914.000000
396613.000000
397319.000000
398022.000000
398729.000000
399423.000000
400110.000000
400805.000000
401502.000000
402185.000000
402870.000000
403544.000000
404209.000000
404870.000000
405545.000000
406233.000000
406945.000000
407651.000000
408368.000000
409083.000000
409775.000000
410436.000000
411102.000000
411778.000000
412445.000000
413115.000000
413792.000000
414485.000000
415191.000000
415891.000000
416580.000000
417250.000000
417929.000000
418632.000000
419347.000000
420077.000000
420783.000000
421472.000000
422142.000000
422814.000000
423506.000000
424214.000000
424918.000000
425621.000000
426317.000000
427021.000000
427742.000000
428469.000000
429205.000000
429931.000000
430642.000000
431336.000000
432042.000000
432754.000000
433478.000000
434198.000000
434905.000000
435615.000000
436319.000000
437036.000000
437761.000000
438466.000000
439160.000000
439875.000000
440591.000000
441299.000000
441992.000000
442679.000000
443377.000000
444078.000000
444769.000000
445465.000000
446153.000000
446826.000000
447493.000000
448171.000000
448864.000000
449559.000000
450239.000000
450902.000000
451572.000000
452240.000000
452908.000000
453559.000000
454209.000000
454870.000000
455538.000000
456212.000000
456900.000000
457585.000000
458248.000000
458922.000000
459601.000000
460288.000000
460962.000000
461631.000000
462306.000000
462995.000000
463681.000000
464367.000000
465038.000000
465701.000000
466372.000000
467049.000000
467729.000000
468388.000000
469043.000000
469702.000000
470366.000000
471041.000000
471702.000000
472352.000000
473004.000000
473671.000000
474347.000000
475020.000000
475677.000000
476332.000000
477003.000000
477675.000000
478371.000000
479044.000000
479718.000000
480377.000000
481053.000000
481735.000000
482414.000000
483085.000000
483749.000000
484428.000000
485115.000000
485808.000000
486501.000000
487193.000000
487882.000000
488561.000000
489228.000000
489879.000000
490552.000000
491239.000000
491945.000000
492629.000000
493303.000000
493975.000000
494656.000000
495342.000000
496033.000000
496708.000000
497368.000000
498047.000000
498727.000000
499418.000000
500105.000000
500774.000000
501437.000000
502125.000000
502816.000000
503514.000000
504198.000000
504870.000000
505548.000000
506238.000000
506920.000000
507588.000000
508248.000000
508910.000000
509586.000000
510267.000000
510943.000000
511608.000000
512275.000000
512956.000000
513636.000000
514315.000000
514983.000000
515646.000000
516306.000000
516983.000000
517665.000000
518363.000000
519040.000000
519708.000000
520360.000000
521027.000000
521704.000000
522398.000000
523085.000000
523762.000000
524420.000000
525108.000000
525806.000000
526521.000000
527241.000000
527940.000000
528623.000000
529317.000000
530042.000000
530773.000000
531502.000000
532208.000000
532909.000000
533636.000000
534370.000000
535110.000000
535822.000000
536524.000000
537226.000000
537946.000000
538673.000000
539406.000000
540127.000000
540833.000000
541542.000000
542261.000000
542990.000000
543710.000000
544403.000000
545103.000000
545801.000000
546508.000000
547235.000000
547945.000000
548637.000000
549316.000000
550002.000000
550701.000000
551388.000000
552073.000000
552741.000000
553409.000000
554089.000000
554783.000000
555480.000000
556162.000000
556838.000000
557503.000000
558181.000000
558861.000000
559539.000000
560211.000000
560865.000000
561542.000000
562231.000000
562925.000000
563629.000000
564316.000000
564990.000000
565691.000000
566382.000000
567087.000000
567799.000000
568496.000000
569180.000000
569898.000000
570614.000000
571335.000000
572045.000000
572727.000000
573418.000000
574110.000000
574801.000000
575474.000000
576136.000000
576809.000000
577507.000000
578203.000000
578903.000000
579593.000000
580268.000000
580952.000000
581643.000000
582337.000000
583034.000000
583713.000000
584383.000000
585064.000000
585746.000000
586440.000000
587120.000000
587785.000000
588446.000000
589124.000000
589812.000000
590519.000000
591218.000000
591897.000000
592571.000000
593259.000000
593957.000000
594679.000000
595412.000000
596115.000000
596806.000000
597523.000000
598263.000000
598998.000000
599714.000000
600425.000000
601129.000000
601849.000000
602568.000000
603284.000000
603980.000000
604644.000000
605345.000000
606058.000000
606786.000000
607505.000000
608203.000000
608888.000000
609591.000000
610306.000000
611025.000000
611731.000000
612413.000000
613082.000000
613748.000000
614418.000000
615102.000000
615792.000000
616494.000000
617177.000000
617853.000000
618544.000000
619254.000000
619971.000000
620677.000000
621364.000000
622026.000000
622695.000000
623387.000000
624084.000000
624778.000000
625455.000000
626134.000000
626823.000000
627526.000000
628245.000000
628965.000000
629661.000000
630345.000000
631040.000000
631750.000000
632456.000000
633150.000000
633829.000000
634515.000000
635213.000000
635924.000000
636645.000000
637354.000000
638047.000000
638738.000000
639432.000000
640135.000000
640837.000000
641528.000000
642214.000000
642895.000000
643591.000000
644295.000000
645017.000000
645736.000000
646434.000000
647120.000000
647821.000000
648531.000000
649240.000000
649934.000000
650621.000000
651303.000000
651992.000000
652690.000000
653383.000000
654069.000000
654744.000000
655431.000000
656112.000000
656809.000000
657492.000000
658171.000000
658870.000000
659593.000000
660317.000000
661017.000000
661701.000000
662399.000000
663112.000000
663830.000000
664533.000000
665229.000000
665911.000000
666625.000000
667341.000000
668068.000000
668788.000000
669481.000000
670176.000000
670874.000000
671588.000000
672295.000000
672986.000000
673667.000000
674363.000000
675072.000000
675790.000000
676514.000000
677215.000000
677904.000000
678598.000000
679296.000000
679993.000000
680688.000000
681370.000000
682032.000000
682705.000000
683391.000000
684081.000000
684775.000000
685453.000000
686108.000000
686759.000000
687425.000000
688114.000000
688806.000000
689481.000000
690146.000000
690842.000000
691540.000000
692253.000000
692959.000000
693656.000000
694339.000000
695049.000000
695766.000000
696476.000000
697183.000000
697868.000000
698536.000000
699205.000000
699893.000000
700574.000000
701250.000000
701910.000000
702565.000000
703220.000000
703896.000000
704570.000000
705252.000000
705911.000000
706556.000000
707193.000000
707840.000000
708499.000000
709171.000000
709812.000000
710448.000000
711087.000000
711748.000000
712420.000000
713081.000000
713723.000000
714381.000000
715053.000000
715727.000000
716388.000000
717034.000000
717686.000000
718371.000000
719061.000000
719758.000000
720441.000000
721106.000000
721778.000000
722463.000000
723149.000000
723831.000000
724499.000000
725152.000000
725808.000000
726472.000000
727140.000000
727822.000000
728480.000000
729133.000000
729803.000000
730485.000000
731181.000000
731860.000000
732536.000000
733205.000000
733894.000000
734588.000000
735280.000000
735973.000000
736647.000000
737318.000000
737997.000000
738690.000000
739384.000000
740084.000000
740750.000000
741416.000000
742093.000000
742778.000000
743483.000000
744183.000000
744871.000000
745558.000000
746267.000000
746984.000000
747685.000000
748372.000000
749068.000000
749773.000000
750499.000000
751211.000000
751904.000000
752606.000000
753322.000000
754037.000000
754747.000000
755435.000000
756114.000000
756811.000000
757523.000000
758242.000000
758960.000000
759664.000000
760346.000000
761036.000000
761749.000000
762472.000000
763197.000000
763910.000000
764601.000000
765295.000000
765987.000000
766686.000000
767398.000000
768075.000000
768737.000000
769391.000000
770064.000000
770749.000000
771449.000000
772152.000000
772838.000000
773530.000000
774228.000000
774912.000000
775596.000000
776275.000000
776952.000000
777629.000000
778317.000000
779001.000000
779681.000000
780342.000000
781002.000000
781674.000000
782360.000000
783045.000000
783735.000000
784421.000000
785117.000000
785825.000000
786531.000000
787222.000000
787905.000000
788579.000000
789262.000000
789958.000000
790665.000000
791366.000000
792054.000000
792736.000000
793427.000000
794134.000000
794861.000000
795595.000000
796306.000000
796998.000000
797681.000000
798368.000000
799092.000000
799822.000000
800559.000000
801291.000000
802006.000000
802705.000000
803410.000000
804125.000000
804850.000000
805567.000000
806279.000000
806980.000000
807694.000000
808415.000000
809127.000000
809827.000000
810520.000000
811216.000000
811903.000000
812603.000000
813311.000000
814017.000000
814708.000000
815383.000000
816066.000000
816762.000000
817465.000000
818174.000000
818880.000000
819579.000000
820276.000000
820985.000000
821694.000000
822405.000000
823111.000000
823798.000000
824477.000000
825154.000000
825837.000000
826530.000000
827229.000000
827922.000000
828606.000000
829309.000000
830018.000000
830745.000000
831481.000000
832197.000000
832892.000000
833585.000000
834276.000000
834979.000000
835682.000000
836367.000000
837060.000000
837764.000000
838466.000000
839151.000000
839820.000000
840503.000000
841195.000000
841901.000000
842589.000000
843275.000000
843975.000000
844674.000000
845377.000000
846088.000000
846785.000000
847466.000000
848135.000000
848816.000000
849500.000000
850214.000000
850922.000000
851615.000000
852298.000000
852978.000000
853670.000000
854362.000000
855061.000000
855743.000000
856416.000000
857100.000000
857796.000000
858499.000000
859218.000000
859924.000000
860617.000000
861306.000000
862001.000000
862702.000000
863408.000000
864119.000000
864822.000000
865513.000000
866197.000000
866882.000000
867561.000000
868243.000000
868925.000000
869618.000000
870315.000000
871018.000000
871721.000000
872421.000000
873111.000000
873792.000000
874472.000000
875157.000000
875855.000000
876535.000000
877209.000000
877883.000000
878574.000000
879276.000000
879983.000000
880672.000000
881350.000000
882016.000000
882688.000000
883355.000000
884014.000000
884676.000000
885336.000000
886007.000000
886697.000000
887389.000000
888101.000000
888791.000000
889465.000000
890138.000000
890820.000000
891508.000000
892183.000000
892862.000000
893536.000000
894214.000000
894904.000000
895607.000000
896329.000000
897028.000000
897711.000000
898412.000000
899131.000000
899848.000000
900551.000000
901248.000000
901953.000000
902662.000000
903365.000000
904065.000000
904747.000000
905420.000000
906091.000000
906777.000000
907472.000000
908174.000000
908869.000000
909562.000000
910260.000000
910970.000000
911688.000000
912394.000000
913084.000000
913766.000000
914459.000000
915163.000000
915875.000000
916585.000000
917279.000000
917949.000000
918612.000000
919282.000000
919968.000000
920682.000000
921385.000000
922082.000000
922791.000000
923513.000000
924239.000000
924952.000000
925648.000000
926325.000000
927009.000000
927688.000000
928369.000000
929042.000000
929714.000000
930408.000000
931112.000000
931820.000000
932511.000000
933207.000000
933910.000000
934613.000000
935315.000000
936013.000000
936700.000000
937389.000000
938080.000000
938779.000000
939473.000000
940163.000000
940848.000000
941529.000000
942215.000000
942898.000000
943588.000000
944268.000000
944941.000000
945615.000000
946295.000000
946978.000000
947655.000000
948326.000000
948986.000000
949644.000000
950311.000000
950982.000000
951664.000000
952342.000000
953012.000000
953672.000000
954338.000000
955008.000000
955689.000000
956355.000000
957014.000000
957670.000000
958331.000000
959009.000000
959693.000000
960379.000000
961059.000000
961731.000000
962404.000000
963085.000000
963770.000000
964440.000000
965094.000000
965766.000000
966454.000000
967175.000000
967875.000000
968571.000000
969268.000000
969981.000000
970702.000000
971418.000000
972133.000000
972830.000000
973534.000000
974236.000000
974941.000000
975643.000000
976343.000000
977042.000000
977741.000000
978449.000000
979155.000000
979848.000000
980540.000000
981240.000000
981949.000000
982668.000000
983371.000000
984061.000000
984745.000000
985435.000000
986128.000000
986815.000000
987490.000000
988163.000000
988844.000000
989532.000000
990227.000000
990913.000000
991599.000000
992285.000000
992976.000000
993664.000000
994341.000000
995008.000000
995666.000000
996331.000000
996988.000000
997653.000000
998315.000000
998969.000000
999628.000000
1000299.000000
1000979.000000
1001661.000000
1002347.000000
1003017.000000
1003677.000000
1004347.000000
1005033.000000
1005714.000000
1006392.000000
1007061.000000
1007728.000000
1008413.000000
1009097.000000
1009792.000000
1010480.000000
1011163.000000
1011844.000000
1012533.000000
1013230.000000
1013939.000000
1014634.000000
1015320.000000
1016013.000000
1016717.000000
1017428.000000
1018123.000000
1018810.000000
1019503.000000
1020196.000000
1020885.000000
1021568.000000
1022252.000000
1022932.000000
1023626.000000
1024320.000000
1025012.000000
1025693.000000
1026370.000000
1027062.000000
1027759.000000
1028446.000000
1029119.000000
1029775.000000
1030432.000000
1031107.000000
1031811.000000
1032513.000000
1033214.000000
1033901.000000
1034597.000000
1035298.000000
1036015.000000
1036723.000000
1037412.000000
1038101.000000
1038795.000000
1039489.000000
1040183.000000
1040869.000000
1041542.000000
1042216.000000
1042893.000000
1043580.000000
1044299.000000
1045012.000000
1045707.000000
1046409.000000
1047111.000000
1047811.000000
1048510.000000
1049195.000000
1049875.000000
1050553.000000
1051243.000000
1051945.000000
1052646.000000
1053338.000000
1054019.000000
1054710.000000
1055407.000000
1056094.000000
1056769.000000
1057440.000000
1058127.000000
1058827.000000
1059521.000000
1060217.000000
1060890.000000
1061552.000000
1062213.000000
1062892.000000
1063572.000000
1064267.000000
1064969.000000
1065652.000000
1066330.000000
1067007.000000
1067704.000000
1068397.000000
1069091.000000
1069778.000000
1070449.000000
1071107.000000
1071782.000000
1072450.000000
1073128.000000
1073802.000000
1074465.000000
1075159.000000
1075877.000000
1076614.000000
1077332.000000
1078023.000000
1078699.000000
1079395.000000
1080087.000000
1080785.000000
1081488.000000
1082167.000000
1082832.000000
1083522.000000
1084223.000000
1084942.000000
1085662.000000
1086347.000000
1087026.000000
1087717.000000
1088410.000000
1089106.000000
1089786.000000
1090453.000000
1091129.000000
1091824.000000
1092527.000000
1093234.000000
1093909.000000
1094572.000000
1095258.000000
1095952.000000
1096654.000000
1097336.000000
1097998.000000
1098665.000000
1099354.000000
1100046.000000
1100738.000000
1101421.000000
1102096.000000
1102779.000000
1103476.000000
1104179.000000
1104874.000000
1105557.000000
1106250.000000
1106941.000000
1107633.000000
1108320.000000
1108999.000000
1109691.000000
1110395.000000
1111109.000000
1111810.000000
1112492.000000
1113152.000000
1113820.000000
1114492.000000
1115171.000000
1115849.000000
1116517.000000
1117178.000000
1117863.000000
1118587.000000
1119306.000000
1120018.000000
1120712.000000
1121390.000000
1122050.000000
1122718.000000
1123397.000000
1124085.000000
1124769.000000
1125438.000000
1126138.000000
1126851.000000
1127566.000000
1128256.000000
1128928.000000
1129607.000000
1130311.000000
1131018.000000
1131711.000000
1132373.000000
1133025.000000
1133703.000000
1134381.000000
1135063.000000
1135729.000000
1136387.000000
1137075.000000
1137755.000000
1138452.000000
1139135.000000
1139813.000000
1140474.000000
1141151.000000
1141829.000000
1142515.000000
1143179.000000
1143841.000000
1144524.000000
1145209.000000
1145893.000000
1146576.000000
1147245.000000
1147910.000000
1148585.000000
1149271.000000
1149959.000000
1150638.000000
1151306.000000
1151997.000000
1152701.000000
1153402.000000
1154106.000000
1154795.000000
1155472.000000
1156125.000000
1156786.000000
1157457.000000
1158134.000000
1158804.000000
1159471.000000
1160155.000000
1160842.000000
1161546.000000
1162235.000000
1162911.000000
1163571.000000
1164260.000000
1164951.000000
1165637.000000
1166318.000000
1166978.000000
1167658.000000
1168363.000000
1169065.000000
1169748.000000
1170413.000000
1171070.000000
1171747.000000
1172431.000000
1173129.000000
1173806.000000
1174461.000000
1175142.000000
1175841.000000
1176551.000000
1177265.000000
1177958.000000
1178634.000000
1179337.000000
1180049.000000
1180746.000000
1181419.000000
1182091.000000
1182774.000000
1183471.000000
1184185.000000
1184879.000000
1185556.000000
1186255.000000
1186951.000000
1187661.000000
1188364.000000
1189044.000000
1189720.000000
1190410.000000
1191088.000000
1191785.000000
1192480.000000
1193146.000000
1193807.000000
1194489.000000
