ECG (ms)
277.000000
1119.000000
1989.000000
2813.000000
3586.000000
4364.000000
5131.000000
5901.000000
6654.000000
7376.000000
8133.000000
8959.000000
9846.000000
10711.000000
11509.000000
12279.000000
13074.000000
13873.000000
14641.000000
15378.000000
16117.000000
16867.000000
17608.000000
18334.000000
19048.000000
19758.000000
20492.000000
21257.000000
21991.000000
22701.000000
23447.000000
24229.000000
25010.000000
25768.000000
26493.000000
27210.000000
27951.000000
28719.000000
29526.000000
30354.000000
31159.000000
31936.000000
32732.000000
33547.000000
34376.000000
35179.000000
35958.000000
36736.000000
37555.000000
38392.000000
39212.000000
39978.000000
40747.000000
41540.000000
42331.000000
43111.000000
43850.000000
44581.000000
45336.000000
46161.000000
47052.000000
47948.000000
48782.000000
49583.000000
50391.000000
51198.000000
52008.000000
52783.000000
53562.000000
54370.000000
55197.000000
56034.000000
56846.000000
57667.000000
58492.000000
59314.000000
60089.000000
60852.000000
61632.000000
62427.000000
63217.000000
63972.000000
64726.000000
65509.000000
66299.000000
67068.000000
67820.000000
68618.000000
69532.000000
70436.000000
71277.000000
72099.000000
72960.000000
73820.000000
74625.000000
75392.000000
76183.000000
76969.000000
77754.000000
78496.000000
79246.000000
80016.000000
80797.000000
81569.000000
82314.000000
83083.000000
83917.000000
84809.000000
85650.000000
86452.000000
87284.000000
88119.000000
88927.000000
89695.000000
90425.000000
91153.000000
91902.000000
92677.000000
93483.000000
94256.000000
95000.000000
95747.000000
96530.000000
97324.000000
98106.000000
98867.000000
99637.000000
100428.000000
101208.000000
101967.000000
102696.000000
103437.000000
104206.000000
105023.000000
105872.000000
106669.000000
107442.000000
108231.000000
109044.000000
109862.000000
110664.000000
111436.000000
112234.000000
113048.000000
113865.000000
114653.000000
115417.000000
116203.000000
117010.000000
117794.000000
118549.000000
119334.000000
120128.000000
120937.000000
121727.000000
122518.000000
123349.000000
124207.000000
125034.000000
125823.000000
126606.000000
127406.000000
128208.000000
128989.000000
129755.000000
130569.000000
131402.000000
132231.000000
133022.000000
133792.000000
134592.000000
135399.000000
136199.000000
136960.000000
137720.000000
138505.000000
139310.000000
140113.000000
140879.000000
141644.000000
142427.000000
143217.000000
143978.000000
144716.000000
145469.000000
146243.000000
147018.000000
147778.000000
148507.000000
149251.000000
150022.000000
150813.000000
151595.000000
152355.000000
153092.000000
153834.000000
154602.000000
155389.000000
156162.000000
156904.000000
157660.000000
158441.000000
159255.000000
160052.000000
160817.000000
161597.000000
162401.000000
163195.000000
163965.000000
164715.000000
165480.000000
166273.000000
167079.000000
167869.000000
168656.000000
169478.000000
170310.000000
171150.000000
171951.000000
172735.000000
173526.000000
174324.000000
175106.000000
175866.000000
176661.000000
177474.000000
178307.000000
179100.000000
179888.000000
180689.000000
181508.000000
182340.000000
183142.000000
183975.000000
184813.000000
185630.000000
186401.000000
187176.000000
187961.000000
188767.000000
189548.000000
190318.000000
191121.000000
191948.000000
192752.000000
193516.000000
194302.000000
195095.000000
195894.000000
196661.000000
197407.000000
198138.000000
198891.000000
199670.000000
200465.000000
201265.000000
202062.000000
202881.000000
203720.000000
204552.000000
205346.000000
206099.000000
206870.000000
207652.000000
208439.000000
209216.000000
209964.000000
210744.000000
211547.000000
212369.000000
213181.000000
213960.000000
214743.000000
215561.000000
216404.000000
217221.000000
217986.000000
218735.000000
219488.000000
220248.000000
221013.000000
221765.000000
222515.000000
223312.000000
224140.000000
224980.000000
225771.000000
226564.000000
227364.000000
228149.000000
228894.000000
229623.000000
230364.000000
231121.000000
231888.000000
232640.000000
233423.000000
234251.000000
235088.000000
235890.000000
236667.000000
237463.000000
238271.000000
239061.000000
239808.000000
240554.000000
241301.000000
242060.000000
242796.000000
243521.000000
244273.000000
245074.000000
245917.000000
246736.000000
247533.000000
248344.000000
249147.000000
249937.000000
250684.000000
251430.000000
252188.000000
252943.000000
253679.000000
254391.000000
255094.000000
255831.000000
256604.000000
257404.000000
258183.000000
258926.000000
259699.000000
260501.000000
261314.000000
262108.000000
262860.000000
263628.000000
264418.000000
265203.000000
265961.000000
266730.000000
267515.000000
268298.000000
269068.000000
269837.000000
270663.000000
271527.000000
272400.000000
273227.000000
274061.000000
274892.000000
275703.000000
276485.000000
277257.000000
278049.000000
278851.000000
279642.000000
280402.000000
281173.000000
281973.000000
282793.000000
283598.000000
284388.000000
285193.000000
286009.000000
286816.000000
287591.000000
288389.000000
289200.000000
290020.000000
290803.000000
291556.000000
292330.000000
293125.000000
293939.000000
294753.000000
295583.000000
296398.000000
297167.000000
297914.000000
298703.000000
299515.000000
300353.000000
301150.000000
301932.000000
302742.000000
303576.000000
304419.000000
305225.000000
305999.000000
306801.000000
307612.000000
308424.000000
309210.000000
310004.000000
310860.000000
311730.000000
312602.000000
313405.000000
314183.000000
314997.000000
315823.000000
316660.000000
317469.000000
318275.000000
319127.000000
319990.000000
320846.000000
321661.000000
322493.000000
323326.000000
324163.000000
324958.000000
325747.000000
326561.000000
327394.000000
328256.000000
329072.000000
329930.000000
330819.000000
331724.000000
332554.000000
333342.000000
334146.000000
334948.000000
335734.000000
336494.000000
337270.000000
338072.000000
338883.000000
339683.000000
340446.000000
341214.000000
341999.000000
342807.000000
343593.000000
344334.000000
345055.000000
345795.000000
346569.000000
347384.000000
348204.000000
348998.000000
349847.000000
350740.000000
351633.000000
352468.000000
353245.000000
354036.000000
354819.000000
355597.000000
356355.000000
357125.000000
357942.000000
358795.000000
359615.000000
360398.000000
361172.000000
361987.000000
362808.000000
363628.000000
364403.000000
365196.000000
366015.000000
366853.000000
367665.000000
368458.000000
369310.000000
370167.000000
371038.000000
371860.000000
372647.000000
373455.000000
374264.000000
375083.000000
375881.000000
376656.000000
377467.000000
378322.000000
379194.000000
380018.000000
380844.000000
381678.000000
382509.000000
383304.000000
384074.000000
384872.000000
385696.000000
386520.000000
387306.000000
388059.000000
388832.000000
389626.000000
390440.000000
391235.000000
392001.000000
392801.000000
393620.000000
394440.000000
395232.000000
396047.000000
396885.000000
397721.000000
398508.000000
399260.000000
400030.000000
400812.000000
401615.000000
402416.000000
403229.000000
404073.000000
404984.000000
405854.000000
406669.000000
407496.000000
408324.000000
409147.000000
409937.000000
410684.000000
411457.000000
412272.000000
413116.000000
413955.000000
414767.000000
415564.000000
416406.000000
417261.000000
418097.000000
418897.000000
419689.000000
420509.000000
421346.000000
422182.000000
422977.000000
423749.000000
424549.000000
425381.000000
426220.000000
427036.000000
427809.000000
428580.000000
429378.000000
430214.000000
431062.000000
431916.000000
432748.000000
433541.000000
434322.000000
435130.000000
435969.000000
436798.000000
437589.000000
438383.000000
439201.000000
440024.000000
440811.000000
441558.000000
442291.000000
443054.000000
443843.000000
444645.000000
445445.000000
446225.000000
446975.000000
447730.000000
448507.000000
449298.000000
450094.000000
450870.000000
451675.000000
452511.000000
453377.000000
454217.000000
455008.000000
455811.000000
456610.000000
457411.000000
458192.000000
458956.000000
459761.000000
460585.000000
461426.000000
462257.000000
463054.000000
463864.000000
464689.000000
465483.000000
466251.000000
467012.000000
467826.000000
468697.000000
469607.000000
470499.000000
471363.000000
472232.000000
473085.000000
473916.000000
474694.000000
475420.000000
476118.000000
476820.000000
477562.000000
478374.000000
479275.000000
480186.000000
481051.000000
481867.000000
482715.000000
483565.000000
484404.000000
485197.000000
485960.000000
486709.000000
487485.000000
488284.000000
489099.000000
489908.000000
490705.000000
491542.000000
492390.000000
493205.000000
494011.000000
494846.000000
495695.000000
496521.000000
497315.000000
498065.000000
498817.000000
499597.000000
500414.000000
501252.000000
502055.000000
502842.000000
503602.000000
504403.000000
505235.000000
506086.000000
506922.000000
507721.000000
508518.000000
509334.000000
510150.000000
510968.000000
511757.000000
512528.000000
513325.000000
514148.000000
514961.000000
515747.000000
516490.000000
517241.000000
517997.000000
518765.000000
519534.000000
520287.000000
521016.000000
521735.000000
522471.000000
523328.000000
524211.000000
525081.000000
525927.000000
526743.000000
527501.000000
528224.000000
528961.000000
529734.000000
530552.000000
531367.000000
532193.000000
533036.000000
533894.000000
534754.000000
535570.000000
536381.000000
537164.000000
537917.000000
538684.000000
539487.000000
540331.000000
541200.000000
542065.000000
542903.000000
543709.000000
544510.000000
545326.000000
546148.000000
546981.000000
547786.000000
548558.000000
549348.000000
550143.000000
550933.000000
551713.000000
552475.000000
553222.000000
553982.000000
554796.000000
555657.000000
556557.000000
557467.000000
558339.000000
559155.000000
559934.000000
560704.000000
561488.000000
562277.000000
563065.000000
563852.000000
564662.000000
565489.000000
566329.000000
567156.000000
567966.000000
568812.000000
569656.000000
570498.000000
571302.000000
572087.000000
572892.000000
573716.000000
574535.000000
575330.000000
576130.000000
576959.000000
577799.000000
578613.000000
579399.000000
580214.000000
581050.000000
581897.000000
582724.000000
583501.000000
584288.000000
585090.000000
585902.000000
586737.000000
587557.000000
588343.000000
589116.000000
589911.000000
590762.000000
591634.000000
592474.000000
593257.000000
594035.000000
594814.000000
595583.000000
596331.000000
597055.000000
597794.000000
598560.000000
599361.000000
600151.000000
600913.000000
601640.000000
602373.000000
603133.000000
603943.000000
604782.000000
605603.000000
606390.000000
607131.000000
607853.000000
608579.000000
609331.000000
610101.000000
610908.000000
611728.000000
612541.000000
613383.000000
614264.000000
615124.000000
615943.000000
616753.000000
617571.000000
618377.000000
619165.000000
619930.000000
620704.000000
621514.000000
622405.000000
623306.000000
624175.000000
625034.000000
625903.000000
626752.000000
627571.000000
628345.000000
629117.000000
629909.000000
630721.000000
631525.000000
632299.000000
633103.000000
633945.000000
634792.000000
635602.000000
636361.000000
637130.000000
637919.000000
638728.000000
639532.000000
640291.000000
641068.000000
641868.000000
642668.000000
643466.000000
644229.000000
644988.000000
645774.000000
646597.000000
647453.000000
648271.000000
649090.000000
649964.000000
650841.000000
651716.000000
652531.000000
653281.000000
654040.000000
654807.000000
655589.000000
656355.000000
657105.000000
657901.000000
658750.000000
659639.000000
660481.000000
661267.000000
662070.000000
662889.000000
663717.000000
664497.000000
665240.000000
666012.000000
666811.000000
667635.000000
668450.000000
669219.000000
669984.000000
670781.000000
671608.000000
672428.000000
673216.000000
673946.000000
674689.000000
675465.000000
676292.000000
677131.000000
677964.000000
678761.000000
679581.000000
680416.000000
681250.000000
682079.000000
682880.000000
683671.000000
684498.000000
685363.000000
686214.000000
687075.000000
687886.000000
688666.000000
689448.000000
690255.000000
691081.000000
691914.000000
692751.000000
693586.000000
694469.000000
695348.000000
696205.000000
697013.000000
697815.000000
698632.000000
699453.000000
700261.000000
701030.000000
701813.000000
702627.000000
703473.000000
704331.000000
705172.000000
705969.000000
706781.000000
707641.000000
708526.000000
709386.000000
710196.000000
711007.000000
711816.000000
712615.000000
713378.000000
714130.000000
714912.000000
715740.000000
716588.000000
717419.000000
718224.000000
719055.000000
719896.000000
720736.000000
721543.000000
722302.000000
723049.000000
723817.000000
724640.000000
725498.000000
726327.000000
727152.000000
728006.000000
728863.000000
729687.000000
730476.000000
731281.000000
732112.000000
732936.000000
733734.000000
734555.000000
735402.000000
736270.000000
737104.000000
737907.000000
738734.000000
739538.000000
740348.000000
741143.000000
741898.000000
742684.000000
743529.000000
744430.000000
745309.000000
746150.000000
747024.000000
747919.000000
748784.000000
749590.000000
750337.000000
751073.000000
751824.000000
752621.000000
753493.000000
754374.000000
755268.000000
756172.000000
757109.000000
758012.000000
758841.000000
759665.000000
760502.000000
761328.000000
762109.000000
762856.000000
763625.000000
764401.000000
765194.000000
766000.000000
766801.000000
767623.000000
768491.000000
769374.000000
770224.000000
771030.000000
771840.000000
772683.000000
773526.000000
774352.000000
775145.000000
775933.000000
776763.000000
777591.000000
778430.000000
779218.000000
779985.000000
780765.000000
781562.000000
782370.000000
783164.000000
783948.000000
784769.000000
785612.000000
786459.000000
787259.000000
788009.000000
788751.000000
789516.000000
790296.000000
791077.000000
791834.000000
792614.000000
793429.000000
794232.000000
795013.000000
795758.000000
796517.000000
797303.000000
798108.000000
798890.000000
799657.000000
800454.000000
801269.000000
802090.000000
802880.000000
803617.000000
804331.000000
805076.000000
805854.000000
806666.000000
807489.000000
808283.000000
809096.000000
809926.000000
810762.000000
811574.000000
812345.000000
813111.000000
813897.000000
814691.000000
815469.000000
816244.000000
817060.000000
817911.000000
818760.000000
819575.000000
820402.000000
821241.000000
822085.000000
822890.000000
823664.000000
824463.000000
825268.000000
826083.000000
826893.000000
827665.000000
828450.000000
829329.000000
830308.000000
831306.000000
832275.000000
833121.000000
833923.000000
834710.000000
835518.000000
836332.000000
837159.000000
837967.000000
838738.000000
839492.000000
840292.000000
841146.000000
842025.000000
842871.000000
843679.000000
844506.000000
845353.000000
846205.000000
847034.000000
847846.000000
848677.000000
849518.000000
850353.000000
851154.000000
851965.000000
852836.000000
853732.000000
854619.000000
855441.000000
856266.000000
857126.000000
857990.000000
858828.000000
859624.000000
860412.000000
861198.000000
861992.000000
862764.000000
863532.000000
864359.000000
865256.000000
866212.000000
867117.000000
867943.000000
868775.000000
869641.000000
870507.000000
871339.000000
872135.000000
872930.000000
873753.000000
874583.000000
875400.000000
876189.000000
876951.000000
877730.000000
878586.000000
879490.000000
880402.000000
881261.000000
882066.000000
882869.000000
883695.000000
884532.000000
885373.000000
886185.000000
886973.000000
887772.000000
888650.000000
889584.000000
890520.000000
891428.000000
892290.000000
893160.000000
894032.000000
894865.000000
895668.000000
896476.000000
897299.000000
898162.000000
899006.000000
899822.000000
900644.000000
901507.000000
902387.000000
903221.000000
904010.000000
904778.000000
905580.000000
906411.000000
907293.000000
908105.000000
