ECG (ms)
687.000000
1463.000000
2210.000000
2941.000000
3665.000000
4374.000000
5069.000000
5761.000000
6458.000000
7180.000000
7938.000000
8689.000000
9426.000000
10142.000000
10865.000000
11624.000000
12450.000000
13349.000000
14220.000000
15029.000000
15834.000000
16585.000000
17306.000000
18018.000000
18740.000000
19507.000000
20312.000000
21040.000000
21781.000000
22552.000000
23315.000000
24048.000000
24773.000000
25496.000000
26230.000000
26991.000000
27799.000000
28657.000000
29486.000000
30253.000000
30984.000000
31696.000000
32397.000000
33116.000000
33876.000000
34708.000000
35568.000000
36435.000000
37272.000000
38083.000000
38843.000000
39572.000000
40295.000000
41048.000000
41877.000000
42730.000000
43601.000000
44463.000000
45304.000000
46076.000000
46805.000000
47500.000000
48182.000000
48872.000000
49638.000000
50522.000000
51431.000000
52348.000000
53178.000000
53930.000000
54739.000000
55588.000000
56386.000000
57156.000000
57907.000000
58661.000000
59424.000000
60209.000000
61021.000000
61859.000000
62665.000000
63438.000000
64172.000000
64881.000000
65579.000000
66306.000000
67092.000000
67911.000000
68758.000000
69600.000000
70433.000000
71249.000000
72033.000000
72790.000000
73512.000000
74208.000000
74918.000000
75682.000000
76540.000000
77483.000000
78455.000000
79436.000000
80309.000000
81090.000000
81828.000000
82538.000000
83239.000000
83951.000000
84712.000000
85658.000000
86732.000000
87761.000000
88727.000000
89597.000000
90409.000000
91184.000000
91931.000000
92660.000000
93379.000000
94143.000000
94989.000000
95825.000000
96668.000000
97539.000000
98381.000000
99181.000000
99942.000000
100660.000000
101367.000000
102108.000000
102908.000000
103747.000000
104632.000000
105469.000000
106215.000000
106931.000000
107674.000000
108417.000000
109149.000000
109855.000000
110550.000000
111243.000000
111946.000000
112693.000000
113471.000000
114291.000000
115128.000000
115949.000000
116733.000000
117474.000000
118181.000000
118877.000000
119588.000000
120327.000000
121096.000000
121877.000000
122649.000000
123406.000000
124171.000000
124927.000000
125675.000000
126399.000000
127100.000000
127790.000000
128473.000000
129151.000000
129839.000000
130540.000000
131274.000000
132045.000000
132844.000000
133641.000000
134423.000000
135173.000000
135890.000000
136590.000000
137276.000000
137967.000000
138687.000000
139450.000000
140251.000000
141051.000000
141853.000000
142646.000000
143434.000000
144226.000000
144989.000000
145716.000000
146410.000000
147097.000000
147786.000000
148503.000000
149283.000000
150116.000000
150954.000000
151757.000000
152533.000000
153307.000000
154096.000000
154882.000000
155692.000000
156488.000000
157254.000000
157977.000000
158679.000000
159370.000000
160085.000000
160846.000000
161705.000000
162606.000000
163493.000000
164291.000000
165049.000000
165761.000000
166447.000000
167152.000000
167903.000000
168706.000000
169515.000000
170327.000000
171140.000000
171885.000000
172587.000000
173256.000000
173913.000000
174589.000000
175338.000000
176222.000000
177107.000000
177953.000000
178738.000000
179486.000000
180196.000000
180887.000000
181572.000000
182291.000000
183051.000000
183832.000000
184626.000000
185409.000000
186169.000000
186913.000000
187633.000000
188325.000000
189004.000000
189689.000000
190388.000000
191112.000000
191856.000000
192609.000000
193321.000000
194008.000000
194740.000000
195514.000000
196284.000000
197023.000000
197744.000000
198465.000000
199212.000000
199994.000000
200758.000000
201517.000000
202272.000000
203002.000000
203709.000000
204393.000000
205084.000000
205820.000000
206618.000000
207442.000000
208238.000000
208995.000000
209723.000000
210427.000000
211120.000000
211807.000000
212477.000000
213154.000000
213895.000000
214696.000000
215546.000000
216399.000000
217245.000000
218061.000000
218839.000000
219574.000000
220277.000000
220958.000000
221636.000000
222341.000000
223082.000000
223841.000000
224581.000000
225310.000000
226025.000000
226720.000000
227404.000000
228080.000000
228749.000000
229418.000000
230087.000000
230766.000000
231458.000000
232166.000000
232893.000000
233629.000000
234366.000000
235088.000000
235785.000000
236458.000000
237115.000000
237757.000000
238395.000000
239038.000000
239696.000000
240384.000000
241122.000000
241884.000000
242676.000000
243452.000000
244205.000000
244915.000000
245595.000000
246257.000000
246916.000000
247585.000000
248293.000000
249025.000000
249773.000000
250517.000000
251244.000000
251955.000000
252654.000000
253348.000000
254054.000000
254778.000000
255532.000000
256342.000000
257157.000000
257967.000000
258770.000000
259514.000000
260216.000000
260907.000000
261611.000000
262356.000000
263151.000000
263974.000000
264822.000000
265628.000000
266396.000000
267126.000000
267841.000000
268560.000000
269310.000000
270092.000000
270876.000000
271686.000000
272490.000000
273301.000000
274095.000000
274850.000000
275568.000000
276255.000000
276929.000000
277598.000000
278281.000000
278978.000000
279698.000000
280430.000000
281172.000000
281930.000000
282681.000000
283411.000000
284115.000000
284793.000000
285460.000000
286129.000000
286827.000000
287565.000000
288333.000000
289119.000000
289894.000000
290644.000000
291364.000000
292057.000000
292727.000000
293383.000000
294035.000000
294685.000000
295337.000000
296005.000000
296740.000000
297589.000000
298470.000000
299335.000000
300163.000000
300961.000000
301746.000000
302505.000000
303223.000000
303919.000000
304593.000000
305264.000000
305948.000000
306644.000000
307356.000000
308082.000000
308827.000000
309568.000000
310290.000000
310996.000000
311675.000000
312336.000000
312992.000000
313661.000000
314355.000000
315152.000000
316021.000000
316869.000000
317671.000000
318419.000000
319098.000000
319759.000000
320434.000000
321143.000000
321871.000000
322589.000000
323293.000000
323995.000000
324718.000000
325473.000000
326268.000000
327077.000000
327860.000000
328607.000000
329316.000000
329996.000000
330678.000000
331400.000000
332191.000000
333043.000000
333916.000000
334775.000000
335574.000000
336333.000000
337054.000000
337749.000000
338440.000000
339143.000000
339871.000000
340624.000000
341377.000000
342129.000000
342867.000000
343581.000000
344284.000000
345005.000000
345779.000000
346598.000000
347425.000000
348247.000000
349050.000000
349818.000000
350561.000000
351293.000000
352049.000000
352815.000000
353605.000000
354424.000000
355209.000000
355982.000000
356725.000000
357454.000000
358192.000000
358936.000000
359700.000000
360464.000000
361236.000000
361994.000000
362724.000000
363442.000000
364143.000000
364846.000000
365578.000000
366344.000000
367180.000000
368029.000000
368848.000000
369627.000000
370373.000000
371090.000000
371792.000000
372500.000000
373259.000000
374087.000000
374917.000000
375744.000000
376547.000000
377318.000000
378073.000000
378837.000000
379619.000000
380395.000000
381163.000000
381905.000000
382620.000000
383324.000000
384037.000000
384811.000000
385623.000000
386441.000000
387239.000000
388004.000000
388734.000000
389450.000000
390184.000000
390925.000000
391669.000000
392418.000000
393157.000000
393877.000000
394581.000000
395279.000000
395987.000000
396714.000000
397476.000000
398228.000000
398972.000000
399694.000000
400406.000000
401090.000000
401754.000000
402400.000000
403042.000000
403705.000000
404488.000000
405313.000000
406121.000000
406922.000000
407699.000000
408453.000000
409184.000000
409893.000000
410576.000000
411242.000000
411902.000000
412559.000000
413220.000000
413880.000000
414531.000000
415161.000000
415786.000000
416414.000000
417049.000000
417680.000000
418304.000000
418918.000000
419523.000000
420123.000000
420724.000000
421338.000000
421984.000000
422673.000000
423411.000000
424203.000000
424998.000000
425765.000000
426485.000000
427162.000000
427815.000000
428469.000000
429144.000000
429852.000000
430629.000000
431468.000000
432331.000000
433149.000000
433915.000000
434646.000000
435359.000000
436071.000000
436817.000000
437593.000000
438410.000000
439207.000000
439969.000000
440696.000000
441403.000000
442097.000000
442793.000000
443515.000000
444304.000000
445159.000000
446039.000000
446905.000000
447695.000000
448442.000000
449146.000000
449824.000000
450493.000000
451177.000000
451890.000000
452657.000000
453449.000000
454265.000000
455048.000000
455800.000000
456524.000000
457231.000000
457942.000000
458668.000000
459424.000000
460205.000000
460997.000000
461750.000000
462469.000000
463157.000000
463820.000000
464476.000000
465137.000000
465837.000000
466603.000000
467466.000000
468343.000000
469172.000000
469961.000000
470706.000000
471422.000000
472131.000000
472870.000000
473631.000000
474417.000000
475196.000000
475961.000000
476694.000000
477411.000000
478154.000000
478923.000000
479699.000000
480492.000000
481299.000000
482064.000000
482798.000000
483513.000000
484247.000000
485003.000000
485780.000000
486564.000000
487342.000000
488119.000000
488895.000000
489685.000000
490465.000000
491247.000000
492048.000000
492836.000000
493609.000000
494350.000000
495068.000000
495786.000000
496522.000000
497262.000000
498051.000000
498987.000000
499883.000000
500741.000000
501557.000000
502314.000000
503039.000000
503732.000000
504398.000000
505059.000000
505741.000000
506471.000000
507239.000000
507988.000000
508723.000000
509444.000000
510150.000000
510832.000000
511497.000000
512151.000000
512803.000000
513468.000000
514155.000000
514855.000000
515588.000000
516353.000000
517098.000000
517823.000000
518522.000000
519205.000000
519897.000000
520608.000000
521323.000000
522038.000000
522753.000000
523451.000000
524136.000000
524807.000000
525481.000000
526170.000000
526895.000000
527664.000000
528475.000000
529253.000000
530003.000000
530727.000000
531434.000000
532137.000000
532857.000000
533611.000000
534395.000000
535183.000000
535948.000000
536687.000000
537416.000000
538134.000000
538881.000000
539647.000000
540466.000000
541284.000000
542077.000000
542852.000000
543595.000000
544318.000000
545035.000000
545768.000000
546538.000000
547327.000000
548090.000000
548838.000000
549576.000000
550293.000000
551005.000000
551726.000000
552455.000000
553144.000000
553821.000000
554518.000000
555246.000000
555995.000000
556751.000000
557492.000000
558218.000000
558954.000000
559708.000000
560496.000000
561302.000000
562103.000000
562861.000000
563584.000000
564276.000000
564958.000000
565666.000000
566411.000000
567191.000000
567973.000000
568730.000000
569464.000000
570196.000000
570953.000000
571751.000000
572579.000000
573388.000000
574159.000000
574910.000000
575668.000000
576463.000000
577275.000000
578088.000000
578877.000000
579646.000000
580398.000000
581128.000000
581849.000000
582591.000000
583348.000000
584125.000000
584934.000000
585705.000000
586465.000000
587217.000000
587968.000000
588738.000000
589534.000000
590312.000000
591078.000000
591825.000000
592589.000000
593349.000000
594121.000000
594893.000000
595669.000000
596441.000000
597213.000000
597989.000000
598783.000000
599610.000000
600442.000000
601255.000000
602034.000000
602792.000000
603558.000000
604338.000000
605159.000000
606009.000000
606881.000000
607743.000000
608542.000000
609309.000000
610062.000000
610850.000000
611693.000000
612576.000000
613435.000000
614231.000000
614990.000000
615720.000000
616463.000000
617230.000000
618046.000000
618912.000000
619725.000000
620501.000000
621233.000000
621930.000000
622606.000000
623290.000000
623998.000000
624795.000000
625684.000000
626602.000000
627519.000000
628344.000000
629125.000000
629885.000000
630625.000000
631378.000000
632177.000000
633030.000000
633878.000000
634704.000000
635503.000000
636275.000000
637079.000000
637938.000000
638818.000000
639718.000000
640544.000000
641332.000000
642095.000000
642843.000000
643604.000000
644390.000000
645205.000000
645988.000000
646705.000000
647442.000000
648168.000000
648886.000000
649632.000000
650455.000000
651327.000000
652205.000000
653071.000000
653927.000000
654733.000000
655498.000000
656227.000000
656949.000000
657696.000000
658479.000000
659300.000000
660132.000000
660941.000000
661724.000000
662496.000000
663260.000000
664054.000000
664845.000000
665638.000000
666412.000000
667161.000000
667890.000000
668608.000000
669352.000000
670158.000000
671060.000000
671952.000000
672791.000000
673584.000000
674343.000000
675104.000000
675882.000000
676670.000000
677485.000000
678316.000000
679149.000000
679965.000000
680755.000000
681507.000000
682242.000000
682977.000000
683733.000000
684531.000000
685355.000000
686192.000000
687022.000000
687831.000000
688613.000000
689373.000000
690110.000000
690840.000000
691625.000000
692510.000000
693452.000000
694345.000000
695181.000000
695981.000000
696745.000000
697482.000000
698196.000000
698905.000000
699628.000000
700394.000000
701187.000000
701982.000000
702754.000000
703498.000000
704228.000000
704942.000000
705636.000000
706325.000000
707014.000000
707720.000000
708459.000000
709238.000000
710029.000000
710796.000000
711541.000000
712273.000000
712985.000000
713701.000000
714439.000000
715207.000000
715962.000000
716657.000000
717347.000000
718062.000000
718809.000000
719564.000000
720303.000000
721044.000000
721803.000000
722594.000000
723428.000000
724241.000000
725031.000000
725778.000000
726523.000000
727285.000000
728150.000000
729141.000000
730091.000000
730947.000000
731789.000000
732639.000000
733481.000000
734318.000000
735124.000000
735892.000000
736631.000000
737366.000000
738115.000000
738932.000000
739816.000000
740726.000000
741619.000000
742459.000000
743256.000000
744010.000000
744772.000000
745533.000000
746345.000000
747212.000000
748100.000000
748930.000000
749720.000000
750471.000000
751193.000000
751922.000000
752689.000000
753529.000000
754385.000000
755227.000000
756074.000000
756884.000000
757656.000000
758407.000000
759134.000000
759854.000000
760596.000000
761438.000000
762330.000000
763230.000000
764114.000000
764951.000000
765751.000000
766522.000000
767286.000000
768101.000000
768960.000000
769899.000000
770838.000000
771681.000000
772470.000000
773223.000000
773955.000000
774680.000000
775434.000000
776285.000000
777401.000000
778557.000000
779574.000000
780451.000000
781305.000000
782175.000000
783027.000000
783864.000000
784725.000000
785577.000000
786384.000000
787150.000000
787880.000000
788596.000000
789347.000000
790169.000000
791029.000000
791960.000000
792953.000000
793862.000000
794693.000000
795476.000000
796226.000000
796950.000000
797676.000000
798438.000000
799279.000000
800169.000000
801083.000000
801924.000000
802702.000000
803439.000000
804179.000000
804980.000000
805912.000000
807070.000000
808125.000000
809020.000000
809845.000000
810642.000000
811441.000000
812270.000000
813094.000000
813918.000000
814727.000000
815518.000000
816295.000000
817053.000000
817794.000000
818551.000000
819330.000000
820140.000000
820947.000000
821721.000000
822460.000000
823185.000000
823898.000000
824596.000000
825284.000000
825971.000000
826680.000000
827565.000000
828777.000000
829847.000000
830789.000000
831626.000000
832392.000000
833120.000000
833819.000000
834512.000000
835227.000000
836038.000000
836930.000000
837861.000000
838736.000000
839544.000000
840300.000000
841039.000000
841775.000000
842520.000000
843259.000000
844003.000000
844736.000000
845450.000000
846158.000000
846863.000000
847586.000000
848354.000000
849187.000000
850011.000000
850814.000000
851589.000000
852339.000000
853062.000000
853780.000000
854533.000000
855337.000000
856192.000000
857059.000000
857937.000000
858784.000000
859599.000000
860382.000000
861151.000000
861951.000000
862793.000000
863671.000000
864493.000000
865282.000000
866031.000000
866750.000000
867451.000000
868154.000000
869070.000000
870268.000000
871260.000000
872204.000000
873094.000000
873945.000000
874783.000000
875620.000000
876412.000000
877185.000000
877946.000000
878711.000000
879505.000000
880288.000000
881054.000000
881811.000000
882545.000000
883252.000000
883938.000000
884613.000000
885302.000000
886014.000000
886781.000000
887560.000000
888339.000000
889127.000000
889925.000000
890701.000000
891472.000000
892213.000000
892941.000000
893687.000000
894485.000000
895314.000000
896167.000000
896988.000000
897800.000000
898575.000000
899329.000000
900114.000000
900961.000000
901886.000000
902785.000000
903645.000000
904453.000000
905223.000000
