ECG (ms)
547.000000
1219.000000
1881.000000
2551.000000
3222.000000
3888.000000
4558.000000
5248.000000
5989.000000
6727.000000
7458.000000
8156.000000
8836.000000
9507.000000
10182.000000
10856.000000
11509.000000
12168.000000
12829.000000
13488.000000
14182.000000
14923.000000
15662.000000
16370.000000
17101.000000
17823.000000
18521.000000
19196.000000
19870.000000
20538.000000
21191.000000
21843.000000
22512.000000
23193.000000
23892.000000
24587.000000
25321.000000
26075.000000
26811.000000
27526.000000
28240.000000
28955.000000
29663.000000
30344.000000
31016.000000
31700.000000
32400.000000
33092.000000
33792.000000
34489.000000
35168.000000
35848.000000
36552.000000
37267.000000
37963.000000
38646.000000
39334.000000
40031.000000
40726.000000
41414.000000
42142.000000
42883.000000
43597.000000
44297.000000
44994.000000
45689.000000
46391.000000
47098.000000
47794.000000
48481.000000
49155.000000
49821.000000
50500.000000
51208.000000
51910.000000
52592.000000
53298.000000
54006.000000
54715.000000
55417.000000
56109.000000
56790.000000
57455.000000
58118.000000
58795.000000
59484.000000
60170.000000
60863.000000
61586.000000
62297.000000
62993.000000
63693.000000
64384.000000
65060.000000
65725.000000
66391.000000
67052.000000
67715.000000
68397.000000
69139.000000
69885.000000
70636.000000
71405.000000
72154.000000
72880.000000
73586.000000
74263.000000
74930.000000
75597.000000
76268.000000
76937.000000
77633.000000
78359.000000
79062.000000
79763.000000
80473.000000
81215.000000
81925.000000
82613.000000
83296.000000
83970.000000
84635.000000
85292.000000
85956.000000
86660.000000
87365.000000
88061.000000
88782.000000
89517.000000
90213.000000
90892.000000
91571.000000
92251.000000
92926.000000
93597.000000
94262.000000
94919.000000
95588.000000
96263.000000
96932.000000
97594.000000
98259.000000
98927.000000
99587.000000
100262.000000
100952.000000
101635.000000
102304.000000
102971.000000
103658.000000
104361.000000
105069.000000
105759.000000
106437.000000
107103.000000
107762.000000
108437.000000
109175.000000
109906.000000
110618.000000
111328.000000
112053.000000
112780.000000
113495.000000
114178.000000
114855.000000
115546.000000
116237.000000
116925.000000
117604.000000
118274.000000
118961.000000
119658.000000
120346.000000
121030.000000
121713.000000
122412.000000
123094.000000
123759.000000
124424.000000
125110.000000
125798.000000
126504.000000
127299.000000
128126.000000
128905.000000
129631.000000
130339.000000
131014.000000
131675.000000
132323.000000
132975.000000
133636.000000
134367.000000
135329.000000
136193.000000
137019.000000
137792.000000
138513.000000
139227.000000
139932.000000
140625.000000
141304.000000
141988.000000
142675.000000
143340.000000
143996.000000
144657.000000
145315.000000
145969.000000
146616.000000
147272.000000
147944.000000
148606.000000
149262.000000
149940.000000
150628.000000
151312.000000
151999.000000
152694.000000
153372.000000
154048.000000
154745.000000
155453.000000
156144.000000
156821.000000
157499.000000
158170.000000
158835.000000
159526.000000
160225.000000
160915.000000
161605.000000
162306.000000
163012.000000
163706.000000
164408.000000
165120.000000
165797.000000
166465.000000
167143.000000
167838.000000
168541.000000
169299.000000
170089.000000
170881.000000
171664.000000
172419.000000
173137.000000
173853.000000
174555.000000
175246.000000
175927.000000
176615.000000
177325.000000
178024.000000
178711.000000
179398.000000
180076.000000
180768.000000
181520.000000
182255.000000
182967.000000
183691.000000
184416.000000
185111.000000
185804.000000
186518.000000
187222.000000
187912.000000
188609.000000
189322.000000
190015.000000
190696.000000
191380.000000
192063.000000
192748.000000
193444.000000
194137.000000
194822.000000
195525.000000
196220.000000
196913.000000
197584.000000
198266.000000
198958.000000
199641.000000
200304.000000
200967.000000
201643.000000
202325.000000
202997.000000
203655.000000
204313.000000
204987.000000
205682.000000
206357.000000
207021.000000
207695.000000
208380.000000
209067.000000
209752.000000
210483.000000
211240.000000
211972.000000
212688.000000
213401.000000
214097.000000
214787.000000
215479.000000
216163.000000
216830.000000
217494.000000
218157.000000
218824.000000
219492.000000
220165.000000
220848.000000
221510.000000
222167.000000
222823.000000
223488.000000
224149.000000
224821.000000
225521.000000
226228.000000
226932.000000
227617.000000
228297.000000
228977.000000
229668.000000
230351.000000
231022.000000
231698.000000
232388.000000
233077.000000
233759.000000
234429.000000
235105.000000
235787.000000
236465.000000
237165.000000
237862.000000
238554.000000
239244.000000
239934.000000
240611.000000
241287.000000
241969.000000
242687.000000
243390.000000
244083.000000
244784.000000
245481.000000
246164.000000
246851.000000
247558.000000
248268.000000
248976.000000
249698.000000
250443.000000
251172.000000
251893.000000
252611.000000
253314.000000
253997.000000
254680.000000
255346.000000
256007.000000
256675.000000
257353.000000
258023.000000
258702.000000
259435.000000
260177.000000
260890.000000
261595.000000
262300.000000
262995.000000
263662.000000
264310.000000
264942.000000
265569.000000
266223.000000
266972.000000
267787.000000
268692.000000
269560.000000
270381.000000
271159.000000
271880.000000
272586.000000
273277.000000
273954.000000
274625.000000
275306.000000
275985.000000
276658.000000
277340.000000
278016.000000
278675.000000
279334.000000
280016.000000
280737.000000
281414.000000
282084.000000
282745.000000
283395.000000
284030.000000
284655.000000
285276.000000
285898.000000
286546.000000
287404.000000
288241.000000
289059.000000
289896.000000
290673.000000
291424.000000
292148.000000
292843.000000
293537.000000
294228.000000
294918.000000
295621.000000
296310.000000
296981.000000
297663.000000
298353.000000
299032.000000
299717.000000
300416.000000
301125.000000
301815.000000
302518.000000
303216.000000
303902.000000
304587.000000
305253.000000
305918.000000
306593.000000
307292.000000
307978.000000
308648.000000
309320.000000
310002.000000
310687.000000
311364.000000
312027.000000
312678.000000
313330.000000
313981.000000
314622.000000
315265.000000
315942.000000
316683.000000
317399.000000
318109.000000
318839.000000
319553.000000
320254.000000
320947.000000
321641.000000
322318.000000
322991.000000
323667.000000
324336.000000
325003.000000
325675.000000
326342.000000
327004.000000
327660.000000
328318.000000
328986.000000
329652.000000
330326.000000
331013.000000
331691.000000
332370.000000
333066.000000
333778.000000
334469.000000
335138.000000
335806.000000
336468.000000
337118.000000
337768.000000
338435.000000
339118.000000
339790.000000
340457.000000
341136.000000
341824.000000
342503.000000
343182.000000
343878.000000
344582.000000
345265.000000
345940.000000
346621.000000
347297.000000
347966.000000
348646.000000
349334.000000
350017.000000
350702.000000
351402.000000
352128.000000
352819.000000
353519.000000
354215.000000
354893.000000
355557.000000
356214.000000
356869.000000
357526.000000
358181.000000
358892.000000
359664.000000
360466.000000
361239.000000
362012.000000
362752.000000
363458.000000
364146.000000
364810.000000
365465.000000
366120.000000
366795.000000
367491.000000
368185.000000
368912.000000
369606.000000
370291.000000
370969.000000
371640.000000
372316.000000
372981.000000
373656.000000
374338.000000
375017.000000
375684.000000
376359.000000
377032.000000
377685.000000
378337.000000
378997.000000
379679.000000
380352.000000
381023.000000
381698.000000
382373.000000
383037.000000
383712.000000
384398.000000
385091.000000
385780.000000
386488.000000
387190.000000
387875.000000
388543.000000
389220.000000
389895.000000
390569.000000
391243.000000
391928.000000
392601.000000
393260.000000
393928.000000
394624.000000
395332.000000
395999.000000
396649.000000
397286.000000
397904.000000
398530.000000
399166.000000
399806.000000
400448.000000
401098.000000
401757.000000
402426.000000
403146.000000
403869.000000
404595.000000
405334.000000
406048.000000
406758.000000
407459.000000
408164.000000
408877.000000
409582.000000
410270.000000
410967.000000
411679.000000
412364.000000
413012.000000
413644.000000
414300.000000
414988.000000
415709.000000
416407.000000
417105.000000
417812.000000
418516.000000
419212.000000
419911.000000
420617.000000
421327.000000
422030.000000
422724.000000
423424.000000
424115.000000
424790.000000
425444.000000
426087.000000
426736.000000
427403.000000
428064.000000
428726.000000
429398.000000
430088.000000
430769.000000
431453.000000
432151.000000
432842.000000
433529.000000
434214.000000
434890.000000
435558.000000
436218.000000
436884.000000
437561.000000
438242.000000
438941.000000
439646.000000
440342.000000
441035.000000
441734.000000
442421.000000
443096.000000
443772.000000
444459.000000
445143.000000
445826.000000
446517.000000
447210.000000
447898.000000
448580.000000
449277.000000
449988.000000
450682.000000
451389.000000
452118.000000
452811.000000
453490.000000
454152.000000
454801.000000
455432.000000
456052.000000
456687.000000
457373.000000
458167.000000
459094.000000
459959.000000
460800.000000
461584.000000
462345.000000
463078.000000
463773.000000
464461.000000
465135.000000
465806.000000
466459.000000
467119.000000
467804.000000
468542.000000
469244.000000
469949.000000
470643.000000
471329.000000
471998.000000
472667.000000
473346.000000
474015.000000
474677.000000
475341.000000
476007.000000
476666.000000
477332.000000
478004.000000
478665.000000
479313.000000
479954.000000
480602.000000
481246.000000
481882.000000
482551.000000
483320.000000
484146.000000
484962.000000
485744.000000
486555.000000
487364.000000
488107.000000
488815.000000
489514.000000
490211.000000
490889.000000
491577.000000
492260.000000
492931.000000
493594.000000
494255.000000
494913.000000
495566.000000
496228.000000
496901.000000
497569.000000
498224.000000
498885.000000
499546.000000
500205.000000
500859.000000
501517.000000
502177.000000
502828.000000
503475.000000
504130.000000
504786.000000
505438.000000
506115.000000
506804.000000
507489.000000
508168.000000
508851.000000
509525.000000
510192.000000
510871.000000
511559.000000
512234.000000
512897.000000
513566.000000
514245.000000
514911.000000
515566.000000
516236.000000
516910.000000
517576.000000
518238.000000
518908.000000
519578.000000
520254.000000
520939.000000
521617.000000
522277.000000
522939.000000
523598.000000
524251.000000
524921.000000
525579.000000
526243.000000
526929.000000
527615.000000
528304.000000
528987.000000
529663.000000
530327.000000
530996.000000
531657.000000
532307.000000
532953.000000
533614.000000
534305.000000
534999.000000
535683.000000
536374.000000
537060.000000
537737.000000
538423.000000
539094.000000
539757.000000
540423.000000
541090.000000
541751.000000
542431.000000
543123.000000
543807.000000
544497.000000
545176.000000
545863.000000
546555.000000
547245.000000
547918.000000
548592.000000
549280.000000
549973.000000
550658.000000
551353.000000
552054.000000
552742.000000
553415.000000
554081.000000
554758.000000
555426.000000
556088.000000
556748.000000
557411.000000
558078.000000
558738.000000
559415.000000
560148.000000
560882.000000
561603.000000
562341.000000
563050.000000
563782.000000
564466.000000
565145.000000
565817.000000
566467.000000
567103.000000
567742.000000
568389.000000
569100.000000
569814.000000
570534.000000
571269.000000
572029.000000
572763.000000
573470.000000
574168.000000
574842.000000
575500.000000
576159.000000
576822.000000
577475.000000
578120.000000
578773.000000
579488.000000
580248.000000
581014.000000
581795.000000
582579.000000
583332.000000
584064.000000
584765.000000
585440.000000
586107.000000
586776.000000
587452.000000
588118.000000
588763.000000
589403.000000
590043.000000
590695.000000
591354.000000
592007.000000
592665.000000
593330.000000
593994.000000
594658.000000
595322.000000
595981.000000
596645.000000
597318.000000
597985.000000
598649.000000
599324.000000
599996.000000
600655.000000
601324.000000
602008.000000
602696.000000
603378.000000
604072.000000
604773.000000
605446.000000
606122.000000
606801.000000
607465.000000
608113.000000
608763.000000
609438.000000
610142.000000
610897.000000
611702.000000
612583.000000
613431.000000
614202.000000
614939.000000
615647.000000
616355.000000
617055.000000
617749.000000
618421.000000
619086.000000
619758.000000
620443.000000
621124.000000
621801.000000
622477.000000
623142.000000
623804.000000
624456.000000
625101.000000
625725.000000
626348.000000
626972.000000
627598.000000
628233.000000
628875.000000
629516.000000
630144.000000
630772.000000
631403.000000
632031.000000
632653.000000
633288.000000
633978.000000
634692.000000
635443.000000
636290.000000
637084.000000
637844.000000
638589.000000
639306.000000
640011.000000
640710.000000
641398.000000
642103.000000
642804.000000
643490.000000
644182.000000
644891.000000
645601.000000
646297.000000
646987.000000
647692.000000
648384.000000
649069.000000
649773.000000
650478.000000
651182.000000
651918.000000
652620.000000
653330.000000
654043.000000
654758.000000
655455.000000
656160.000000
656870.000000
657559.000000
658235.000000
658912.000000
659591.000000
660272.000000
660988.000000
661736.000000
662474.000000
663242.000000
664046.000000
664818.000000
665562.000000
666288.000000
666989.000000
667664.000000
668328.000000
668986.000000
669635.000000
670285.000000
670958.000000
671650.000000
672339.000000
673062.000000
673750.000000
674446.000000
675143.000000
675826.000000
676500.000000
677165.000000
677836.000000
678496.000000
679156.000000
679825.000000
680496.000000
681165.000000
681850.000000
682539.000000
683225.000000
683943.000000
684652.000000
685351.000000
686060.000000
686768.000000
687469.000000
688181.000000
688884.000000
689590.000000
690277.000000
690939.000000
691598.000000
692255.000000
692910.000000
693557.000000
694227.000000
694947.000000
695652.000000
696361.000000
697103.000000
697818.000000
698507.000000
699185.000000
699864.000000
700523.000000
701174.000000
701826.000000
702483.000000
703141.000000
703811.000000
704504.000000
705188.000000
705853.000000
706511.000000
707169.000000
707822.000000
708464.000000
709115.000000
709769.000000
710422.000000
711100.000000
711811.000000
712500.000000
713197.000000
713904.000000
714593.000000
715275.000000
715959.000000
716635.000000
717306.000000
717986.000000
718667.000000
719344.000000
720023.000000
720701.000000
721368.000000
722027.000000
722686.000000
723337.000000
723990.000000
724649.000000
725320.000000
726001.000000
726670.000000
727355.000000
728048.000000
728727.000000
729406.000000
730087.000000
730769.000000
731442.000000
732109.000000
732774.000000
733433.000000
734092.000000
734774.000000
735457.000000
736122.000000
736783.000000
737444.000000
738110.000000
738762.000000
739422.000000
740110.000000
740833.000000
741524.000000
742207.000000
742893.000000
743567.000000
744229.000000
744903.000000
745592.000000
746281.000000
746988.000000
747702.000000
748406.000000
749102.000000
749809.000000
750512.000000
751203.000000
751890.000000
752556.000000
753213.000000
753874.000000
754540.000000
755219.000000
755905.000000
756664.000000
757481.000000
758269.000000
759026.000000
759765.000000
760458.000000
761122.000000
761764.000000
762398.000000
763043.000000
763730.000000
764487.000000
765360.000000
766257.000000
767061.000000
767820.000000
768547.000000
769237.000000
769915.000000
770590.000000
771274.000000
771940.000000
772600.000000
773259.000000
773911.000000
774563.000000
775219.000000
775880.000000
776539.000000
777202.000000
777870.000000
778527.000000
779196.000000
779873.000000
780544.000000
781210.000000
781875.000000
782546.000000
783209.000000
783892.000000
784589.000000
785275.000000
785947.000000
786628.000000
787312.000000
787991.000000
788663.000000
789346.000000
790039.000000
790720.000000
791396.000000
792085.000000
792779.000000
793459.000000
794125.000000
794792.000000
795458.000000
796115.000000
796773.000000
797435.000000
798100.000000
798761.000000
799441.000000
800169.000000
800886.000000
801596.000000
802363.000000
803114.000000
803869.000000
804582.000000
805288.000000
805976.000000
806647.000000
807299.000000
807946.000000
808603.000000
809261.000000
809908.000000
810534.000000
811163.000000
811802.000000
812445.000000
813081.000000
813729.000000
814403.000000
815091.000000
815780.000000
816454.000000
817129.000000
817817.000000
818506.000000
819186.000000
819879.000000
820604.000000
821333.000000
822038.000000
822725.000000
823402.000000
824090.000000
824773.000000
825451.000000
826146.000000
826902.000000
827664.000000
828406.000000
829160.000000
829916.000000
830656.000000
831369.000000
832068.000000
832761.000000
833437.000000
834098.000000
834752.000000
835426.000000
836129.000000
836874.000000
837581.000000
838278.000000
838974.000000
839682.000000
840385.000000
841075.000000
841772.000000
842487.000000
843188.000000
843877.000000
844577.000000
845284.000000
845990.000000
846673.000000
847371.000000
848086.000000
848792.000000
849483.000000
850180.000000
850890.000000
851598.000000
852318.000000
853066.000000
853815.000000
854545.000000
855282.000000
856016.000000
856726.000000
857430.000000
858135.000000
858836.000000
859525.000000
860206.000000
860892.000000
861602.000000
862317.000000
863012.000000
863704.000000
864397.000000
865074.000000
865748.000000
866425.000000
867111.000000
867794.000000
868472.000000
869192.000000
869926.000000
870619.000000
871317.000000
872020.000000
872720.000000
873409.000000
874088.000000
874774.000000
875470.000000
876151.000000
876819.000000
877483.000000
878146.000000
878812.000000
879476.000000
880137.000000
880791.000000
881459.000000
882175.000000
882878.000000
883588.000000
884351.000000
885108.000000
885881.000000
886657.000000
887384.000000
888075.000000
888756.000000
889424.000000
890076.000000
890726.000000
891382.000000
892033.000000
892678.000000
893322.000000
893982.000000
894656.000000
895423.000000
896273.000000
897109.000000
897952.000000
898743.000000
899470.000000
900170.000000
900856.000000
901519.000000
902176.000000
902841.000000
903514.000000
904183.000000
904849.000000
905526.000000
906216.000000
906895.000000
907558.000000
908219.000000
908881.000000
909537.000000
910183.000000
910836.000000
911496.000000
912160.000000
912819.000000
913487.000000
914167.000000
914838.000000
915500.000000
916173.000000
916856.000000
917540.000000
918219.000000
918942.000000
919671.000000
920359.000000
921046.000000
