ECG (ms)
464.000000
1342.000000
2208.000000
3068.000000
3917.000000
4751.000000
5602.000000
6456.000000
7322.000000
8202.000000
9069.000000
9950.000000
10848.000000
11720.000000
12608.000000
13496.000000
14352.000000
15208.000000
16124.000000
17062.000000
17960.000000
18852.000000
19720.000000
20601.000000
21500.000000
22417.000000
23290.000000
24185.000000
25098.000000
26009.000000
26865.000000
27761.000000
28648.000000
29508.000000
30327.000000
31200.000000
32120.000000
32995.000000
33893.000000
34803.000000
35713.000000
36602.000000
37480.000000
38384.000000
39280.000000
40140.000000
40995.000000
41864.000000
42732.000000
43609.000000
44542.000000
45445.000000
46312.000000
47193.000000
48053.000000
48893.000000
49740.000000
50625.000000
51497.000000
52315.000000
53149.000000
53984.000000
54830.000000
55661.000000
56518.000000
57454.000000
58333.000000
59186.000000
60066.000000
60963.000000
61836.000000
62713.000000
63559.000000
64429.000000
65352.000000
66230.000000
67059.000000
67916.000000
68808.000000
69710.000000
70565.000000
71432.000000
72305.000000
73146.000000
74005.000000
74873.000000
75759.000000
76614.000000
77488.000000
78369.000000
79262.000000
80125.000000
80972.000000
81822.000000
82671.000000
83505.000000
84370.000000
85245.000000
86106.000000
86974.000000
87847.000000
88711.000000
89584.000000
90437.000000
91300.000000
92168.000000
93052.000000
93902.000000
94762.000000
95629.000000
96500.000000
97364.000000
98265.000000
99257.000000
100160.000000
101070.000000
101977.000000
102859.000000
103715.000000
104563.000000
105409.000000
106256.000000
107112.000000
108033.000000
108926.000000
109782.000000
110610.000000
111467.000000
112320.000000
113146.000000
113975.000000
114813.000000
115661.000000
116491.000000
117303.000000
118138.000000
118978.000000
119815.000000
120666.000000
121534.000000
122428.000000
123299.000000
124180.000000
125081.000000
125954.000000
126776.000000
127646.000000
128516.000000
129383.000000
130241.000000
131067.000000
131911.000000
132790.000000
133749.000000
134612.000000
135489.000000
136377.000000
137263.000000
138143.000000
139019.000000
139862.000000
140698.000000
141553.000000
142409.000000
143243.000000
144096.000000
144963.000000
145843.000000
146742.000000
147573.000000
148384.000000
149229.000000
150008.000000
150859.000000
151734.000000
152655.000000
153509.000000
154371.000000
155259.000000
156082.000000
156900.000000
157733.000000
158588.000000
159432.000000
160266.000000
161121.000000
162008.000000
162850.000000
163718.000000
164631.000000
165515.000000
166385.000000
167231.000000
168099.000000
168955.000000
169768.000000
170591.000000
171428.000000
172245.000000
173055.000000
173897.000000
174751.000000
175591.000000
176458.000000
177333.000000
178174.000000
178996.000000
179878.000000
180766.000000
181593.000000
182425.000000
183285.000000
184144.000000
184971.000000
185842.000000
186711.000000
187529.000000
188362.000000
189205.000000
190024.000000
190837.000000
191644.000000
192516.000000
193386.000000
194173.000000
195009.000000
195925.000000
196742.000000
197663.000000
198655.000000
199627.000000
200548.000000
201447.000000
202331.000000
203230.000000
204128.000000
204980.000000
205854.000000
206747.000000
207633.000000
208492.000000
209375.000000
210247.000000
211108.000000
211940.000000
212805.000000
213687.000000
214528.000000
215397.000000
216291.000000
217187.000000
218069.000000
218929.000000
219746.000000
220608.000000
221520.000000
222426.000000
223257.000000
224247.000000
225229.000000
226113.000000
227017.000000
227861.000000
228626.000000
229439.000000
230320.000000
231144.000000
231921.000000
232823.000000
233819.000000
234742.000000
235668.000000
236599.000000
237416.000000
238258.000000
239136.000000
239941.000000
240794.000000
241722.000000
242610.000000
243510.000000
244473.000000
245371.000000
246249.000000
247163.000000
248044.000000
248843.000000
249707.000000
250611.000000
251425.000000
252296.000000
253251.000000
254086.000000
254961.000000
255867.000000
256777.000000
257605.000000
258363.000000
259135.000000
260090.000000
261092.000000
261885.000000
262725.000000
263647.000000
264497.000000
265343.000000
266275.000000
267116.000000
267972.000000
268860.000000
269692.000000
270437.000000
271214.000000
272025.000000
272897.000000
273711.000000
274481.000000
275373.000000
276294.000000
277102.000000
277925.000000
278785.000000
279677.000000
280475.000000
281348.000000
282193.000000
282972.000000
283831.000000
284709.000000
285549.000000
286369.000000
287237.000000
288114.000000
288952.000000
289772.000000
290618.000000
291464.000000
292277.000000
293107.000000
293975.000000
294884.000000
295778.000000
296689.000000
297592.000000
298455.000000
299336.000000
300194.000000
301025.000000
301841.000000
302684.000000
303542.000000
304458.000000
305319.000000
306185.000000
307091.000000
307993.000000
308860.000000
309721.000000
310592.000000
311464.000000
312314.000000
313157.000000
314030.000000
314906.000000
315740.000000
316585.000000
317423.000000
318250.000000
319067.000000
319937.000000
320840.000000
321697.000000
322585.000000
323473.000000
324338.000000
325217.000000
326101.000000
326951.000000
327795.000000
328646.000000
329509.000000
330417.000000
331258.000000
332122.000000
333009.000000
333874.000000
334712.000000
335618.000000
336527.000000
337391.000000
338227.000000
339110.000000
340028.000000
340904.000000
341801.000000
342718.000000
343640.000000
344534.000000
345389.000000
346251.000000
347103.000000
347921.000000
348781.000000
349691.000000
350569.000000
351476.000000
352418.000000
353350.000000
354254.000000
355141.000000
356055.000000
356947.000000
357820.000000
358656.000000
359514.000000
360391.000000
361272.000000
362103.000000
362971.000000
363860.000000
364703.000000
365557.000000
366432.000000
367285.000000
368126.000000
369001.000000
369896.000000
370796.000000
371644.000000
372494.000000
373347.000000
374214.000000
375048.000000
375899.000000
376797.000000
377732.000000
378545.000000
379485.000000
380499.000000
381441.000000
382321.000000
383139.000000
383945.000000
384810.000000
385724.000000
386616.000000
387554.000000
388476.000000
389360.000000
390222.000000
391088.000000
391966.000000
392838.000000
393697.000000
394582.000000
395461.000000
396298.000000
397090.000000
397935.000000
398801.000000
399681.000000
400585.000000
401482.000000
402368.000000
403233.000000
404067.000000
404909.000000
405780.000000
406659.000000
407524.000000
408446.000000
409367.000000
410270.000000
411161.000000
412037.000000
412946.000000
413831.000000
414733.000000
415598.000000
416456.000000
417327.000000
418184.000000
419014.000000
419869.000000
420767.000000
421664.000000
422517.000000
423409.000000
424313.000000
425136.000000
425976.000000
426821.000000
427641.000000
428489.000000
429358.000000
430229.000000
431101.000000
432056.000000
432972.000000
433859.000000
434777.000000
435689.000000
436569.000000
437489.000000
438397.000000
439272.000000
440156.000000
441053.000000
441946.000000
442810.000000
443720.000000
444648.000000
445556.000000
446490.000000
447436.000000
448345.000000
449259.000000
450175.000000
451069.000000
451944.000000
452855.000000
453770.000000
454652.000000
455570.000000
456498.000000
457410.000000
458311.000000
459234.000000
460157.000000
461056.000000
461981.000000
462905.000000
463799.000000
464706.000000
465628.000000
466508.000000
467422.000000
468329.000000
469213.000000
470114.000000
471018.000000
471910.000000
472790.000000
473693.000000
474586.000000
475444.000000
476334.000000
477221.000000
478042.000000
478911.000000
479850.000000
480771.000000
481641.000000
482524.000000
483404.000000
484270.000000
485115.000000
486006.000000
486966.000000
487864.000000
488792.000000
489723.000000
490624.000000
491524.000000
492435.000000
493310.000000
494142.000000
494993.000000
495842.000000
496666.000000
497480.000000
498370.000000
499188.000000
500032.000000
500939.000000
501829.000000
502651.000000
503451.000000
504297.000000
505167.000000
506047.000000
506855.000000
507706.000000
508572.000000
509375.000000
510186.000000
511038.000000
511908.000000
512716.000000
513598.000000
514490.000000
515336.000000
516147.000000
517003.000000
517820.000000
518578.000000
519345.000000
520149.000000
520985.000000
521815.000000
522602.000000
523449.000000
524329.000000
525166.000000
525920.000000
526701.000000
527518.000000
528361.000000
529172.000000
530094.000000
530970.000000
531763.000000
532598.000000
533489.000000
534311.000000
535121.000000
536065.000000
536993.000000
537882.000000
538764.000000
539659.000000
540575.000000
541486.000000
542386.000000
543271.000000
544198.000000
545099.000000
545988.000000
546835.000000
547712.000000
548613.000000
549509.000000
550412.000000
551274.000000
552154.000000
553040.000000
553906.000000
554768.000000
555669.000000
556580.000000
557447.000000
558307.000000
559220.000000
560108.000000
560972.000000
561816.000000
562707.000000
563584.000000
564425.000000
565322.000000
566215.000000
567061.000000
567950.000000
568857.000000
569735.000000
570584.000000
571448.000000
572313.000000
573141.000000
573973.000000
574818.000000
575595.000000
576430.000000
577343.000000
578234.000000
579130.000000
580077.000000
580977.000000
581827.000000
582741.000000
583647.000000
584525.000000
585345.000000
586239.000000
587158.000000
588009.000000
588923.000000
589884.000000
590775.000000
591665.000000
592589.000000
593520.000000
594447.000000
595274.000000
596170.000000
597109.000000
598034.000000
598903.000000
599787.000000
600720.000000
601632.000000
602460.000000
603292.000000
604196.000000
605056.000000
605839.000000
606672.000000
607554.000000
608403.000000
609184.000000
610033.000000
610928.000000
611739.000000
612587.000000
613495.000000
614327.000000
615200.000000
616119.000000
617033.000000
617815.000000
618796.000000
619726.000000
620558.000000
621401.000000
622296.000000
623131.000000
623980.000000
624909.000000
625796.000000
626630.000000
627505.000000
628409.000000
629233.000000
630039.000000
630904.000000
631735.000000
632505.000000
633343.000000
634209.000000
635028.000000
635889.000000
636802.000000
637654.000000
638488.000000
639338.000000
640186.000000
640974.000000
641809.000000
642708.000000
643629.000000
644515.000000
645360.000000
646281.000000
647208.000000
648049.000000
648941.000000
649856.000000
650691.000000
651567.000000
652463.000000
653331.000000
654155.000000
655068.000000
655965.000000
656841.000000
657730.000000
658630.000000
659510.000000
660331.000000
661229.000000
662128.000000
662973.000000
663817.000000
664585.000000
665340.000000
666105.000000
666893.000000
667779.000000
668695.000000
669526.000000
670368.000000
671275.000000
672164.000000
673074.000000
674044.000000
674991.000000
675885.000000
676736.000000
677654.000000
678573.000000
679397.000000
680201.000000
681064.000000
681924.000000
682705.000000
683577.000000
684488.000000
685327.000000
686220.000000
687153.000000
688031.000000
688857.000000
689728.000000
690583.000000
691373.000000
692231.000000
693084.000000
693962.000000
694777.000000
695625.000000
696570.000000
697511.000000
698314.000000
699083.000000
700048.000000
701069.000000
701980.000000
702828.000000
703720.000000
704615.000000
705446.000000
706359.000000
707295.000000
708166.000000
709082.000000
709990.000000
710839.000000
711731.000000
712649.000000
713546.000000
714387.000000
715313.000000
716265.000000
717142.000000
718001.000000
718902.000000
719764.000000
720583.000000
721446.000000
722308.000000
723130.000000
723966.000000
724819.000000
725643.000000
726445.000000
727264.000000
728075.000000
728859.000000
729706.000000
730588.000000
731455.000000
732301.000000
733248.000000
734214.000000
735134.000000
735977.000000
736863.000000
737742.000000
738607.000000
739433.000000
740319.000000
741217.000000
742094.000000
742921.000000
743794.000000
744682.000000
745563.000000
746396.000000
747316.000000
748244.000000
749129.000000
750003.000000
750919.000000
751804.000000
752625.000000
753487.000000
754317.000000
755106.000000
755938.000000
756761.000000
757576.000000
758477.000000
759360.000000
760178.000000
761058.000000
761921.000000
762721.000000
763554.000000
764381.000000
765188.000000
765991.000000
766849.000000
767713.000000
768607.000000
769464.000000
770333.000000
771243.000000
772102.000000
772901.000000
773678.000000
774499.000000
775335.000000
776206.000000
777053.000000
777952.000000
778880.000000
779786.000000
780662.000000
781580.000000
782479.000000
783303.000000
784180.000000
785055.000000
785876.000000
786739.000000
787608.000000
788421.000000
789274.000000
790132.000000
790990.000000
791832.000000
792636.000000
793511.000000
794406.000000
795284.000000
796104.000000
796978.000000
797866.000000
798685.000000
799532.000000
800420.000000
801325.000000
802273.000000
803211.000000
804089.000000
805025.000000
805948.000000
806783.000000
807639.000000
808485.000000
809297.000000
810133.000000
811000.000000
811867.000000
812703.000000
813617.000000
814519.000000
815368.000000
816274.000000
817169.000000
817995.000000
818842.000000
819687.000000
820501.000000
821311.000000
822179.000000
823030.000000
823849.000000
824728.000000
825576.000000
826385.000000
827244.000000
828077.000000
828873.000000
829713.000000
830561.000000
831370.000000
832225.000000
833070.000000
833868.000000
834702.000000
835560.000000
836392.000000
837203.000000
838055.000000
838918.000000
839737.000000
840599.000000
841475.000000
842312.000000
843162.000000
844036.000000
844867.000000
845681.000000
846521.000000
847363.000000
848174.000000
849019.000000
849857.000000
850654.000000
851400.000000
852135.000000
852904.000000
853737.000000
854533.000000
855378.000000
856260.000000
857132.000000
857973.000000
858768.000000
859622.000000
860473.000000
861311.000000
862116.000000
862967.000000
863840.000000
864646.000000
865421.000000
866296.000000
867193.000000
868032.000000
868948.000000
869862.000000
870745.000000
871535.000000
872308.000000
873136.000000
874007.000000
874891.000000
875801.000000
876614.000000
877453.000000
878345.000000
879207.000000
880021.000000
880915.000000
881832.000000
882664.000000
883518.000000
884399.000000
885248.000000
886061.000000
886932.000000
887867.000000
888752.000000
889634.000000
890567.000000
891481.000000
892354.000000
893253.000000
894160.000000
895051.000000
895850.000000
896707.000000
897610.000000
898514.000000
899335.000000
900239.000000
901159.000000
902000.000000
902867.000000
903757.000000
904602.000000
905419.000000
906286.000000
907201.000000
908087.000000
908993.000000
909929.000000
910858.000000
911698.000000
912539.000000
913404.000000
914260.000000
915057.000000
915943.000000
916893.000000
917822.000000
918697.000000
919634.000000
920567.000000
921430.000000
922239.000000
923103.000000
923990.000000
924824.000000
925644.000000
926527.000000
927394.000000
928205.000000
929068.000000
929917.000000
930694.000000
931485.000000
932315.000000
933149.000000
933955.000000
934873.000000
935815.000000
936668.000000
937577.000000
938479.000000
939298.000000
940151.000000
941042.000000
941884.000000
942752.000000
943639.000000
944469.000000
945318.000000
946213.000000
947088.000000
947948.000000
948857.000000
949754.000000
950575.000000
951432.000000
952324.000000
953138.000000
954013.000000
954911.000000
955726.000000
956615.000000
957504.000000
958332.000000
959226.000000
960075.000000
960886.000000
961780.000000
962661.000000
963497.000000
964356.000000
965234.000000
966058.000000
966943.000000
967873.000000
968749.000000
969657.000000
970583.000000
971443.000000
972342.000000
973265.000000
974138.000000
974960.000000
975820.000000
976689.000000
977473.000000
978302.000000
979147.000000
979958.000000
980772.000000
981631.000000
982439.000000
983204.000000
984054.000000
984943.000000
985779.000000
986661.000000
987584.000000
988422.000000
989295.000000
990158.000000
990935.000000
991749.000000
992591.000000
993402.000000
994322.000000
995297.000000
996215.000000
997117.000000
998023.000000
998843.000000
999670.000000
1000536.000000
1001416.000000
1002267.000000
1003225.000000
1004185.000000
1005108.000000
1006021.000000
1006957.000000
1007833.000000
1008673.000000
1009535.000000
1010352.000000
1011161.000000
1012062.000000
1012971.000000
1013812.000000
1014714.000000
1015624.000000
1016483.000000
1017348.000000
1018263.000000
1019153.000000
1020010.000000
1020884.000000
1021714.000000
1022501.000000
1023320.000000
1024169.000000
1024973.000000
1025817.000000
1026723.000000
1027556.000000
1028390.000000
1029243.000000
1030038.000000
1030830.000000
1031684.000000
1032538.000000
1033331.000000
1034178.000000
1035066.000000
1035889.000000
1036692.000000
1037544.000000
1038433.000000
1039262.000000
1040100.000000
1040973.000000
1041842.000000
1042686.000000
1043576.000000
1044445.000000
1045252.000000
1046116.000000
1047020.000000
1047931.000000
1048832.000000
1049793.000000
1050743.000000
1051648.000000
1052587.000000
1053565.000000
1054482.000000
1055422.000000
1056358.000000
1057220.000000
1058089.000000
1058982.000000
1059924.000000
1060813.000000
1061754.000000
1062696.000000
1063561.000000
1064430.000000
1065286.000000
1066111.000000
1066888.000000
1067711.000000
1068580.000000
1069405.000000
1070253.000000
1071170.000000
1072061.000000
1072892.000000
1073660.000000
1074453.000000
1075242.000000
1076010.000000
1076846.000000
1077729.000000
1078615.000000
1079511.000000
1080391.000000
1081179.000000
1081992.000000
1082841.000000
1083642.000000
1084473.000000
1085388.000000
1086342.000000
1087252.000000
1088116.000000
1088999.000000
1089861.000000
1090648.000000
1091507.000000
1092388.000000
1093253.000000
1094170.000000
1095076.000000
1095910.000000
1096782.000000
1097654.000000
1098457.000000
1099293.000000
1100156.000000
1100977.000000
1101890.000000
1102835.000000
1103721.000000
1104672.000000
1105624.000000
1106493.000000
1107360.000000
1108217.000000
1109004.000000
1109770.000000
1110572.000000
1111474.000000
1112393.000000
1113263.000000
1114214.000000
1115197.000000
1116115.000000
1117050.000000
1117974.000000
1118820.000000
1119765.000000
1120723.000000
1121607.000000
1122413.000000
1123175.000000
1123891.000000
1124643.000000
1125447.000000
1126284.000000
1127243.000000
1128204.000000
1129100.000000
1129979.000000
1130901.000000
1131800.000000
1132629.000000
1133526.000000
1134445.000000
1135328.000000
1136245.000000
1137173.000000
1138067.000000
1138964.000000
1139930.000000
1140913.000000
1141843.000000
1142754.000000
1143709.000000
1144671.000000
1145556.000000
1146467.000000
1147383.000000
1148273.000000
1149083.000000
1149960.000000
1150878.000000
1151734.000000
1152595.000000
1153523.000000
1154402.000000
1155208.000000
1156065.000000
1156928.000000
1157743.000000
1158512.000000
1159264.000000
1160056.000000
1161099.000000
1162142.000000
1163134.000000
1164117.000000
1165006.000000
1165852.000000
1166682.000000
1167483.000000
1168223.000000
1169000.000000
1169814.000000
1170638.000000
1171509.000000
1172421.000000
1173294.000000
1174135.000000
1175003.000000
1175941.000000
1176804.000000
1177626.000000
1178461.000000
1179306.000000
1180140.000000
1181020.000000
1181904.000000
1182768.000000
1183713.000000
1184676.000000
1185561.000000
1186500.000000
1187445.000000
1188415.000000
1189366.000000
1190257.000000
1191217.000000
1192210.000000
1193153.000000
1194088.000000
