ECG (ms)
136.000000
787.000000
1430.000000
2058.000000
2681.000000
3305.000000
3948.000000
4613.000000
5291.000000
5995.000000
6693.000000
7388.000000
8081.000000
8761.000000
9425.000000
10071.000000
10707.000000
11338.000000
11969.000000
12604.000000
13247.000000
13894.000000
14555.000000
15225.000000
15902.000000
16570.000000
17229.000000
17883.000000
18527.000000
19157.000000
19772.000000
20371.000000
20955.000000
21534.000000
22118.000000
22720.000000
23344.000000
23989.000000
24650.000000
25317.000000
25990.000000
26663.000000
27326.000000
27984.000000
28630.000000
29281.000000
29939.000000
30596.000000
31257.000000
31928.000000
32604.000000
33298.000000
33987.000000
34677.000000
35362.000000
36043.000000
36728.000000
37408.000000
38084.000000
38758.000000
39429.000000
40106.000000
40778.000000
41448.000000
42113.000000
42773.000000
43439.000000
44106.000000
44771.000000
45438.000000
46111.000000
46785.000000
47458.000000
48136.000000
48813.000000
49482.000000
50139.000000
50791.000000
51446.000000
52100.000000
52756.000000
53413.000000
54068.000000
54730.000000
55395.000000
56065.000000
56735.000000
57401.000000
58066.000000
58734.000000
59396.000000
60054.000000
60709.000000
61365.000000
62025.000000
62685.000000
63347.000000
64007.000000
64663.000000
65320.000000
65976.000000
66628.000000
67277.000000
67921.000000
68566.000000
69212.000000
69857.000000
70507.000000
71154.000000
71796.000000
72445.000000
73089.000000
73736.000000
74384.000000
75032.000000
75685.000000
76348.000000
77016.000000
77687.000000
78352.000000
79015.000000
79681.000000
80344.000000
81002.000000
81655.000000
82304.000000
82960.000000
83620.000000
84290.000000
84964.000000
85637.000000
86310.000000
86985.000000
87653.000000
88317.000000
88971.000000
89612.000000
90252.000000
90891.000000
91532.000000
92179.000000
92838.000000
93490.000000
94142.000000
94793.000000
95438.000000
96080.000000
96715.000000
97345.000000
97978.000000
98609.000000
99242.000000
99875.000000
100505.000000
101142.000000
101784.000000
102428.000000
103068.000000
103706.000000
104342.000000
104974.000000
105600.000000
106222.000000
106836.000000
107450.000000
108062.000000
108676.000000
109291.000000
109909.000000
110538.000000
111175.000000
111824.000000
112477.000000
113122.000000
113766.000000
114408.000000
115052.000000
115699.000000
116339.000000
116971.000000
117597.000000
118225.000000
118853.000000
119488.000000
120123.000000
120756.000000
121395.000000
122037.000000
122680.000000
123337.000000
123996.000000
124656.000000
125304.000000
125950.000000
126598.000000
127245.000000
127883.000000
128512.000000
129142.000000
129775.000000
130410.000000
131057.000000
131702.000000
132349.000000
132993.000000
133643.000000
134300.000000
134949.000000
135594.000000
136231.000000
136869.000000
137509.000000
138150.000000
138793.000000
139433.000000
140073.000000
140715.000000
141365.000000
142018.000000
142672.000000
143318.000000
143964.000000
144613.000000
145277.000000
145947.000000
146607.000000
147259.000000
147906.000000
148557.000000
149205.000000
149855.000000
150512.000000
151165.000000
151824.000000
152491.000000
153152.000000
153809.000000
154460.000000
155101.000000
155747.000000
156392.000000
157037.000000
157681.000000
158320.000000
158958.000000
159600.000000
160242.000000
160891.000000
161536.000000
162181.000000
162832.000000
163487.000000
164142.000000
164794.000000
165441.000000
166084.000000
166727.000000
167377.000000
168031.000000
168680.000000
169328.000000
169975.000000
170628.000000
171279.000000
171923.000000
172558.000000
173194.000000
173834.000000
174475.000000
175120.000000
175766.000000
176423.000000
177087.000000
177757.000000
178433.000000
179101.000000
179770.000000
180440.000000
181110.000000
181776.000000
182435.000000
183095.000000
183752.000000
184408.000000
185056.000000
185703.000000
186352.000000
187013.000000
187682.000000
188357.000000
189029.000000
189706.000000
190388.000000
191071.000000
191748.000000
192418.000000
193088.000000
193759.000000
194429.000000
195096.000000
195762.000000
196427.000000
197094.000000
197759.000000
198426.000000
199091.000000
199754.000000
200419.000000
201092.000000
201768.000000
202450.000000
203126.000000
203795.000000
204466.000000
205140.000000
205805.000000
206458.000000
207111.000000
207765.000000
208416.000000
209073.000000
209730.000000
210390.000000
211046.000000
211694.000000
212333.000000
212973.000000
213611.000000
214256.000000
214909.000000
215563.000000
216221.000000
216884.000000
217554.000000
218226.000000
218899.000000
219562.000000
220226.000000
220894.000000
221552.000000
222209.000000
222857.000000
223497.000000
224138.000000
224779.000000
225415.000000
226045.000000
226682.000000
227329.000000
227983.000000
228635.000000
229285.000000
229938.000000
230589.000000
231241.000000
231888.000000
232523.000000
233148.000000
233770.000000
234391.000000
235018.000000
235644.000000
236266.000000
236892.000000
237522.000000
238154.000000
238786.000000
239411.000000
240041.000000
240672.000000
241302.000000
241931.000000
242550.000000
243167.000000
243783.000000
244400.000000
245018.000000
245636.000000
246259.000000
246888.000000
247525.000000
248175.000000
248818.000000
249457.000000
250087.000000
250716.000000
251343.000000
251965.000000
252582.000000
253198.000000
253817.000000
254436.000000
255058.000000
255678.000000
256296.000000
256919.000000
257547.000000
258173.000000
258795.000000
259415.000000
260035.000000
260653.000000
261262.000000
261858.000000
262443.000000
263022.000000
263604.000000
264186.000000
264778.000000
265382.000000
265990.000000
266605.000000
267223.000000
267844.000000
268471.000000
269099.000000
269725.000000
270357.000000
270991.000000
271633.000000
272274.000000
272920.000000
273574.000000
274235.000000
274896.000000
275558.000000
276216.000000
276881.000000
277542.000000
278201.000000
278845.000000
279484.000000
280120.000000
280753.000000
281394.000000
282033.000000
282680.000000
283333.000000
283993.000000
284658.000000
285323.000000
285981.000000
286634.000000
287288.000000
287938.000000
288586.000000
289221.000000
289854.000000
290487.000000
291122.000000
291762.000000
292410.000000
293056.000000
293703.000000
294357.000000
295018.000000
295676.000000
296342.000000
297003.000000
297664.000000
298326.000000
298984.000000
299643.000000
300291.000000
300935.000000
301586.000000
302243.000000
302903.000000
303570.000000
304232.000000
304901.000000
305570.000000
306242.000000
306916.000000
307583.000000
308250.000000
308916.000000
309583.000000
310247.000000
310905.000000
311566.000000
312234.000000
312902.000000
313570.000000
314230.000000
314897.000000
315568.000000
316239.000000
316914.000000
317581.000000
318243.000000
318905.000000
319564.000000
320222.000000
320878.000000
321530.000000
322186.000000
322844.000000
323508.000000
324174.000000
324846.000000
325517.000000
326188.000000
326858.000000
327530.000000
328202.000000
328867.000000
329541.000000
330214.000000
330885.000000
331547.000000
332203.000000
332853.000000
333504.000000
334153.000000
334807.000000
335459.000000
336109.000000
336767.000000
337430.000000
338093.000000
338754.000000
339415.000000
340078.000000
340742.000000
341406.000000
342064.000000
342718.000000
343374.000000
344030.000000
344686.000000
345343.000000
345997.000000
346647.000000
347299.000000
347954.000000
348613.000000
349273.000000
349923.000000
350570.000000
351218.000000
351864.000000
352511.000000
353154.000000
353792.000000
354430.000000
355071.000000
355721.000000
356378.000000
357044.000000
357706.000000
358366.000000
359031.000000
359696.000000
360360.000000
361025.000000
361683.000000
362339.000000
362994.000000
363650.000000
364307.000000
364967.000000
365621.000000
366276.000000
366933.000000
367591.000000
368245.000000
368889.000000
369532.000000
370171.000000
370811.000000
371455.000000
372089.000000
372720.000000
373351.000000
373983.000000
374613.000000
375242.000000
375869.000000
376494.000000
377122.000000
377756.000000
378396.000000
379035.000000
379667.000000
380299.000000
380932.000000
381560.000000
382189.000000
382811.000000
383435.000000
384060.000000
384691.000000
385324.000000
385963.000000
386598.000000
387232.000000
387868.000000
388501.000000
389137.000000
389766.000000
390398.000000
391030.000000
391665.000000
392302.000000
392939.000000
393571.000000
394202.000000
394835.000000
395472.000000
396114.000000
396753.000000
397387.000000
398021.000000
398654.000000
399289.000000
399925.000000
400556.000000
401182.000000
401812.000000
402447.000000
403084.000000
403726.000000
404369.000000
405005.000000
405640.000000
406279.000000
406918.000000
407560.000000
408205.000000
408846.000000
409484.000000
410122.000000
410759.000000
411401.000000
412040.000000
412682.000000
413325.000000
413967.000000
414611.000000
415257.000000
415903.000000
416543.000000
417184.000000
417827.000000
418473.000000
419118.000000
419761.000000
420400.000000
421041.000000
421702.000000
422363.000000
423026.000000
423687.000000
424353.000000
425025.000000
425696.000000
426369.000000
427043.000000
427726.000000
428414.000000
429097.000000
429775.000000
430445.000000
431113.000000
431774.000000
432428.000000
433075.000000
433722.000000
434371.000000
435022.000000
435678.000000
436329.000000
436982.000000
437636.000000
438302.000000
438974.000000
439657.000000
440344.000000
441025.000000
441709.000000
442386.000000
443050.000000
443708.000000
444364.000000
445024.000000
445694.000000
446362.000000
447028.000000
447703.000000
448381.000000
449062.000000
449745.000000
450420.000000
451091.000000
451759.000000
452423.000000
453086.000000
453750.000000
454421.000000
455095.000000
455775.000000
456459.000000
457140.000000
457814.000000
458489.000000
459166.000000
459840.000000
460513.000000
461179.000000
461850.000000
462519.000000
463182.000000
463844.000000
464499.000000
465162.000000
465829.000000
466494.000000
467156.000000
467810.000000
468468.000000
469132.000000
469802.000000
470476.000000
471155.000000
471829.000000
472505.000000
473181.000000
473857.000000
474531.000000
475200.000000
475860.000000
476515.000000
477169.000000
477824.000000
478481.000000
479147.000000
479818.000000
480493.000000
481165.000000
481831.000000
482475.000000
483108.000000
483719.000000
484323.000000
484931.000000
485539.000000
486155.000000
486781.000000
487413.000000
488052.000000
488698.000000
489349.000000
490010.000000
490671.000000
491325.000000
491974.000000
492624.000000
493276.000000
493927.000000
494573.000000
495224.000000
495880.000000
496547.000000
497218.000000
497889.000000
498566.000000
499247.000000
499926.000000
500592.000000
501252.000000
501909.000000
502563.000000
503217.000000
503870.000000
504519.000000
505171.000000
505824.000000
506477.000000
507133.000000
507787.000000
508438.000000
509096.000000
509755.000000
510416.000000
511081.000000
511742.000000
512405.000000
513073.000000
513740.000000
514401.000000
515060.000000
515722.000000
516387.000000
517060.000000
517735.000000
518412.000000
519084.000000
519752.000000
520414.000000
521071.000000
521724.000000
522385.000000
523051.000000
523713.000000
524380.000000
525056.000000
525741.000000
526431.000000
527117.000000
527802.000000
528492.000000
529179.000000
529864.000000
530539.000000
531209.000000
531881.000000
532554.000000
533223.000000
533891.000000
534552.000000
535216.000000
535888.000000
536563.000000
537241.000000
537915.000000
538594.000000
539272.000000
539950.000000
540628.000000
541296.000000
541957.000000
542615.000000
543268.000000
543920.000000
544572.000000
545223.000000
545875.000000
546537.000000
547197.000000
547863.000000
548523.000000
549180.000000
549833.000000
550481.000000
551130.000000
551780.000000
552430.000000
553072.000000
553710.000000
554352.000000
554996.000000
555648.000000
556311.000000
556972.000000
557630.000000
558285.000000
558940.000000
559591.000000
560245.000000
560911.000000
561572.000000
562237.000000
562910.000000
563590.000000
564274.000000
564954.000000
565641.000000
566328.000000
567016.000000
567693.000000
568371.000000
569047.000000
569708.000000
570369.000000
571033.000000
571694.000000
572350.000000
573018.000000
573696.000000
574381.000000
575062.000000
575743.000000
576435.000000
577126.000000
577812.000000
578494.000000
579182.000000
579866.000000
580564.000000
581249.000000
581934.000000
582621.000000
583307.000000
583992.000000
584677.000000
585359.000000
586035.000000
586708.000000
587379.000000
588057.000000
588737.000000
589415.000000
590098.000000
590778.000000
591453.000000
592121.000000
592796.000000
593465.000000
594129.000000
594792.000000
595452.000000
596121.000000
596797.000000
597468.000000
598133.000000
598803.000000
599480.000000
600159.000000
600834.000000
601508.000000
602186.000000
602862.000000
603539.000000
604213.000000
604884.000000
605562.000000
606243.000000
606927.000000
607617.000000
608302.000000
608993.000000
609685.000000
610376.000000
611075.000000
611761.000000
612451.000000
613146.000000
613844.000000
614537.000000
615224.000000
615913.000000
616602.000000
617290.000000
617969.000000
618646.000000
619322.000000
620002.000000
620682.000000
621359.000000
622046.000000
622735.000000
623428.000000
624123.000000
624814.000000
625506.000000
626201.000000
626895.000000
627583.000000
628263.000000
628941.000000
629627.000000
630319.000000
631016.000000
631709.000000
632401.000000
633097.000000
633790.000000
634475.000000
635151.000000
635829.000000
636507.000000
637180.000000
637849.000000
638521.000000
639195.000000
639868.000000
640544.000000
641221.000000
641899.000000
642572.000000
643237.000000
643904.000000
644565.000000
645219.000000
645863.000000
646503.000000
647143.000000
647784.000000
648430.000000
649079.000000
649726.000000
650379.000000
651034.000000
651696.000000
652359.000000
653023.000000
653679.000000
654335.000000
654988.000000
655641.000000
656298.000000
656950.000000
657595.000000
658244.000000
658894.000000
659547.000000
660201.000000
660850.000000
661500.000000
662156.000000
662819.000000
663494.000000
664174.000000
664848.000000
665518.000000
666196.000000
666878.000000
667565.000000
668247.000000
668924.000000
669602.000000
670284.000000
670964.000000
671645.000000
672314.000000
672983.000000
673657.000000
674333.000000
675010.000000
675682.000000
676354.000000
677035.000000
677717.000000
678398.000000
679075.000000
679749.000000
680425.000000
681102.000000
681780.000000
682460.000000
683131.000000
683784.000000
684425.000000
685049.000000
685662.000000
686275.000000
686890.000000
687511.000000
688136.000000
688761.000000
689381.000000
690013.000000
690647.000000
691289.000000
691933.000000
692575.000000
693228.000000
693887.000000
694547.000000
695207.000000
695858.000000
696508.000000
697161.000000
697818.000000
698474.000000
699131.000000
699795.000000
700473.000000
701153.000000
701826.000000
702494.000000
703162.000000
703833.000000
704502.000000
705171.000000
705836.000000
706503.000000
707177.000000
707857.000000
708537.000000
709213.000000
709889.000000
710572.000000
711255.000000
711929.000000
712604.000000
713277.000000
713954.000000
714632.000000
715300.000000
715964.000000
716629.000000
717289.000000
717947.000000
718594.000000
719240.000000
719890.000000
720543.000000
721207.000000
721869.000000
722522.000000
723171.000000
723818.000000
724466.000000
725113.000000
725757.000000
726402.000000
727046.000000
727701.000000
728356.000000
729031.000000
729695.000000
730353.000000
731012.000000
731672.000000
732331.000000
732981.000000
733629.000000
734276.000000
734923.000000
735573.000000
736220.000000
736856.000000
737497.000000
738139.000000
738780.000000
739418.000000
740053.000000
740689.000000
741326.000000
741966.000000
742606.000000
743242.000000
743873.000000
744500.000000
745127.000000
745754.000000
746381.000000
747010.000000
747634.000000
748263.000000
748897.000000
749533.000000
750170.000000
750813.000000
751450.000000
752086.000000
752723.000000
753358.000000
754010.000000
754663.000000
755317.000000
755976.000000
756633.000000
757285.000000
757923.000000
758556.000000
759182.000000
759810.000000
760444.000000
761095.000000
761739.000000
762384.000000
763034.000000
763685.000000
764335.000000
764976.000000
765619.000000
766266.000000
766911.000000
767558.000000
768195.000000
768828.000000
769464.000000
770101.000000
770743.000000
771385.000000
772017.000000
772652.000000
773287.000000
773923.000000
774559.000000
775192.000000
775821.000000
776451.000000
777087.000000
777720.000000
778352.000000
778979.000000
779606.000000
780240.000000
780871.000000
781503.000000
782128.000000
782757.000000
783394.000000
784036.000000
784692.000000
785344.000000
785992.000000
786637.000000
787278.000000
787916.000000
788557.000000
789187.000000
789818.000000
790454.000000
791092.000000
791740.000000
792384.000000
793028.000000
793671.000000
794322.000000
794973.000000
795626.000000
796273.000000
796914.000000
797560.000000
798207.000000
798850.000000
799487.000000
800121.000000
800759.000000
801401.000000
802047.000000
802698.000000
803340.000000
803983.000000
804627.000000
805268.000000
805910.000000
806547.000000
807178.000000
807812.000000
808442.000000
809072.000000
809707.000000
810344.000000
810978.000000
811616.000000
812256.000000
812904.000000
813552.000000
814205.000000
814854.000000
815500.000000
816144.000000
816790.000000
817432.000000
818077.000000
818715.000000
819349.000000
819984.000000
820622.000000
821268.000000
821917.000000
822568.000000
823221.000000
823872.000000
824518.000000
825173.000000
825836.000000
826506.000000
827165.000000
827818.000000
828468.000000
829117.000000
829762.000000
830403.000000
831025.000000
831635.000000
832233.000000
832830.000000
833424.000000
834030.000000
834643.000000
835263.000000
835897.000000
836527.000000
837163.000000
837798.000000
838436.000000
839077.000000
839714.000000
840341.000000
840964.000000
841585.000000
842210.000000
842841.000000
843475.000000
844107.000000
844748.000000
845392.000000
846042.000000
846693.000000
847336.000000
847981.000000
848628.000000
849277.000000
849917.000000
850552.000000
851184.000000
851819.000000
852455.000000
853095.000000
853739.000000
854384.000000
855031.000000
855688.000000
856349.000000
857009.000000
857663.000000
858312.000000
858957.000000
859603.000000
860252.000000
860893.000000
861534.000000
862168.000000
862813.000000
863464.000000
864120.000000
864783.000000
865439.000000
866083.000000
866729.000000
867374.000000
868018.000000
868664.000000
869312.000000
869952.000000
870586.000000
871225.000000
871867.000000
872522.000000
873176.000000
873821.000000
874469.000000
875123.000000
875778.000000
876436.000000
877100.000000
877749.000000
878393.000000
879036.000000
879677.000000
880318.000000
880964.000000
881604.000000
882257.000000
882903.000000
883553.000000
884207.000000
884863.000000
885514.000000
886164.000000
886812.000000
887454.000000
888094.000000
888727.000000
889355.000000
889983.000000
890607.000000
891232.000000
891857.000000
892475.000000
893096.000000
893721.000000
894353.000000
894994.000000
895641.000000
896283.000000
896925.000000
897567.000000
898206.000000
898838.000000
899468.000000
900098.000000
900728.000000
901359.000000
901982.000000
902609.000000
903238.000000
903874.000000
