ECG (ms)
674.000000
2118.000000
3696.000000
5173.000000
6740.000000
8301.000000
9226.000000
10889.000000
12452.000000
13415.000000
15086.000000
16734.000000
17798.000000
19440.000000
21077.000000
22591.000000
24179.000000
25753.000000
26776.000000
28417.000000
29918.000000
31160.000000
32799.000000
34277.000000
35833.000000
37413.000000
38440.000000
39442.000000
41106.000000
42597.000000
43550.000000
45214.000000
46838.000000
48377.000000
49341.000000
50227.000000
51899.000000
53538.000000
55114.000000
56101.000000
57775.000000
59343.000000
60375.000000
61442.000000
63131.000000
64726.000000
65822.000000
67456.000000
69103.000000
70575.000000
71609.000000
73252.000000
74812.000000
75840.000000
77514.000000
79117.000000
80663.000000
81650.000000
83315.000000
84923.000000
86506.000000
88128.000000
89241.000000
90250.000000
91977.000000
93633.000000
95126.000000
96722.000000
98309.000000
99827.000000
100851.000000
102465.000000
104019.000000
105012.000000
106691.000000
108275.000000
109242.000000
110107.000000
111033.000000
112728.000000
114158.000000
115066.000000
115900.000000
116714.000000
117704.000000
119268.000000
120224.000000
121845.000000
123415.000000
124473.000000
126046.000000
127619.000000
129075.000000
130116.000000
131779.000000
133376.000000
134811.000000
136392.000000
137991.000000
139012.000000
140627.000000
142229.000000
143254.000000
144871.000000
146469.000000
147470.000000
149090.000000
150663.000000
152207.000000
153315.000000
154412.000000
156038.000000
157596.000000
158576.000000
160199.000000
161790.000000
163319.000000
164434.000000
166000.000000
167583.000000
169136.000000
170229.000000
171845.000000
173438.000000
174935.000000
176549.000000
178141.000000
179663.000000
180679.000000
181664.000000
183329.000000
184911.000000
185904.000000
187567.000000
189131.000000
190135.000000
191068.000000
192721.000000
194315.000000
195749.000000
197315.000000
198838.000000
199811.000000
201472.000000
203035.000000
204075.000000
205664.000000
207215.000000
208163.000000
209858.000000
211489.000000
213086.000000
214147.000000
215806.000000
217419.000000
218898.000000
220498.000000
222076.000000
223546.000000
225178.000000
226765.000000
228182.000000
229813.000000
231398.000000
232906.000000
233853.000000
235501.000000
237113.000000
238657.000000
239666.000000
241316.000000
242866.000000
243892.000000
244876.000000
246626.000000
248311.000000
249782.000000
250775.000000
252505.000000
254120.000000
255615.000000
257280.000000
258832.000000
259970.000000
261684.000000
263258.000000
264451.000000
266113.000000
267711.000000
269283.000000
270887.000000
272387.000000
273983.000000
275427.000000
276979.000000
278530.000000
279653.000000
280669.000000
282305.000000
283904.000000
285473.000000
287072.000000
288555.000000
290159.000000
291630.000000
292658.000000
294359.000000
295942.000000
297198.000000
298194.000000
299830.000000
301377.000000
302359.000000
303514.000000
305108.000000
306627.000000
307754.000000
309368.000000
310942.000000
312074.000000
313687.000000
315292.000000
316346.000000
317940.000000
319476.000000
320455.000000
322079.000000
323506.000000
324474.000000
326138.000000
327722.000000
328703.000000
330361.000000
331918.000000
332915.000000
334603.000000
336171.000000
337148.000000
338817.000000
340469.000000
341973.000000
343573.000000
345104.000000
346079.000000
347734.000000
349317.000000
350413.000000
352062.000000
353613.000000
354625.000000
356234.000000
357805.000000
359280.000000
360825.000000
362397.000000
363445.000000
365066.000000
366576.000000
367604.000000
369243.000000
370764.000000
371746.000000
373349.000000
374900.000000
375873.000000
377491.000000
379048.000000
379999.000000
381637.000000
383264.000000
384334.000000
385981.000000
387484.000000
388521.000000
390196.000000
391664.000000
393207.000000
394760.000000
395714.000000
397314.000000
398780.000000
399865.000000
401494.000000
402935.000000
404515.000000
406115.000000
407073.000000
408162.000000
409784.000000
410783.000000
412399.000000
414001.000000
414950.000000
415806.000000
416649.000000
417536.000000
419208.000000
420787.000000
422321.000000
423271.000000
424911.000000
426383.000000
427995.000000
429036.000000
430171.000000
431799.000000
433310.000000
434389.000000
436078.000000
437667.000000
439091.000000
440709.000000
442333.000000
443900.000000
445531.000000
447181.000000
448729.000000
450351.000000
451930.000000
453396.000000
454967.000000
456533.000000
458029.000000
459612.000000
461147.000000
462144.000000
463801.000000
465397.000000
466863.000000
468426.000000
469997.000000
471071.000000
472704.000000
474278.000000
475320.000000
476981.000000
478589.000000
480068.000000
481701.000000
483328.000000
484397.000000
486047.000000
487686.000000
489167.000000
490210.000000
491864.000000
493456.000000
494955.000000
496532.000000
498124.000000
499730.000000
501202.000000
502253.000000
503945.000000
505507.000000
507169.000000
508308.000000
509966.000000
511637.000000
513257.000000
514916.000000
516356.000000
517955.000000
519563.000000
521152.000000
522814.000000
524359.000000
525921.000000
526881.000000
528599.000000
530196.000000
531803.000000
533408.000000
534479.000000
536144.000000
537757.000000
539333.000000
540915.000000
541997.000000
543003.000000
544718.000000
546233.000000
547886.000000
549470.000000
551063.000000
552654.000000
553566.000000
554520.000000
556351.000000
557866.000000
559545.000000
561094.000000
562223.000000
563932.000000
565382.000000
567060.000000
568646.000000
569620.000000
571306.000000
572946.000000
574386.000000
575995.000000
577592.000000
578609.000000
580327.000000
581869.000000
583500.000000
585125.000000
586731.000000
588353.000000
589952.000000
591584.000000
593103.000000
594744.000000
596251.000000
597183.000000
598887.000000
600485.000000
601515.000000
603252.000000
604896.000000
605913.000000
607660.000000
609290.000000
610341.000000
612045.000000
613675.000000
615248.000000
616923.000000
618499.000000
619504.000000
621210.000000
622799.000000
624465.000000
626136.000000
627598.000000
628614.000000
630321.000000
631895.000000
632995.000000
634741.000000
636306.000000
637977.000000
639609.000000
640886.000000
642551.000000
644156.000000
645767.000000
647462.000000
648980.000000
650613.000000
652199.000000
653801.000000
655446.000000
656960.000000
658526.000000
660140.000000
661721.000000
663336.000000
664855.000000
666459.000000
667916.000000
669498.000000
671089.000000
672071.000000
673084.000000
674823.000000
676292.000000
677897.000000
679520.000000
680492.000000
682224.000000
683761.000000
685371.000000
686963.000000
688078.000000
689774.000000
691269.000000
692911.000000
694409.000000
695999.000000
697450.000000
699041.000000
700583.000000
702197.000000
703769.000000
704816.000000
706498.000000
707970.000000
709549.000000
711126.000000
712213.000000
713943.000000
715463.000000
717107.000000
718111.000000
719773.000000
721394.000000
723001.000000
724568.000000
726177.000000
727763.000000
728776.000000
730425.000000
732002.000000
732997.000000
733900.000000
735654.000000
737326.000000
738777.000000
740459.000000
742051.000000
743622.000000
745134.000000
746148.000000
747892.000000
749527.000000
750959.000000
752611.000000
754190.000000
755425.000000
757049.000000
758623.000000
760299.000000
761964.000000
762617.000000
763397.000000
765003.000000
766631.000000
767953.000000
769541.000000
771150.000000
772618.000000
773609.000000
775237.000000
776766.000000
778372.000000
780022.000000
781616.000000
783187.000000
784687.000000
786272.000000
787843.000000
789427.000000
790949.000000
792546.000000
794186.000000
795611.000000
796530.000000
798214.000000
799771.000000
800722.000000
802414.000000
803946.000000
804930.000000
806596.000000
808160.000000
809164.000000
810861.000000
812430.000000
814050.000000
815661.000000
816706.000000
818392.000000
819926.000000
821538.000000
823115.000000
824122.000000
825755.000000
827257.000000
828851.000000
830416.000000
831991.000000
833626.000000
835156.000000
836688.000000
838326.000000
839847.000000
841436.000000
842886.000000
843891.000000
845516.000000
846982.000000
848609.000000
850154.000000
851082.000000
851935.000000
853625.000000
855319.000000
856944.000000
858593.000000
860018.000000
861639.000000
863254.000000
864915.000000
866537.000000
868022.000000
869582.000000
871098.000000
872702.000000
874209.000000
875829.000000
877445.000000
878932.000000
880556.000000
882106.000000
883650.000000
885104.000000
886140.000000
887775.000000
889237.000000
890837.000000
892430.000000
893846.000000
895470.000000
896974.000000
898575.000000
900160.000000
901760.000000
903356.000000
904410.000000
906017.000000
907450.000000
908427.000000
910147.000000
911629.000000
912595.000000
914293.000000
915832.000000
916899.000000
918638.000000
920165.000000
921777.000000
923420.000000
925047.000000
926704.000000
927837.000000
929584.000000
931210.000000
932796.000000
934407.000000
935479.000000
937174.000000
938832.000000
940424.000000
942083.000000
943618.000000
944788.000000
946480.000000
948005.000000
949669.000000
951270.000000
952871.000000
954537.000000
956113.000000
957693.000000
959222.000000
960292.000000
961988.000000
963555.000000
965154.000000
966784.000000
968328.000000
969984.000000
971574.000000
972831.000000
974390.000000
975976.000000
976910.000000
978563.000000
980068.000000
981022.000000
982694.000000
984262.000000
985869.000000
987528.000000
989110.000000
990773.000000
992304.000000
993926.000000
995435.000000
996996.000000
998494.000000
999842.000000
1000849.000000
1002510.000000
1004012.000000
1005728.000000
1007271.000000
1008944.000000
1010489.000000
1012054.000000
1013762.000000
1015259.000000
1016904.000000
1018374.000000
1019921.000000
1021432.000000
1022464.000000
1024040.000000
1024961.000000
1025991.000000
1027657.000000
1028626.000000
1030303.000000
1031861.000000
1032831.000000
1034492.000000
1035972.000000
1037621.000000
1039282.000000
1040869.000000
1042514.000000
1043973.000000
1045597.000000
1047103.000000
1048041.000000
1049733.000000
1051334.000000
1052962.000000
1054670.000000
1056226.000000
1057821.000000
1059403.000000
1061013.000000
1062638.000000
1064180.000000
1065744.000000
1067315.000000
1068903.000000
1070553.000000
1072092.000000
1073106.000000
1074739.000000
1076374.000000
1077950.000000
1079559.000000
1080885.000000
1081928.000000
1083615.000000
1085121.000000
1086753.000000
1088284.000000
1089239.000000
1090908.000000
1092395.000000
1094069.000000
1095637.000000
1097260.000000
1098823.000000
1099936.000000
1101592.000000
1103210.000000
1104547.000000
1106128.000000
1107699.000000
1109331.000000
1110994.000000
1112594.000000
1114230.000000
1115733.000000
1117335.000000
1118991.000000
1120445.000000
1122056.000000
1123531.000000
1125085.000000
1126455.000000
1127506.000000
1129147.000000
1130610.000000
1132162.000000
1133634.000000
1134627.000000
1136293.000000
1137810.000000
1139351.000000
1140918.000000
1141947.000000
1143616.000000
1145000.000000
1145909.000000
1146898.000000
1148500.000000
1149450.000000
1151102.000000
1152630.000000
1153563.000000
1154484.000000
1156193.000000
1157742.000000
1158867.000000
1160538.000000
1162049.000000
1163712.000000
1165178.000000
1166108.000000
1166968.000000
1167901.000000
1169553.000000
1171201.000000
1172862.000000
1174442.000000
1176080.000000
1177701.000000
1179176.000000
1180833.000000
1182422.000000
1183991.000000
1185574.000000
1187132.000000
1188747.000000
1190289.000000
1191873.000000
1193449.000000
1194956.000000
1196572.000000
1198160.000000
1199599.000000
1200628.000000
1202293.000000
1203829.000000
1204895.000000
1206495.000000
1208091.000000
1209700.000000
1211333.000000
1212856.000000
1213836.000000
1215463.000000
1217030.000000
1218044.000000
1219647.000000
1221227.000000
1222206.000000
1223864.000000
1225454.000000
1226861.000000
1228474.000000
1230053.000000
1231435.000000
1233026.000000
1234560.000000
1235505.000000
1236640.000000
1238271.000000
1239731.000000
1241312.000000
1242851.000000
1243866.000000
1245517.000000
1247054.000000
1248050.000000
1249675.000000
1251175.000000
1252753.000000
1254318.000000
1255683.000000
1257272.000000
1258799.000000
1259848.000000
1261473.000000
1262480.000000
1264125.000000
1265685.000000
1266870.000000
1268518.000000
1270149.000000
1271644.000000
1273221.000000
1274763.000000
1275750.000000
1277384.000000
1278896.000000
1280452.000000
1282012.000000
1283565.000000
1285122.000000
1286207.000000
1287803.000000
1289223.000000
1290769.000000
1292298.000000
1293819.000000
1295394.000000
1296478.000000
1297977.000000
1299569.000000
1300818.000000
1302480.000000
1303949.000000
1304969.000000
1306611.000000
1308073.000000
1309671.000000
1311290.000000
1312854.000000
1314451.000000
1315937.000000
1317476.000000
1318900.000000
1319972.000000
1321547.000000
1322781.000000
1323774.000000
1325403.000000
1326869.000000
1327845.000000
1329433.000000
1330922.000000
1331855.000000
1332810.000000
1334434.000000
1335919.000000
1336868.000000
1337748.000000
1339363.000000
1340956.000000
1342508.000000
1343989.000000
1344939.000000
1346612.000000
1348227.000000
1349609.000000
1351127.000000
1352782.000000
1354277.000000
1355226.000000
1356085.000000
1357049.000000
1358743.000000
1360387.000000
1362030.000000
1363612.000000
1364834.000000
1366535.000000
1368129.000000
1369548.000000
1371116.000000
1372589.000000
1373590.000000
1375220.000000
1376773.000000
1378205.000000
1379757.000000
1381336.000000
1382782.000000
1383777.000000
1385426.000000
1386980.000000
1388081.000000
1389722.000000
1391301.000000
1392316.000000
1393446.000000
1395101.000000
1396663.000000
1397658.000000
1398609.000000
1400247.000000
1401886.000000
1403323.000000
1404267.000000
1405121.000000
1405987.000000
1407618.000000
1409171.000000
1410769.000000
1412373.000000
1413814.000000
1415389.000000
1416964.000000
1418264.000000
1419834.000000
1421311.000000
1422858.000000
1424408.000000
1425629.000000
1427212.000000
1428803.000000
1430330.000000
1431538.000000
1433129.000000
1434708.000000
1436214.000000
1437641.000000
1438616.000000
1439509.000000
1440401.000000
1441948.000000
1443425.000000
1444373.000000
1445338.000000
1446881.000000
1448288.000000
1449242.000000
1450821.000000
1452349.000000
1453300.000000
1454221.000000
1455854.000000
1457431.000000
1458932.000000
1460221.000000
1461801.000000
1463267.000000
1464291.000000
1465323.000000
1466961.000000
1468502.000000
1469674.000000
1470679.000000
1472320.000000
1473867.000000
1475351.000000
1476424.000000
1478036.000000
1479539.000000
1480534.000000
1482159.000000
1483713.000000
1484731.000000
1486295.000000
1487810.000000
1488789.000000
1489782.000000
1491393.000000
1492823.000000
1493853.000000
1495428.000000
1496888.000000
1497910.000000
1499553.000000
1501040.000000
1502014.000000
1502939.000000
1504627.000000
1506226.000000
1507650.000000
1508724.000000
1510354.000000
1511938.000000
1513415.000000
1514415.000000
1516041.000000
1517619.000000
1518663.000000
1519622.000000
1521269.000000
1522798.000000
1523846.000000
1524786.000000
1526421.000000
1527992.000000
1529450.000000
1530426.000000
1532064.000000
1533631.000000
1535131.000000
1536131.000000
1537765.000000
1539323.000000
1540763.000000
1542327.000000
1543909.000000
1545358.000000
1546910.000000
1548479.000000
1549453.000000
1551066.000000
1552639.000000
1554139.000000
1555679.000000
1557214.000000
1558213.000000
1559155.000000
1560832.000000
1562407.000000
1563807.000000
1565401.000000
1566978.000000
1568418.000000
1569443.000000
1571064.000000
1572568.000000
1573545.000000
1575168.000000
1576799.000000
1578208.000000
1579793.000000
1581316.000000
1582679.000000
1583691.000000
1585299.000000
1586735.000000
1587651.000000
1588534.000000
1590148.000000
1591728.000000
1593261.000000
1594230.000000
1595850.000000
1597406.000000
1598909.000000
1599858.000000
1601463.000000
1603006.000000
1604462.000000
1605412.000000
1606446.000000
1608087.000000
1609637.000000
1611096.000000
1612049.000000
1612974.000000
1614626.000000
1616238.000000
1617751.000000
1618744.000000
1620364.000000
1621945.000000
1623463.000000
1624506.000000
1626130.000000
1627671.000000
1628782.000000
1629928.000000
1631584.000000
1633144.000000
1634236.000000
1635864.000000
1637501.000000
1639002.000000
1640014.000000
1641661.000000
1643206.000000
1644615.000000
1646172.000000
1647678.000000
1648649.000000
1650286.000000
1651828.000000
1652979.000000
1653901.000000
1654750.000000
1655619.000000
1656626.000000
1658217.000000
1659308.000000
1660351.000000
1662121.000000
1663656.000000
1664670.000000
1665819.000000
1667446.000000
1669018.000000
1670473.000000
1671993.000000
1673547.000000
1675054.000000
1676498.000000
1677480.000000
1679095.000000
1680612.000000
1681614.000000
1683201.000000
1684766.000000
1686237.000000
1687202.000000
1688821.000000
1690386.000000
1691918.000000
1693008.000000
1694569.000000
1696136.000000
1697578.000000
1698523.000000
1700168.000000
1701701.000000
1702760.000000
1703772.000000
1705392.000000
1706890.000000
1708445.000000
1710022.000000
1711437.000000
1712468.000000
1714054.000000
1715622.000000
1717087.000000
1718103.000000
1719706.000000
1721256.000000
1722679.000000
1723739.000000
1725317.000000
1726831.000000
1727843.000000
1729429.000000
1730946.000000
1732093.000000
1733093.000000
1734724.000000
1736291.000000
1737721.000000
1738692.000000
1740313.000000
1741889.000000
1743341.000000
1744389.000000
1746036.000000
1747574.000000
1748842.000000
1750412.000000
1752011.000000
1753196.000000
1754138.000000
1755766.000000
1757339.000000
1758834.000000
1759783.000000
1760739.000000
1762406.000000
1763963.000000
1765031.000000
1766637.000000
1768224.000000
1769689.000000
1770769.000000
1772402.000000
1773896.000000
1774859.000000
1776458.000000
1777968.000000
1778952.000000
1780040.000000
1781656.000000
1783178.000000
1784244.000000
1785874.000000
1787399.000000
1788532.000000
1790151.000000
1791698.000000
1793127.000000
1794137.000000
1795739.000000
1797269.000000
