ECG (ms)
237.000000
1168.000000
2072.000000
2925.000000
3718.000000
4505.000000
5339.000000
6267.000000
7212.000000
8150.000000
9075.000000
9923.000000
10724.000000
11509.000000
12336.000000
13246.000000
14151.000000
14991.000000
15886.000000
16813.000000
17690.000000
18505.000000
19307.000000
20128.000000
20977.000000
21858.000000
22700.000000
23537.000000
24371.000000
25283.000000
26213.000000
27131.000000
27979.000000
28773.000000
29551.000000
30380.000000
31248.000000
32135.000000
32994.000000
33838.000000
34677.000000
35557.000000
36477.000000
37395.000000
38308.000000
39170.000000
39999.000000
40811.000000
41668.000000
42539.000000
43424.000000
44266.000000
45064.000000
45854.000000
46690.000000
47550.000000
48418.000000
49266.000000
50082.000000
50888.000000
51746.000000
52565.000000
53368.000000
54169.000000
54977.000000
55836.000000
56742.000000
57624.000000
58444.000000
59236.000000
60042.000000
60883.000000
61758.000000
62618.000000
63427.000000
64221.000000
65045.000000
65933.000000
66802.000000
67620.000000
68421.000000
69244.000000
70099.000000
70967.000000
71842.000000
72692.000000
73480.000000
74242.000000
75047.000000
75893.000000
76768.000000
77631.000000
78442.000000
79202.000000
79941.000000
80732.000000
81618.000000
82522.000000
83376.000000
84165.000000
84943.000000
85748.000000
86530.000000
87269.000000
88053.000000
88838.000000
89605.000000
90429.000000
91320.000000
92204.000000
93054.000000
93862.000000
94686.000000
95576.000000
96489.000000
97365.000000
98193.000000
98970.000000
99819.000000
100690.000000
101577.000000
102426.000000
103253.000000
104093.000000
104982.000000
105882.000000
106777.000000
107662.000000
108465.000000
109240.000000
110031.000000
110897.000000
111814.000000
112701.000000
113541.000000
114369.000000
115215.000000
116095.000000
116935.000000
117718.000000
118480.000000
119269.000000
120068.000000
120866.000000
121697.000000
122565.000000
123442.000000
124303.000000
125156.000000
125977.000000
126760.000000
127526.000000
128308.000000
129193.000000
130124.000000
131031.000000
131917.000000
132752.000000
133547.000000
134311.000000
135082.000000
135912.000000
136793.000000
137682.000000
138558.000000
139430.000000
140262.000000
141072.000000
141872.000000
142654.000000
143479.000000
144312.000000
145156.000000
145981.000000
146744.000000
147458.000000
148194.000000
148940.000000
149696.000000
150494.000000
151328.000000
152165.000000
152967.000000
153750.000000
154532.000000
155311.000000
156096.000000
156914.000000
157649.000000
158341.000000
159067.000000
159799.000000
160568.000000
161354.000000
162227.000000
163087.000000
163922.000000
164711.000000
165454.000000
166183.000000
166981.000000
167832.000000
168679.000000
169532.000000
170320.000000
171135.000000
171963.000000
172815.000000
173649.000000
174454.000000
175225.000000
176023.000000
176861.000000
177688.000000
178503.000000
179290.000000
180102.000000
180910.000000
181701.000000
182490.000000
183283.000000
184134.000000
184998.000000
185858.000000
186684.000000
187485.000000
188283.000000
189092.000000
189950.000000
190843.000000
191745.000000
192605.000000
193426.000000
194263.000000
195122.000000
195994.000000
196827.000000
197623.000000
198417.000000
199242.000000
200121.000000
201043.000000
201932.000000
202790.000000
203593.000000
204376.000000
205151.000000
205973.000000
206859.000000
207746.000000
208625.000000
209454.000000
210253.000000
211096.000000
211990.000000
212871.000000
213703.000000
214504.000000
215341.000000
216259.000000
217177.000000
218048.000000
218872.000000
219741.000000
220637.000000
221537.000000
222383.000000
223170.000000
223924.000000
224751.000000
225621.000000
226437.000000
227238.000000
228064.000000
228913.000000
229833.000000
230752.000000
231634.000000
232480.000000
233376.000000
234290.000000
235195.000000
236035.000000
236830.000000
237653.000000
238513.000000
239377.000000
240204.000000
241091.000000
241986.000000
242858.000000
243683.000000
244551.000000
245443.000000
246320.000000
247129.000000
247918.000000
248777.000000
249659.000000
250514.000000
251323.000000
252122.000000
252955.000000
253814.000000
254628.000000
255410.000000
256190.000000
257020.000000
257880.000000
258745.000000
259603.000000
260417.000000
261208.000000
261991.000000
262776.000000
263623.000000
264491.000000
265327.000000
266124.000000
266893.000000
267701.000000
268465.000000
269198.000000
269912.000000
270643.000000
271347.000000
272039.000000
272720.000000
273523.000000
274383.000000
275194.000000
275988.000000
276850.000000
277766.000000
278648.000000
279484.000000
280281.000000
281090.000000
281966.000000
282857.000000
283677.000000
284525.000000
285403.000000
286290.000000
287135.000000
287969.000000
288813.000000
289718.000000
290607.000000
291427.000000
292189.000000
292936.000000
293688.000000
294471.000000
295378.000000
296270.000000
297114.000000
297893.000000
298648.000000
299404.000000
300218.000000
301129.000000
302060.000000
302989.000000
303866.000000
304702.000000
305558.000000
306455.000000
307348.000000
308210.000000
309036.000000
309885.000000
310710.000000
311485.000000
312232.000000
313020.000000
313790.000000
314580.000000
315429.000000
316297.000000
317128.000000
317902.000000
318674.000000
319478.000000
320343.000000
321234.000000
322071.000000
322893.000000
323745.000000
324612.000000
325483.000000
326342.000000
327159.000000
327972.000000
328832.000000
329719.000000
330565.000000
331364.000000
332190.000000
333045.000000
333915.000000
334753.000000
335560.000000
336358.000000
337182.000000
337990.000000
338733.000000
339440.000000
340218.000000
340964.000000
341708.000000
342515.000000
343278.000000
344013.000000
344754.000000
345507.000000
346305.000000
347183.000000
348097.000000
348973.000000
349797.000000
350634.000000
351488.000000
352343.000000
353169.000000
353971.000000
354815.000000
355739.000000
356685.000000
357632.000000
358540.000000
359387.000000
360193.000000
360995.000000
361850.000000
362783.000000
363737.000000
364637.000000
365562.000000
366509.000000
367422.000000
368288.000000
369127.000000
370006.000000
370925.000000
371829.000000
372696.000000
373526.000000
374351.000000
375199.000000
376104.000000
377007.000000
377880.000000
378702.000000
379495.000000
380304.000000
381162.000000
382059.000000
382938.000000
383796.000000
384611.000000
385388.000000
386186.000000
387023.000000
387862.000000
388634.000000
389368.000000
390114.000000
390868.000000
391676.000000
392541.000000
393376.000000
394170.000000
394989.000000
395847.000000
396711.000000
397521.000000
398314.000000
399191.000000
400043.000000
400872.000000
401689.000000
402493.000000
403384.000000
404321.000000
405251.000000
406158.000000
406993.000000
407787.000000
408594.000000
409456.000000
410359.000000
411274.000000
412153.000000
413027.000000
413942.000000
414891.000000
415845.000000
416723.000000
417582.000000
418488.000000
419356.000000
420171.000000
421002.000000
421905.000000
422831.000000
423696.000000
424585.000000
425500.000000
426398.000000
427284.000000
428109.000000
428914.000000
429766.000000
430652.000000
431502.000000
432340.000000
433212.000000
434020.000000
434786.000000
435516.000000
436259.000000
436998.000000
437835.000000
438706.000000
439588.000000
440404.000000
441168.000000
441919.000000
442684.000000
443505.000000
444402.000000
445264.000000
446086.000000
446968.000000
447849.000000
448675.000000
449469.000000
450324.000000
451208.000000
452074.000000
452876.000000
453649.000000
454458.000000
455297.000000
456165.000000
456916.000000
457636.000000
458395.000000
459212.000000
460060.000000
461024.000000
461964.000000
462884.000000
463720.000000
464512.000000
465352.000000
466226.000000
467134.000000
468039.000000
468899.000000
469756.000000
470641.000000
471567.000000
472515.000000
473445.000000
474322.000000
475148.000000
475980.000000
476846.000000
477748.000000
478680.000000
479583.000000
480436.000000
481264.000000
482120.000000
483025.000000
483947.000000
484873.000000
485757.000000
486603.000000
487410.000000
488211.000000
489079.000000
490000.000000
490911.000000
491730.000000
492487.000000
493273.000000
494051.000000
494921.000000
495823.000000
496703.000000
497529.000000
498385.000000
499303.000000
500237.000000
501101.000000
501997.000000
502919.000000
503766.000000
504557.000000
505391.000000
506289.000000
507227.000000
508145.000000
509004.000000
509895.000000
510819.000000
511743.000000
512599.000000
513434.000000
514316.000000
515220.000000
516117.000000
516968.000000
517850.000000
518661.000000
519421.000000
520154.000000
520904.000000
521712.000000
522628.000000
523576.000000
524488.000000
525374.000000
526205.000000
527018.000000
527855.000000
528752.000000
529672.000000
530576.000000
531453.000000
532304.000000
533221.000000
534163.000000
535067.000000
535923.000000
536764.000000
537630.000000
538537.000000
539445.000000
540318.000000
541142.000000
542005.000000
542911.000000
543858.000000
544746.000000
545604.000000
546484.000000
547351.000000
548182.000000
549025.000000
549912.000000
550771.000000
551606.000000
552460.000000
553370.000000
554282.000000
555142.000000
555958.000000
556784.000000
557638.000000
558546.000000
559416.000000
560238.000000
561063.000000
561935.000000
562849.000000
563741.000000
564571.000000
565395.000000
566248.000000
567124.000000
568010.000000
568832.000000
569679.000000
570540.000000
571403.000000
572243.000000
573019.000000
573757.000000
574545.000000
575436.000000
576346.000000
577208.000000
577978.000000
578705.000000
579498.000000
580243.000000
581018.000000
581827.000000
582698.000000
583531.000000
584349.000000
585219.000000
586127.000000
587041.000000
587949.000000
588830.000000
589679.000000
590554.000000
591472.000000
592399.000000
593315.000000
594197.000000
595056.000000
595942.000000
596876.000000
597796.000000
598707.000000
599587.000000
600423.000000
601263.000000
602155.000000
603088.000000
603999.000000
604878.000000
605745.000000
606650.000000
607576.000000
608444.000000
609282.000000
610159.000000
611069.000000
611996.000000
612860.000000
613681.000000
614490.000000
615368.000000
616303.000000
617209.000000
618082.000000
618875.000000
619700.000000
620543.000000
621389.000000
622315.000000
623295.000000
624230.000000
625127.000000
626048.000000
626981.000000
627863.000000
628754.000000
629686.000000
630603.000000
631465.000000
632288.000000
633191.000000
634128.000000
635020.000000
635868.000000
636786.000000
637721.000000
638599.000000
639420.000000
640302.000000
641219.000000
642109.000000
642957.000000
643740.000000
644538.000000
645333.000000
646126.000000
647022.000000
647917.000000
648782.000000
649608.000000
650475.000000
651350.000000
652227.000000
653096.000000
653925.000000
654729.000000
655569.000000
656508.000000
657489.000000
658401.000000
659263.000000
660152.000000
661085.000000
662016.000000
662892.000000
663752.000000
664673.000000
665626.000000
666559.000000
667462.000000
668319.000000
669152.000000
670054.000000
671022.000000
671971.000000
672850.000000
673689.000000
674525.000000
675471.000000
676480.000000
677434.000000
678369.000000
679288.000000
680181.000000
681030.000000
681862.000000
682718.000000
683631.000000
684551.000000
685478.000000
686344.000000
687181.000000
688019.000000
688890.000000
689791.000000
690651.000000
691510.000000
692412.000000
693361.000000
694303.000000
695166.000000
695982.000000
696772.000000
697596.000000
698460.000000
699331.000000
700169.000000
701065.000000
701973.000000
702849.000000
703683.000000
704526.000000
705365.000000
706146.000000
706874.000000
707576.000000
708312.000000
709033.000000
709864.000000
710683.000000
711432.000000
712168.000000
712948.000000
713710.000000
714508.000000
715388.000000
716215.000000
716997.000000
717820.000000
718711.000000
719599.000000
720484.000000
721317.000000
722133.000000
722979.000000
723846.000000
724725.000000
725551.000000
726335.000000
727159.000000
728021.000000
728829.000000
729579.000000
730308.000000
731075.000000
731843.000000
732667.000000
733545.000000
734439.000000
735333.000000
736185.000000
736998.000000
737780.000000
738563.000000
739415.000000
740344.000000
741297.000000
742222.000000
743069.000000
743872.000000
744686.000000
745558.000000
746458.000000
747382.000000
748252.000000
749126.000000
750037.000000
750992.000000
751940.000000
752813.000000
753637.000000
754475.000000
755343.000000
756269.000000
757181.000000
758061.000000
758966.000000
759905.000000
760800.000000
761666.000000
762569.000000
763464.000000
764321.000000
765155.000000
766054.000000
766990.000000
767861.000000
768665.000000
769465.000000
770259.000000
771076.000000
771938.000000
772829.000000
773674.000000
774555.000000
775480.000000
776389.000000
777230.000000
778089.000000
779001.000000
779932.000000
780758.000000
781568.000000
782393.000000
783240.000000
784119.000000
785096.000000
786123.000000
787121.000000
788047.000000
789007.000000
789990.000000
790904.000000
791812.000000
792764.000000
793713.000000
794598.000000
795494.000000
796421.000000
797358.000000
798234.000000
799116.000000
800059.000000
801009.000000
801913.000000
802751.000000
803573.000000
804449.000000
805382.000000
806297.000000
807137.000000
807962.000000
808831.000000
809717.000000
810507.000000
811266.000000
812087.000000
812890.000000
813753.000000
814689.000000
815632.000000
816555.000000
817414.000000
818277.000000
819186.000000
820128.000000
821056.000000
821920.000000
822744.000000
823597.000000
824521.000000
825483.000000
826393.000000
827251.000000
828146.000000
829089.000000
830015.000000
830882.000000
831724.000000
832598.000000
833517.000000
834448.000000
835364.000000
836227.000000
837054.000000
837913.000000
838746.000000
839552.000000
840347.000000
841218.000000
842051.000000
842942.000000
843862.000000
844681.000000
845441.000000
846208.000000
846999.000000
847810.000000
848751.000000
849675.000000
850518.000000
851406.000000
852332.000000
853260.000000
854135.000000
854964.000000
855787.000000
856658.000000
857534.000000
858372.000000
859236.000000
860188.000000
861122.000000
862008.000000
862889.000000
863797.000000
864727.000000
865627.000000
866485.000000
867314.000000
868200.000000
869124.000000
870055.000000
870917.000000
871727.000000
872555.000000
873424.000000
874272.000000
875047.000000
875792.000000
876610.000000
877445.000000
878228.000000
879069.000000
879960.000000
880840.000000
881679.000000
882486.000000
883320.000000
884175.000000
885051.000000
885884.000000
886686.000000
887491.000000
888380.000000
889299.000000
890196.000000
891013.000000
891786.000000
892597.000000
893460.000000
894374.000000
895241.000000
896077.000000
896931.000000
897843.000000
898734.000000
899592.000000
