ECG (ms)
405.000000
1383.000000
2707.000000
3978.000000
5321.000000
6677.000000
8016.000000
9339.000000
10518.000000
11612.000000
12749.000000
13999.000000
15244.000000
16660.000000
17965.000000
19293.000000
20572.000000
21699.000000
22811.000000
24151.000000
25450.000000
26805.000000
28040.000000
29346.000000
30656.000000
31932.000000
33310.000000
34525.000000
35633.000000
36821.000000
38182.000000
39576.000000
40937.000000
42151.000000
43472.000000
44443.000000
45414.000000
46689.000000
48070.000000
49424.000000
50727.000000
51954.000000
53148.000000
54137.000000
55158.000000
56511.000000
57816.000000
59040.000000
60416.000000
61670.000000
63056.000000
64410.000000
65729.000000
66929.000000
68184.000000
69616.000000
70991.000000
72230.000000
73571.000000
74873.000000
76287.000000
77638.000000
78889.000000
80239.000000
81655.000000
83056.000000
84320.000000
85629.000000
86937.000000
88377.000000
89784.000000
91101.000000
92422.000000
93661.000000
94860.000000
96150.000000
97530.000000
98883.000000
100071.000000
101355.000000
102370.000000
103646.000000
105006.000000
106354.000000
107608.000000
108826.000000
109913.000000
111218.000000
112597.000000
113976.000000
115230.000000
116484.000000
117698.000000
119095.000000
120500.000000
121803.000000
123170.000000
124460.000000
125924.000000
127314.000000
128602.000000
129818.000000
131057.000000
132475.000000
133838.000000
134980.000000
136338.000000
137675.000000
138670.000000
139936.000000
141266.000000
142470.000000
143693.000000
145108.000000
146414.000000
147624.000000
148803.000000
150143.000000
151385.000000
152829.000000
154193.000000
155386.000000
156706.000000
157949.000000
159369.000000
160736.000000
161892.000000
163203.000000
164610.000000
165875.000000
167222.000000
168461.000000
169693.000000
171118.000000
172454.000000
173731.000000
174976.000000
175955.000000
177284.000000
178638.000000
179914.000000
181335.000000
182701.000000
183969.000000
185267.000000
186357.000000
187288.000000
188534.000000
189972.000000
191317.000000
192615.000000
193778.000000
194922.000000
196349.000000
197692.000000
199097.000000
200451.000000
201670.000000
202860.000000
204123.000000
205426.000000
206803.000000
208169.000000
209452.000000
210615.000000
211728.000000
213102.000000
214532.000000
215888.000000
217069.000000
218346.000000
219747.000000
220958.000000
222334.000000
223406.000000
224668.000000
225702.000000
226748.000000
228189.000000
229442.000000
230767.000000
232117.000000
233339.000000
234601.000000
235905.000000
237232.000000
238560.000000
239791.000000
240933.000000
242331.000000
243723.000000
245098.000000
246483.000000
247700.000000
248909.000000
250339.000000
251740.000000
253180.000000
254559.000000
255766.000000
257096.000000
258539.000000
259970.000000
261247.000000
262492.000000
264008.000000
265408.000000
266772.000000
268149.000000
269599.000000
270971.000000
272152.000000
273137.000000
274529.000000
275823.000000
277309.000000
278626.000000
279749.000000
281095.000000
282405.000000
283369.000000
284391.000000
285678.000000
287030.000000
288023.000000
289336.000000
290685.000000
292005.000000
293227.000000
294434.000000
295821.000000
297068.000000
298446.000000
299755.000000
300905.000000
302271.000000
303573.000000
304889.000000
306175.000000
307459.000000
308842.000000
310209.000000
311288.000000
312632.000000
314097.000000
315479.000000
316801.000000
318039.000000
319352.000000
320593.000000
321809.000000
322906.000000
323885.000000
325152.000000
326496.000000
327477.000000
328648.000000
329804.000000
331151.000000
332472.000000
333774.000000
334991.000000
336159.000000
337285.000000
338695.000000
339884.000000
341137.000000
342531.000000
343757.000000
345065.000000
346141.000000
347301.000000
348570.000000
349989.000000
351382.000000
352722.000000
354033.000000
355003.000000
355955.000000
357200.000000
358658.000000
360058.000000
361395.000000
362505.000000
363514.000000
364727.000000
366141.000000
367508.000000
368859.000000
370125.000000
371150.000000
372106.000000
373106.000000
374494.000000
375969.000000
377347.000000
378666.000000
379915.000000
381197.000000
382536.000000
383845.000000
384917.000000
385996.000000
387126.000000
388016.000000
389184.000000
390458.000000
391561.000000
392857.000000
394188.000000
395356.000000
396503.000000
397736.000000
399110.000000
400491.000000
401631.000000
403001.000000
404379.000000
405789.000000
407187.000000
408385.000000
409763.000000
411178.000000
412443.000000
413791.000000
415190.000000
416466.000000
417878.000000
419214.000000
420435.000000
421886.000000
423290.000000
424534.000000
425867.000000
427259.000000
428518.000000
429891.000000
430956.000000
432308.000000
433566.000000
434568.000000
435868.000000
437292.000000
438683.000000
439982.000000
441339.000000
442680.000000
443945.000000
445174.000000
446460.000000
447811.000000
449121.000000
450288.000000
451571.000000
452917.000000
454224.000000
455440.000000
456551.000000
457900.000000
459297.000000
460562.000000
461761.000000
463022.000000
464022.000000
465405.000000
466663.000000
467880.000000
469174.000000
470400.000000
471711.000000
472882.000000
473903.000000
475115.000000
476538.000000
477926.000000
479225.000000
480301.000000
481372.000000
482756.000000
484199.000000
485578.000000
486799.000000
488186.000000
489550.000000
490871.000000
492202.000000
493507.000000
494871.000000
496218.000000
497484.000000
498859.000000
500167.000000
501380.000000
502781.000000
504151.000000
505524.000000
506691.000000
507758.000000
509083.000000
510435.000000
511516.000000
512825.000000
514114.000000
515459.000000
516709.000000
517868.000000
519171.000000
520426.000000
521593.000000
522962.000000
524262.000000
525375.000000
526762.000000
528079.000000
529297.000000
530540.000000
531849.000000
533101.000000
534309.000000
535639.000000
536900.000000
537933.000000
539232.000000
540447.000000
541719.000000
542781.000000
544003.000000
545221.000000
546436.000000
547728.000000
548939.000000
550041.000000
551235.000000
552283.000000
553377.000000
554256.000000
555276.000000
556195.000000
557172.000000
558554.000000
559817.000000
561043.000000
562331.000000
563412.000000
564632.000000
565742.000000
567088.000000
568284.000000
569445.000000
570810.000000
572095.000000
573417.000000
574772.000000
576069.000000
577381.000000
578679.000000
579821.000000
581223.000000
582448.000000
583797.000000
585214.000000
586366.000000
587276.000000
588413.000000
589779.000000
591151.000000
592338.000000
593549.000000
594862.000000
596212.000000
597490.000000
598622.000000
599736.000000
601089.000000
602327.000000
603461.000000
604457.000000
605608.000000
606610.000000
607609.000000
608634.000000
609578.000000
610416.000000
611322.000000
612271.000000
613166.000000
614158.000000
615159.000000
616041.000000
617021.000000
618137.000000
619054.000000
620039.000000
621293.000000
622521.000000
623735.000000
624970.000000
625955.000000
626843.000000
627803.000000
629167.000000
630284.000000
631603.000000
632884.000000
634097.000000
635111.000000
636170.000000
637453.000000
638575.000000
639904.000000
641173.000000
642284.000000
643657.000000
644933.000000
646256.000000
647387.000000
648664.000000
650002.000000
651263.000000
652307.000000
653473.000000
654843.000000
656133.000000
657239.000000
658573.000000
659965.000000
661363.000000
662703.000000
663912.000000
665371.000000
666749.000000
668031.000000
669258.000000
670345.000000
671459.000000
672868.000000
674041.000000
675066.000000
676327.000000
677718.000000
679045.000000
680209.000000
681603.000000
682955.000000
684302.000000
685719.000000
686975.000000
688240.000000
689614.000000
690897.000000
692140.000000
693399.000000
694719.000000
696089.000000
697238.000000
698509.000000
699873.000000
701189.000000
702347.000000
703705.000000
705107.000000
706403.000000
707574.000000
708868.000000
710252.000000
711627.000000
712881.000000
714189.000000
715458.000000
716834.000000
718011.000000
719247.000000
720658.000000
722032.000000
723298.000000
724681.000000
725932.000000
727142.000000
728557.000000
729767.000000
730769.000000
732160.000000
733188.000000
734477.000000
735879.000000
737109.000000
738401.000000
739656.000000
740697.000000
741901.000000
743088.000000
744402.000000
745740.000000
746936.000000
748259.000000
749454.000000
750414.000000
751683.000000
753040.000000
754311.000000
755658.000000
756798.000000
758076.000000
759222.000000
760533.000000
761877.000000
763096.000000
764123.000000
765050.000000
766428.000000
767687.000000
768952.000000
769931.000000
770953.000000
772042.000000
772984.000000
774066.000000
775401.000000
776634.000000
777809.000000
778813.000000
779919.000000
781139.000000
782328.000000
783486.000000
784605.000000
785797.000000
787038.000000
788123.000000
789430.000000
790569.000000
791741.000000
793039.000000
794059.000000
795181.000000
796544.000000
797869.000000
799146.000000
800312.000000
801352.000000
802293.000000
803209.000000
804122.000000
805096.000000
806463.000000
807678.000000
808707.000000
809741.000000
810900.000000
812119.000000
813120.000000
814373.000000
815750.000000
816998.000000
818368.000000
819728.000000
820991.000000
822214.000000
823296.000000
824495.000000
825879.000000
827214.000000
828343.000000
829547.000000
830852.000000
832104.000000
833427.000000
834690.000000
835838.000000
837201.000000
838553.000000
839824.000000
841044.000000
842373.000000
843659.000000
844934.000000
846011.000000
847304.000000
848698.000000
849957.000000
851198.000000
852558.000000
853798.000000
855020.000000
856439.000000
857683.000000
858955.000000
860266.000000
861632.000000
862850.000000
864036.000000
865000.000000
866253.000000
867632.000000
868667.000000
869712.000000
870946.000000
872146.000000
873379.000000
874414.000000
875649.000000
876854.000000
878157.000000
879368.000000
880412.000000
881579.000000
882790.000000
883824.000000
885068.000000
886306.000000
887635.000000
888843.000000
889972.000000
891306.000000
892635.000000
893778.000000
894906.000000
896026.000000
897456.000000
898777.000000
899989.000000
901273.000000
902440.000000
903807.000000
905087.000000
