ECG (ms)
648.000000
1682.000000
2662.000000
3603.000000
4665.000000
5691.000000
6612.000000
7589.000000
8568.000000
9407.000000
10296.000000
11362.000000
12386.000000
13369.000000
14408.000000
15463.000000
16424.000000
17454.000000
18490.000000
19405.000000
20389.000000
21474.000000
22403.000000
23343.000000
24180.000000
25058.000000
26041.000000
26922.000000
27853.000000
28903.000000
29843.000000
30704.000000
31663.000000
32735.000000
33798.000000
34850.000000
35826.000000
36700.000000
37593.000000
38646.000000
39711.000000
40773.000000
41769.000000
42650.000000
43586.000000
44715.000000
45716.000000
46624.000000
47704.000000
48751.000000
49688.000000
50723.000000
51756.000000
52698.000000
53733.000000
54805.000000
55717.000000
56632.000000
57707.000000
58755.000000
59764.000000
60739.000000
61841.000000
62889.000000
63893.000000
64955.000000
65966.000000
66926.000000
67916.000000
68949.000000
69949.000000
70819.000000
71688.000000
72675.000000
73760.000000
74802.000000
75786.000000
76658.000000
77575.000000
78672.000000
79775.000000
80834.000000
81728.000000
82658.000000
83777.000000
84787.000000
85799.000000
86745.000000
87580.000000
88459.000000
89294.000000
90194.000000
91295.000000
92367.000000
93285.000000
94284.000000
95334.000000
96242.000000
97263.000000
98373.000000
99324.000000
100293.000000
101358.000000
102416.000000
103347.000000
104446.000000
105546.000000
106498.000000
107580.000000
108657.000000
109615.000000
110642.000000
111733.000000
112717.000000
113603.000000
114517.000000
115561.000000
116658.000000
117735.000000
118681.000000
119567.000000
120528.000000
121622.000000
122661.000000
123566.000000
124529.000000
125590.000000
126641.000000
127691.000000
128607.000000
129552.000000
130560.000000
131548.000000
132464.000000
133485.000000
134519.000000
135450.000000
136467.000000
137515.000000
138448.000000
139440.000000
140496.000000
141418.000000
142338.000000
143401.000000
144391.000000
145276.000000
146219.000000
147249.000000
148330.000000
149390.000000
150371.000000
151257.000000
152218.000000
153292.000000
154253.000000
155224.000000
156303.000000
157300.000000
158170.000000
159065.000000
160110.000000
161124.000000
162129.000000
163175.000000
164147.000000
165004.000000
165881.000000
166933.000000
168003.000000
169070.000000
170016.000000
170968.000000
172049.000000
173078.000000
173983.000000
174887.000000
175953.000000
177008.000000
177990.000000
179008.000000
180035.000000
180918.000000
181898.000000
182951.000000
183894.000000
184930.000000
186020.000000
186973.000000
187917.000000
188927.000000
189896.000000
190825.000000
191849.000000
192851.000000
193773.000000
194853.000000
195904.000000
196809.000000
197766.000000
198776.000000
199710.000000
200760.000000
201784.000000
202677.000000
203645.000000
204728.000000
205685.000000
206618.000000
207667.000000
208734.000000
209761.000000
210834.000000
211844.000000
212774.000000
213750.000000
214771.000000
215677.000000
216653.000000
217708.000000
218630.000000
219605.000000
220674.000000
221589.000000
222533.000000
223582.000000
224551.000000
225411.000000
226323.000000
227364.000000
228414.000000
229417.000000
230287.000000
231133.000000
231967.000000
232747.000000
233603.000000
234427.000000
235216.000000
236065.000000
237129.000000
238173.000000
239218.000000
240188.000000
241036.000000
241871.000000
242877.000000
243926.000000
244830.000000
245735.000000
246801.000000
247823.000000
248733.000000
249758.000000
250830.000000
251768.000000
252764.000000
253842.000000
254814.000000
255771.000000
256816.000000
257805.000000
258708.000000
259722.000000
260812.000000
261779.000000
262773.000000
263827.000000
264736.000000
265688.000000
266736.000000
267743.000000
268677.000000
269686.000000
270705.000000
271627.000000
272597.000000
273600.000000
274502.000000
275496.000000
276549.000000
277487.000000
278518.000000
279597.000000
280516.000000
281531.000000
282583.000000
283573.000000
284672.000000
285694.000000
286633.000000
287676.000000
288658.000000
289563.000000
290547.000000
291573.000000
292486.000000
293486.000000
294515.000000
295437.000000
296444.000000
297484.000000
298398.000000
299349.000000
300324.000000
301181.000000
302039.000000
302949.000000
303961.000000
304976.000000
305839.000000
306695.000000
307658.000000
308707.000000
309625.000000
310614.000000
311644.000000
312560.000000
313456.000000
314333.000000
315155.000000
316009.000000
317057.000000
318102.000000
319136.000000
320238.000000
321294.000000
322220.000000
323172.000000
324255.000000
325275.000000
326294.000000
327450.000000
328552.000000
329457.000000
330287.000000
331057.000000
332247.000000
333300.000000
334216.000000
335196.000000
336357.000000
337390.000000
338339.000000
339437.000000
340577.000000
341615.000000
342704.000000
343817.000000
344895.000000
345814.000000
346787.000000
347799.000000
348773.000000
349636.000000
350501.000000
351500.000000
352467.000000
353368.000000
354379.000000
355359.000000
356209.000000
357061.000000
358044.000000
359118.000000
360040.000000
360968.000000
361976.000000
363008.000000
363903.000000
364899.000000
365938.000000
366859.000000
367839.000000
368887.000000
369877.000000
370791.000000
371763.000000
372703.000000
373533.000000
374414.000000
375417.000000
376362.000000
377229.000000
378166.000000
379149.000000
380012.000000
380826.000000
381651.000000
382527.000000
383507.000000
384483.000000
385336.000000
386174.000000
387183.000000
388197.000000
389086.000000
390059.000000
391071.000000
391951.000000
392798.000000
393767.000000
394827.000000
395737.000000
396696.000000
397730.000000
398735.000000
399663.000000
400673.000000
401708.000000
402592.000000
403470.000000
404372.000000
405298.000000
406199.000000
407014.000000
407792.000000
408612.000000
409636.000000
410555.000000
411509.000000
412562.000000
413481.000000
414436.000000
415437.000000
416339.000000
417282.000000
418327.000000
419324.000000
420226.000000
421234.000000
422307.000000
423304.000000
424203.000000
425122.000000
426107.000000
427038.000000
427995.000000
429008.000000
429996.000000
430931.000000
431925.000000
432868.000000
433734.000000
434743.000000
435791.000000
436706.000000
437600.000000
438507.000000
439366.000000
440356.000000
441427.000000
442348.000000
443352.000000
444466.000000
445422.000000
446446.000000
447462.000000
448392.000000
449404.000000
450438.000000
451344.000000
452187.000000
453019.000000
453897.000000
454707.000000
455506.000000
456297.000000
457102.000000
457994.000000
459000.000000
459887.000000
460798.000000
461743.000000
462593.000000
463439.000000
464370.000000
465306.000000
466140.000000
467001.000000
467890.000000
468710.000000
469535.000000
470445.000000
471492.000000
472522.000000
473413.000000
474363.000000
475361.000000
476271.000000
477093.000000
477967.000000
478994.000000
479990.000000
480967.000000
482038.000000
483103.000000
484068.000000
485108.000000
486141.000000
487051.000000
487965.000000
488885.000000
489845.000000
490688.000000
491541.000000
492469.000000
493478.000000
494415.000000
495436.000000
496452.000000
497355.000000
498291.000000
499284.000000
500180.000000
501098.000000
502125.000000
503146.000000
504059.000000
505028.000000
505999.000000
506878.000000
507866.000000
508918.000000
509838.000000
510815.000000
511883.000000
512880.000000
513832.000000
514885.000000
515841.000000
516672.000000
517453.000000
518255.000000
519392.000000
520541.000000
521676.000000
522757.000000
523791.000000
524917.000000
526029.000000
527077.000000
527983.000000
528904.000000
529889.000000
530744.000000
531624.000000
532615.000000
533552.000000
534412.000000
535321.000000
536356.000000
537285.000000
538264.000000
539192.000000
540032.000000
540871.000000
541799.000000
542646.000000
543495.000000
544525.000000
545555.000000
546504.000000
547477.000000
548429.000000
549291.000000
550182.000000
551184.000000
552102.000000
553084.000000
554126.000000
555095.000000
555977.000000
556871.000000
557821.000000
558709.000000
559578.000000
560536.000000
561498.000000
562365.000000
563199.000000
564103.000000
565042.000000
565921.000000
566878.000000
567917.000000
568846.000000
569816.000000
570837.000000
571774.000000
572727.000000
573761.000000
574781.000000
575657.000000
576598.000000
577613.000000
578679.000000
579620.000000
580580.000000
581673.000000
582630.000000
583594.000000
584636.000000
585608.000000
586574.000000
587598.000000
588548.000000
589453.000000
590405.000000
591450.000000
592453.000000
593500.000000
594511.000000
595445.000000
596351.000000
597250.000000
598151.000000
598971.000000
599766.000000
600629.000000
601613.000000
602455.000000
603272.000000
604088.000000
604911.000000
605681.000000
606455.000000
607264.000000
608075.000000
608848.000000
609583.000000
610389.000000
611363.000000
612250.000000
613162.000000
614132.000000
615049.000000
615923.000000
616834.000000
617826.000000
618707.000000
619603.000000
620566.000000
621545.000000
622431.000000
623391.000000
624414.000000
625326.000000
626175.000000
627055.000000
627985.000000
628840.000000
629774.000000
630806.000000
631801.000000
632697.000000
633656.000000
634673.000000
635544.000000
636383.000000
637243.000000
638116.000000
638919.000000
639764.000000
640762.000000
641712.000000
642661.000000
643709.000000
644654.000000
645562.000000
646568.000000
647604.000000
648481.000000
649346.000000
650276.000000
651338.000000
652303.000000
653257.000000
654214.000000
655133.000000
655995.000000
656912.000000
657982.000000
658923.000000
659841.000000
660836.000000
661801.000000
662679.000000
663578.000000
664469.000000
665289.000000
666113.000000
666990.000000
667946.000000
668835.000000
669761.000000
670743.000000
671640.000000
672552.000000
673480.000000
674385.000000
675286.000000
676179.000000
677041.000000
677836.000000
678645.000000
679560.000000
680449.000000
681283.000000
682173.000000
683100.000000
683975.000000
684829.000000
685718.000000
686656.000000
687537.000000
688466.000000
689385.000000
690201.000000
691039.000000
691907.000000
692756.000000
693551.000000
694394.000000
695460.000000
696491.000000
697421.000000
698354.000000
699328.000000
700172.000000
700994.000000
701857.000000
702817.000000
703687.000000
704610.000000
705632.000000
706633.000000
707638.000000
708708.000000
709704.000000
710574.000000
711507.000000
712563.000000
713509.000000
714416.000000
715386.000000
716364.000000
717249.000000
718187.000000
719166.000000
720041.000000
720919.000000
721797.000000
722613.000000
723411.000000
724258.000000
725303.000000
726317.000000
727221.000000
728193.000000
729211.000000
730165.000000
731187.000000
732252.000000
733196.000000
734164.000000
735161.000000
736078.000000
737065.000000
738135.000000
739081.000000
739968.000000
740961.000000
741986.000000
742905.000000
743879.000000
744852.000000
745705.000000
746581.000000
747506.000000
748357.000000
749242.000000
750169.000000
751002.000000
751835.000000
752723.000000
753656.000000
754490.000000
755375.000000
756386.000000
757317.000000
758277.000000
759322.000000
760323.000000
761229.000000
762217.000000
763262.000000
764188.000000
765135.000000
766180.000000
767238.000000
768262.000000
769269.000000
770198.000000
771168.000000
772193.000000
773086.000000
773952.000000
774818.000000
775675.000000
776507.000000
777325.000000
778165.000000
779039.000000
780004.000000
781072.000000
782001.000000
782942.000000
783962.000000
784965.000000
785855.000000
786772.000000
787745.000000
788606.000000
789461.000000
790347.000000
791207.000000
792035.000000
792988.000000
794011.000000
794936.000000
795973.000000
797038.000000
797927.000000
798827.000000
799881.000000
800924.000000
801831.000000
802898.000000
803958.000000
804954.000000
806012.000000
807055.000000
807961.000000
808861.000000
809738.000000
810602.000000
811474.000000
812459.000000
813505.000000
814429.000000
815415.000000
816379.000000
817300.000000
818335.000000
819252.000000
820091.000000
820923.000000
821953.000000
822929.000000
823983.000000
825019.000000
826009.000000
827037.000000
828009.000000
828899.000000
829853.000000
830891.000000
831781.000000
832689.000000
833717.000000
834684.000000
835515.000000
836350.000000
837212.000000
838028.000000
838847.000000
839726.000000
840672.000000
841521.000000
842440.000000
843507.000000
844538.000000
845453.000000
846348.000000
847246.000000
848127.000000
849138.000000
850065.000000
850945.000000
851850.000000
852754.000000
853585.000000
854392.000000
855266.000000
856122.000000
856930.000000
857734.000000
858562.000000
859409.000000
860176.000000
860974.000000
861791.000000
862625.000000
863440.000000
864354.000000
865329.000000
866168.000000
866963.000000
867769.000000
868579.000000
869363.000000
870139.000000
870906.000000
871857.000000
872981.000000
873912.000000
874884.000000
875760.000000
876630.000000
877439.000000
878272.000000
879358.000000
880276.000000
881149.000000
882161.000000
883254.000000
884159.000000
885063.000000
886054.000000
887006.000000
887856.000000
888737.000000
889703.000000
890585.000000
891428.000000
892368.000000
893441.000000
894453.000000
895391.000000
896346.000000
897374.000000
898324.000000
899362.000000
900463.000000
901423.000000
902380.000000
903340.000000
904266.000000
905100.000000
905959.000000
906893.000000
907767.000000
908657.000000
909672.000000
910735.000000
911781.000000
912757.000000
913583.000000
914383.000000
915424.000000
916588.000000
