ECG (ms)
550.000000
1407.000000
2198.000000
2938.000000
3660.000000
4347.000000
5022.000000
5776.000000
6695.000000
7596.000000
8460.000000
9286.000000
10065.000000
10831.000000
11631.000000
12520.000000
13328.000000
14085.000000
14847.000000
15649.000000
16449.000000
17252.000000
18125.000000
18978.000000
19750.000000
20509.000000
21271.000000
22016.000000
22739.000000
23488.000000
24267.000000
25101.000000
25907.000000
26773.000000
27698.000000
28634.000000
29461.000000
30231.000000
31005.000000
31817.000000
32621.000000
33373.000000
34113.000000
34934.000000
35953.000000
36846.000000
37686.000000
38497.000000
39285.000000
40045.000000
40796.000000
41606.000000
42573.000000
43420.000000
44282.000000
45144.000000
45939.000000
46687.000000
47445.000000
48274.000000
49145.000000
49928.000000
50717.000000
51598.000000
52558.000000
53376.000000
54171.000000
54968.000000
55755.000000
56519.000000
57351.000000
58303.000000
59172.000000
60011.000000
60852.000000
61663.000000
62429.000000
63241.000000
64111.000000
64958.000000
65735.000000
66536.000000
67371.000000
68181.000000
68976.000000
69836.000000
70686.000000
71482.000000
72314.000000
73243.000000
74164.000000
74969.000000
75804.000000
76653.000000
77432.000000
78168.000000
78942.000000
79877.000000
80766.000000
81573.000000
82418.000000
83286.000000
84091.000000
84845.000000
85623.000000
86495.000000
87341.000000
88124.000000
88895.000000
89692.000000
90477.000000
91235.000000
92005.000000
92819.000000
93652.000000
94415.000000
95167.000000
95919.000000
96657.000000
97370.000000
98069.000000
98751.000000
99415.000000
100098.000000
100836.000000
101580.000000
102397.000000
103229.000000
104031.000000
104767.000000
105486.000000
106237.000000
107057.000000
107825.000000
108561.000000
109344.000000
110291.000000
111146.000000
111910.000000
112654.000000
113419.000000
114164.000000
114896.000000
115631.000000
116417.000000
117201.000000
117946.000000
118687.000000
119482.000000
120337.000000
121104.000000
121827.000000
122577.000000
123366.000000
124151.000000
124911.000000
125726.000000
126654.000000
127498.000000
128261.000000
129040.000000
129914.000000
130737.000000
131490.000000
132238.000000
133000.000000
133752.000000
134474.000000
135219.000000
136082.000000
136890.000000
137640.000000
138395.000000
139167.000000
139922.000000
140662.000000
141402.000000
142181.000000
142978.000000
143743.000000
144472.000000
145221.000000
146018.000000
146792.000000
147522.000000
148257.000000
149021.000000
149802.000000
150564.000000
151343.000000
152146.000000
152944.000000
153695.000000
154453.000000
155234.000000
156030.000000
156808.000000
157638.000000
158538.000000
159357.000000
160111.000000
160874.000000
161724.000000
162584.000000
163393.000000
164273.000000
165218.000000
166124.000000
166898.000000
167653.000000
168410.000000
169169.000000
169925.000000
170753.000000
171763.000000
172695.000000
173547.000000
174378.000000
175186.000000
175966.000000
176694.000000
177431.000000
178189.000000
178962.000000
179709.000000
180468.000000
181279.000000
182069.000000
182813.000000
183554.000000
184311.000000
185059.000000
185779.000000
186508.000000
187251.000000
187993.000000
188710.000000
189425.000000
190156.000000
190920.000000
191658.000000
192396.000000
193167.000000
193938.000000
194679.000000
195420.000000
196185.000000
196984.000000
197743.000000
198489.000000
199251.000000
200015.000000
200751.000000
201489.000000
202265.000000
203096.000000
203881.000000
204671.000000
205486.000000
206260.000000
206993.000000
207728.000000
208480.000000
209239.000000
209991.000000
210760.000000
211659.000000
212529.000000
213320.000000
214122.000000
214946.000000
215717.000000
216509.000000
217377.000000
218230.000000
219007.000000
219780.000000
220569.000000
221341.000000
222073.000000
222828.000000
223647.000000
224504.000000
225320.000000
226158.000000
226974.000000
227719.000000
228432.000000
229176.000000
230200.000000
231162.000000
232057.000000
232922.000000
233754.000000
234541.000000
235286.000000
236067.000000
237010.000000
237983.000000
238898.000000
239709.000000
240498.000000
241322.000000
242136.000000
242908.000000
243732.000000
244771.000000
245712.000000
246597.000000
247486.000000
248357.000000
249190.000000
249979.000000
250841.000000
251798.000000
252689.000000
253528.000000
254462.000000
255371.000000
256181.000000
257012.000000
257903.000000
258748.000000
259612.000000
260506.000000
261397.000000
262212.000000
263003.000000
263848.000000
264758.000000
265603.000000
266482.000000
267385.000000
268200.000000
268971.000000
269766.000000
270566.000000
271337.000000
272079.000000
272846.000000
273654.000000
274492.000000
275314.000000
276177.000000
277009.000000
277766.000000
278530.000000
279319.000000
280093.000000
280849.000000
281638.000000
282458.000000
283279.000000
284055.000000
284852.000000
285685.000000
286530.000000
287316.000000
288121.000000
288984.000000
289844.000000
290650.000000
291481.000000
292339.000000
293167.000000
293967.000000
294891.000000
295830.000000
296643.000000
297420.000000
298243.000000
299154.000000
300015.000000
300885.000000
301855.000000
302751.000000
303543.000000
304313.000000
305098.000000
305962.000000
306793.000000
307596.000000
308509.000000
309405.000000
310220.000000
311047.000000
311892.000000
312703.000000
313466.000000
314242.000000
315025.000000
315774.000000
316518.000000
317328.000000
318233.000000
319075.000000
319851.000000
320632.000000
321366.000000
322056.000000
322747.000000
323445.000000
324134.000000
324823.000000
325580.000000
326586.000000
327506.000000
328350.000000
329188.000000
330032.000000
330861.000000
331635.000000
332433.000000
333308.000000
334149.000000
334954.000000
335853.000000
336735.000000
337563.000000
338450.000000
339380.000000
340214.000000
341023.000000
341863.000000
342725.000000
343528.000000
344321.000000
345159.000000
345991.000000
346773.000000
347586.000000
348465.000000
349319.000000
350094.000000
350886.000000
351747.000000
352574.000000
353358.000000
354165.000000
355039.000000
355852.000000
356639.000000
357462.000000
358273.000000
359028.000000
359770.000000
360511.000000
361258.000000
361997.000000
362784.000000
363597.000000
364384.000000
365132.000000
365895.000000
366700.000000
367494.000000
368242.000000
368983.000000
369754.000000
370555.000000
371331.000000
372091.000000
372920.000000
373799.000000
374609.000000
375427.000000
376259.000000
377076.000000
377847.000000
378642.000000
379519.000000
380403.000000
381239.000000
382127.000000
383032.000000
383869.000000
384764.000000
385702.000000
386526.000000
387316.000000
388167.000000
389106.000000
389948.000000
390843.000000
391840.000000
392751.000000
393552.000000
394331.000000
395090.000000
395848.000000
396604.000000
397430.000000
398517.000000
399489.000000
400420.000000
401270.000000
402077.000000
402826.000000
403581.000000
404406.000000
405275.000000
406086.000000
406966.000000
407870.000000
408691.000000
409466.000000
410271.000000
411132.000000
411939.000000
412690.000000
413400.000000
414117.000000
414997.000000
416004.000000
416933.000000
417828.000000
418623.000000
419358.000000
420094.000000
420890.000000
421894.000000
422794.000000
423722.000000
424650.000000
425524.000000
426307.000000
427107.000000
427929.000000
428725.000000
429607.000000
430584.000000
431513.000000
432379.000000
433265.000000
434155.000000
434967.000000
435767.000000
436608.000000
437517.000000
438350.000000
439156.000000
439948.000000
440733.000000
441476.000000
442220.000000
442978.000000
443756.000000
444510.000000
445292.000000
446079.000000
446852.000000
447620.000000
448414.000000
449224.000000
449983.000000
450731.000000
451505.000000
452335.000000
453113.000000
453916.000000
454766.000000
455574.000000
456336.000000
457112.000000
457908.000000
458719.000000
459491.000000
460259.000000
461106.000000
461941.000000
462701.000000
463450.000000
464208.000000
464975.000000
465713.000000
466463.000000
467256.000000
468071.000000
468842.000000
469593.000000
470354.000000
471126.000000
471873.000000
472612.000000
473406.000000
474332.000000
475171.000000
475986.000000
476825.000000
477675.000000
478489.000000
479248.000000
480016.000000
480827.000000
481683.000000
482483.000000
483290.000000
484140.000000
484980.000000
485766.000000
486488.000000
487201.000000
487937.000000
488720.000000
489471.000000
490180.000000
490884.000000
491646.000000
492514.000000
493352.000000
494174.000000
495013.000000
495869.000000
496663.000000
497444.000000
498278.000000
499196.000000
500058.000000
500939.000000
501821.000000
502675.000000
503466.000000
504269.000000
505085.000000
505894.000000
506690.000000
507552.000000
508451.000000
509270.000000
510058.000000
510889.000000
511767.000000
512580.000000
513382.000000
514250.000000
515150.000000
515978.000000
516860.000000
517805.000000
518698.000000
519503.000000
520312.000000
521169.000000
522009.000000
522806.000000
523626.000000
524628.000000
525489.000000
526312.000000
527189.000000
528068.000000
528874.000000
529721.000000
530631.000000
531495.000000
532314.000000
533181.000000
534078.000000
534883.000000
535700.000000
536551.000000
537354.000000
538113.000000
538910.000000
539768.000000
540606.000000
541393.000000
542218.000000
543049.000000
543822.000000
544562.000000
545323.000000
546119.000000
546904.000000
547694.000000
548603.000000
549558.000000
550395.000000
551185.000000
551991.000000
552827.000000
553627.000000
554392.000000
555213.000000
556196.000000
557096.000000
557916.000000
558752.000000
559609.000000
560441.000000
561282.000000
562223.000000
563129.000000
563928.000000
564736.000000
565596.000000
566437.000000
567243.000000
568158.000000
569186.000000
570076.000000
570876.000000
571694.000000
572545.000000
573356.000000
574135.000000
574994.000000
575961.000000
576831.000000
577681.000000
578546.000000
579365.000000
580134.000000
580930.000000
581765.000000
582567.000000
583378.000000
584177.000000
584945.000000
585707.000000
586452.000000
587206.000000
588041.000000
588879.000000
589649.000000
590362.000000
591053.000000
591755.000000
592526.000000
593548.000000
594494.000000
595437.000000
596365.000000
597224.000000
597994.000000
598763.000000
599614.000000
600488.000000
600884.000000
601677.000000
602689.000000
603642.000000
604573.000000
605480.000000
606285.000000
607025.000000
607767.000000
608598.000000
609603.000000
610560.000000
611461.000000
612292.000000
613179.000000
614091.000000
614995.000000
615846.000000
616632.000000
617440.000000
618262.000000
619127.000000
619943.000000
620796.000000
621709.000000
622606.000000
623430.000000
624301.000000
