ECG (ms)
48.000000
909.000000
1793.000000
2706.000000
3618.000000
4500.000000
5368.000000
6276.000000
7225.000000
8149.000000
9025.000000
9912.000000
10826.000000
11757.000000
12639.000000
13480.000000
14348.000000
15236.000000
16124.000000
16992.000000
17840.000000
18731.000000
19626.000000
20553.000000
21424.000000
22297.000000
23201.000000
24115.000000
25005.000000
25875.000000
26758.000000
27670.000000
28585.000000
29466.000000
30325.000000
31226.000000
32142.000000
33063.000000
33938.000000
34832.000000
35744.000000
36630.000000
37489.000000
38335.000000
39210.000000
40093.000000
40979.000000
41882.000000
42776.000000
43691.000000
44582.000000
45446.000000
46371.000000
47328.000000
48247.000000
49125.000000
50034.000000
50949.000000
51824.000000
52694.000000
53582.000000
54488.000000
55366.000000
56264.000000
57212.000000
58137.000000
59007.000000
59897.000000
60811.000000
61711.000000
62588.000000
63489.000000
64441.000000
65404.000000
66298.000000
67183.000000
68100.000000
69009.000000
69880.000000
70732.000000
71628.000000
72561.000000
73454.000000
74344.000000
75272.000000
76247.000000
77172.000000
78064.000000
78998.000000
79945.000000
80849.000000
81729.000000
82639.000000
83545.000000
84460.000000
85331.000000
86203.000000
87115.000000
88012.000000
88881.000000
89744.000000
90635.000000
91536.000000
92414.000000
93260.000000
94126.000000
95003.000000
95888.000000
96736.000000
97601.000000
98491.000000
99387.000000
100255.000000
101111.000000
101992.000000
102895.000000
103754.000000
104600.000000
105475.000000
106364.000000
107244.000000
108099.000000
108965.000000
109859.000000
110763.000000
111634.000000
112511.000000
113419.000000
114308.000000
115158.000000
115999.000000
116873.000000
117761.000000
118637.000000
119489.000000
120387.000000
121301.000000
122175.000000
123044.000000
123925.000000
124811.000000
125655.000000
126517.000000
127395.000000
128259.000000
129133.000000
130043.000000
130941.000000
131807.000000
132688.000000
133602.000000
134504.000000
135378.000000
136271.000000
137203.000000
138103.000000
138971.000000
139864.000000
140782.000000
141709.000000
142605.000000
143491.000000
144414.000000
145346.000000
146256.000000
147133.000000
147977.000000
148823.000000
149715.000000
150661.000000
151634.000000
152590.000000
153477.000000
154367.000000
155303.000000
156237.000000
157162.000000
158054.000000
158993.000000
159919.000000
160822.000000
161694.000000
162591.000000
163518.000000
164485.000000
165390.000000
166272.000000
167174.000000
168101.000000
169073.000000
169963.000000
170854.000000
171806.000000
172763.000000
173655.000000
174542.000000
175458.000000
176362.000000
177236.000000
178129.000000
179053.000000
179986.000000
180862.000000
181753.000000
182681.000000
183591.000000
184453.000000
185338.000000
186262.000000
187168.000000
188045.000000
188955.000000
189922.000000
190899.000000
191805.000000
192735.000000
193683.000000
194642.000000
195545.000000
196490.000000
197432.000000
198378.000000
199294.000000
200237.000000
201185.000000
202086.000000
203027.000000
203963.000000
204877.000000
205769.000000
206692.000000
207635.000000
208537.000000
209434.000000
210329.000000
211216.000000
212090.000000
212987.000000
213885.000000
214752.000000
215603.000000
216491.000000
217406.000000
218306.000000
219194.000000
220113.000000
221027.000000
221922.000000
222814.000000
223757.000000
224676.000000
225559.000000
226458.000000
227392.000000
228308.000000
229226.000000
230133.000000
231058.000000
231964.000000
232837.000000
233731.000000
234662.000000
235597.000000
236490.000000
237400.000000
238313.000000
239211.000000
240081.000000
240966.000000
241890.000000
242801.000000
243670.000000
244577.000000
245486.000000
246349.000000
247215.000000
248100.000000
249017.000000
249886.000000
250782.000000
251714.000000
252608.000000
253477.000000
254370.000000
255280.000000
256130.000000
257014.000000
257892.000000
258749.000000
259583.000000
260440.000000
261325.000000
262199.000000
263122.000000
264058.000000
264952.000000
265858.000000
266805.000000
267715.000000
268598.000000
269529.000000
270476.000000
271382.000000
272270.000000
273173.000000
274090.000000
274976.000000
275876.000000
276798.000000
277667.000000
278537.000000
279425.000000
280314.000000
281163.000000
282053.000000
282957.000000
283842.000000
284708.000000
285615.000000
286535.000000
287414.000000
288282.000000
289168.000000
290055.000000
290944.000000
291797.000000
292664.000000
293563.000000
294446.000000
295311.000000
296193.000000
297068.000000
297932.000000
298776.000000
299633.000000
300509.000000
301385.000000
302235.000000
303097.000000
303980.000000
304844.000000
305690.000000
306563.000000
307454.000000
308309.000000
309155.000000
310043.000000
310924.000000
311775.000000
312625.000000
313504.000000
314376.000000
315228.000000
316110.000000
317013.000000
317891.000000
318738.000000
319615.000000
320490.000000
321345.000000
322205.000000
323111.000000
324012.000000
324868.000000
325764.000000
326655.000000
327524.000000
328367.000000
329234.000000
330104.000000
330965.000000
331799.000000
332654.000000
333554.000000
334472.000000
335350.000000
336244.000000
337185.000000
338113.000000
339006.000000
339893.000000
340810.000000
341788.000000
342712.000000
343590.000000
344516.000000
345461.000000
346356.000000
347244.000000
348162.000000
349112.000000
350029.000000
350947.000000
351891.000000
352850.000000
353755.000000
354630.000000
355536.000000
356467.000000
357393.000000
358298.000000
359244.000000
360211.000000
361119.000000
362019.000000
362951.000000
363875.000000
364762.000000
365650.000000
366552.000000
367463.000000
368330.000000
369230.000000
370147.000000
371052.000000
371931.000000
372852.000000
373785.000000
374687.000000
375574.000000
376503.000000
377435.000000
378324.000000
379237.000000
380171.000000
381104.000000
381990.000000
382923.000000
383883.000000
384797.000000
385670.000000
386594.000000
387542.000000
388462.000000
389347.000000
390292.000000
391289.000000
392212.000000
393141.000000
394097.000000
395044.000000
395939.000000
396863.000000
397805.000000
398766.000000
399675.000000
400665.000000
401728.000000
402720.000000
403662.000000
404634.000000
405581.000000
406473.000000
407371.000000
408301.000000
409243.000000
410140.000000
411063.000000
412025.000000
412976.000000
413864.000000
414746.000000
415647.000000
416571.000000
417461.000000
418353.000000
419298.000000
420255.000000
421179.000000
422100.000000
423058.000000
424014.000000
424911.000000
425851.000000
426808.000000
427714.000000
428629.000000
429561.000000
430507.000000
431392.000000
432320.000000
433248.000000
434176.000000
435061.000000
435988.000000
436936.000000
437875.000000
438750.000000
439651.000000
440548.000000
441449.000000
442321.000000
443227.000000
444141.000000
445036.000000
445924.000000
446843.000000
447734.000000
448606.000000
449490.000000
450391.000000
451296.000000
452145.000000
453011.000000
453908.000000
454798.000000
455669.000000
456565.000000
457495.000000
458396.000000
459273.000000
460209.000000
461142.000000
462037.000000
462911.000000
463804.000000
464704.000000
465560.000000
466442.000000
467323.000000
468198.000000
469053.000000
469951.000000
470883.000000
471777.000000
472655.000000
473554.000000
474475.000000
475348.000000
476232.000000
477127.000000
478025.000000
478890.000000
479793.000000
480708.000000
481618.000000
482501.000000
483430.000000
484350.000000
485263.000000
486167.000000
487071.000000
487965.000000
488826.000000
489705.000000
490625.000000
491525.000000
492400.000000
493341.000000
494301.000000
495222.000000
496129.000000
497066.000000
498000.000000
498890.000000
499811.000000
500767.000000
501665.000000
502575.000000
503517.000000
504431.000000
505311.000000
506247.000000
507199.000000
508119.000000
509016.000000
509949.000000
510875.000000
511783.000000
512686.000000
513652.000000
514610.000000
515500.000000
516414.000000
517352.000000
518310.000000
519191.000000
520104.000000
521043.000000
521948.000000
522811.000000
523707.000000
524612.000000
525512.000000
526390.000000
527322.000000
528332.000000
529282.000000
530186.000000
531121.000000
532057.000000
532948.000000
533863.000000
534804.000000
535758.000000
536661.000000
537602.000000
538540.000000
539450.000000
540334.000000
541256.000000
542213.000000
543147.000000
544061.000000
544998.000000
545942.000000
546837.000000
547746.000000
548705.000000
549672.000000
550589.000000
551548.000000
552539.000000
553488.000000
554381.000000
555313.000000
556244.000000
557130.000000
558003.000000
558913.000000
559847.000000
560759.000000
561685.000000
562677.000000
563658.000000
564557.000000
565517.000000
566496.000000
567441.000000
568328.000000
569263.000000
570216.000000
571154.000000
572051.000000
572987.000000
573959.000000
574907.000000
575792.000000
576711.000000
577629.000000
578579.000000
579486.000000
580448.000000
581408.000000
582348.000000
583242.000000
584186.000000
585163.000000
586143.000000
587058.000000
588020.000000
589015.000000
589993.000000
590928.000000
591843.000000
592840.000000
593865.000000
594861.000000
595780.000000
596729.000000
597718.000000
598675.000000
599579.000000
600512.000000
601490.000000
602426.000000
603319.000000
604281.000000
605269.000000
606237.000000
607140.000000
608081.000000
609044.000000
609975.000000
610890.000000
611868.000000
612847.000000
613775.000000
614696.000000
615633.000000
616562.000000
617456.000000
618337.000000
619243.000000
620128.000000
620968.000000
621832.000000
622713.000000
623604.000000
624519.000000
625465.000000
626405.000000
627323.000000
628261.000000
629218.000000
630175.000000
631069.000000
632018.000000
632981.000000
633887.000000
634768.000000
635697.000000
636663.000000
637609.000000
638530.000000
639501.000000
640507.000000
641464.000000
642372.000000
643316.000000
644294.000000
645242.000000
646143.000000
647086.000000
648076.000000
649095.000000
650030.000000
650990.000000
651960.000000
652931.000000
653847.000000
654810.000000
655805.000000
656742.000000
657625.000000
658548.000000
659490.000000
660395.000000
661294.000000
662229.000000
663191.000000
664086.000000
664978.000000
665899.000000
666801.000000
667676.000000
668571.000000
669518.000000
670441.000000
671326.000000
672265.000000
673222.000000
674139.000000
675040.000000
675982.000000
676913.000000
677817.000000
678732.000000
679665.000000
680597.000000
681483.000000
682386.000000
683302.000000
684221.000000
685090.000000
685977.000000
686889.000000
687798.000000
688680.000000
689610.000000
690532.000000
691424.000000
692326.000000
693238.000000
694148.000000
695031.000000
695952.000000
696880.000000
697784.000000
698727.000000
699678.000000
700590.000000
701486.000000
702410.000000
703340.000000
704231.000000
705170.000000
706129.000000
707039.000000
707931.000000
708892.000000
709865.000000
710789.000000
711712.000000
712642.000000
713582.000000
714473.000000
715404.000000
716325.000000
717256.000000
718156.000000
719102.000000
720052.000000
720973.000000
721884.000000
722840.000000
723797.000000
724696.000000
725614.000000
726572.000000
727495.000000
728392.000000
729333.000000
730285.000000
731193.000000
732113.000000
733069.000000
734020.000000
734920.000000
735843.000000
736789.000000
737711.000000
738585.000000
739496.000000
740418.000000
741344.000000
742234.000000
743150.000000
744091.000000
745006.000000
745905.000000
746841.000000
747784.000000
748676.000000
749586.000000
750516.000000
751413.000000
752292.000000
753208.000000
754127.000000
755009.000000
755904.000000
756824.000000
757757.000000
758670.000000
759571.000000
760514.000000
761454.000000
762367.000000
763285.000000
764284.000000
765285.000000
766220.000000
767157.000000
768104.000000
769041.000000
769942.000000
770884.000000
771844.000000
772776.000000
773662.000000
774587.000000
775516.000000
776408.000000
777288.000000
778207.000000
779158.000000
780074.000000
780982.000000
781929.000000
782887.000000
783812.000000
784737.000000
785697.000000
786666.000000
787548.000000
788439.000000
789345.000000
790246.000000
791138.000000
792077.000000
793088.000000
794072.000000
795004.000000
796024.000000
797024.000000
797949.000000
798901.000000
799880.000000
800858.000000
801757.000000
802722.000000
803682.000000
804610.000000
805535.000000
806540.000000
807536.000000
808488.000000
809448.000000
810420.000000
811374.000000
812277.000000
813228.000000
814193.000000
815129.000000
816024.000000
816955.000000
817905.000000
818835.000000
819725.000000
820648.000000
821600.000000
822529.000000
823420.000000
824338.000000
825276.000000
826212.000000
827094.000000
828020.000000
828968.000000
829936.000000
830856.000000
831809.000000
832814.000000
833812.000000
834748.000000
835661.000000
836626.000000
837640.000000
838560.000000
839476.000000
840441.000000
841388.000000
842280.000000
843210.000000
844159.000000
845089.000000
845970.000000
846909.000000
847872.000000
848778.000000
849670.000000
850621.000000
851552.000000
852426.000000
853346.000000
854272.000000
855168.000000
856055.000000
856980.000000
857894.000000
858762.000000
859663.000000
860581.000000
861456.000000
862327.000000
863213.000000
864103.000000
864963.000000
865848.000000
866756.000000
867627.000000
868486.000000
869371.000000
870269.000000
871129.000000
871994.000000
872883.000000
873760.000000
874616.000000
875483.000000
876371.000000
877221.000000
878087.000000
878954.000000
879839.000000
880688.000000
881568.000000
882479.000000
883359.000000
884232.000000
885154.000000
886087.000000
886968.000000
887878.000000
888813.000000
889780.000000
890675.000000
891601.000000
892561.000000
893472.000000
894361.000000
895287.000000
896232.000000
897174.000000
898048.000000
898984.000000
899931.000000
900837.000000
901727.000000
902663.000000
903616.000000
904525.000000
905418.000000
906338.000000
907257.000000
908139.000000
909041.000000
909888.000000
910715.000000
911532.000000
912357.000000
913178.000000
914041.000000
914960.000000
915868.000000
916754.000000
917706.000000
918722.000000
919657.000000
920549.000000
921498.000000
922457.000000
923401.000000
924279.000000
925197.000000
926167.000000
927136.000000
928030.000000
928982.000000
929961.000000
930928.000000
931835.000000
932788.000000
933780.000000
934749.000000
935676.000000
936697.000000
937700.000000
938608.000000
939558.000000
940557.000000
941524.000000
942436.000000
943432.000000
944417.000000
945332.000000
946284.000000
947288.000000
948267.000000
949189.000000
950134.000000
951099.000000
952017.000000
952916.000000
953864.000000
954829.000000
955758.000000
956721.000000
957745.000000
958777.000000
959692.000000
960721.000000
961747.000000
962723.000000
963653.000000
964623.000000
965600.000000
966524.000000
967409.000000
968355.000000
969309.000000
970264.000000
971159.000000
972084.000000
973029.000000
973984.000000
974860.000000
975735.000000
976595.000000
977453.000000
978289.000000
979151.000000
979991.000000
980803.000000
981603.000000
982433.000000
983318.000000
984280.000000
985284.000000
986308.000000
987280.000000
988303.000000
989346.000000
990392.000000
991330.000000
992334.000000
993332.000000
994257.000000
995166.000000
996069.000000
996959.000000
997863.000000
998735.000000
999589.000000
1000490.000000
1001352.000000
1002204.000000
1003089.000000
1003967.000000
1004898.000000
1005849.000000
1006765.000000
1007669.000000
1008638.000000
1009598.000000
1010501.000000
1011386.000000
1012340.000000
1013309.000000
1014219.000000
1015106.000000
1016056.000000
1017009.000000
1017954.000000
1018854.000000
1019792.000000
1020760.000000
1021706.000000
1022615.000000
1023579.000000
1024546.000000
1025475.000000
1026373.000000
1027329.000000
1028284.000000
1029203.000000
1030117.000000
1031096.000000
1032109.000000
1033057.000000
1034033.000000
1035015.000000
1035967.000000
1036868.000000
1037832.000000
1038825.000000
1039738.000000
1040661.000000
1041621.000000
1042616.000000
1043525.000000
1044484.000000
1045483.000000
1046462.000000
1047406.000000
1048313.000000
1049284.000000
1050291.000000
1051332.000000
1052292.000000
1053189.000000
1054139.000000
1055190.000000
1056244.000000
1057207.000000
1058139.000000
1059146.000000
1060173.000000
1061181.000000
1062114.000000
1063082.000000
1064086.000000
1065113.000000
1066054.000000
1067060.000000
1068093.000000
1069108.000000
1070029.000000
1070985.000000
1071894.000000
1072766.000000
1073623.000000
1074490.000000
1075351.000000
1076182.000000
1077029.000000
1077877.000000
1078704.000000
1079549.000000
1080412.000000
1081270.000000
1082111.000000
1082974.000000
1083852.000000
1084720.000000
1085560.000000
1086421.000000
1087297.000000
1088191.000000
1089044.000000
1089935.000000
1090843.000000
1091771.000000
1092650.000000
1093558.000000
1094487.000000
1095397.000000
1096291.000000
1097232.000000
1098179.000000
1099098.000000
1099997.000000
1100924.000000
1101820.000000
1102683.000000
1103542.000000
1104402.000000
1105262.000000
1106168.000000
1107103.000000
1107993.000000
1108928.000000
1109876.000000
1110820.000000
1111699.000000
1112612.000000
1113548.000000
1114489.000000
1115371.000000
1116284.000000
1117243.000000
1118165.000000
1119060.000000
1119978.000000
1120917.000000
1121853.000000
1122749.000000
1123688.000000
1124678.000000
1125701.000000
1126637.000000
1127589.000000
1128567.000000
1129523.000000
1130425.000000
1131347.000000
1132281.000000
1133182.000000
1134087.000000
1135032.000000
1135969.000000
1136862.000000
1137767.000000
1138714.000000
1139682.000000
1140595.000000
1141503.000000
1142475.000000
1143425.000000
1144336.000000
1145254.000000
1146200.000000
1147172.000000
1148098.000000
1149069.000000
1150057.000000
1151055.000000
1151979.000000
1152934.000000
1153909.000000
1154886.000000
1155818.000000
1156764.000000
1157724.000000
1158650.000000
1159549.000000
1160489.000000
1161459.000000
1162399.000000
1163321.000000
1164277.000000
1165262.000000
1166203.000000
1167117.000000
1168065.000000
1169035.000000
1169936.000000
1170865.000000
1171822.000000
1172751.000000
1173681.000000
1174643.000000
1175598.000000
1176499.000000
1177443.000000
1178399.000000
1179344.000000
1180253.000000
1181203.000000
1182185.000000
1183130.000000
1184047.000000
1185027.000000
1186004.000000
1186942.000000
1187910.000000
1188896.000000
1189871.000000
1190775.000000
1191710.000000
1192717.000000
1193693.000000
1194608.000000
1195611.000000
1196612.000000
1197593.000000
1198507.000000
1199472.000000
1200454.000000
1201417.000000
1202320.000000
1203270.000000
1204242.000000
1205180.000000
1206071.000000
1206987.000000
1207879.000000
1208743.000000
1209611.000000
1210471.000000
1211328.000000
1212216.000000
1213132.000000
1214006.000000
1214920.000000
1215879.000000
1216847.000000
1217747.000000
1218706.000000
1219650.000000
1220565.000000
1221496.000000
1222456.000000
1223375.000000
1224263.000000
1225183.000000
1226108.000000
1226989.000000
1227898.000000
1228816.000000
1229726.000000
1230638.000000
1231591.000000
1232558.000000
1233490.000000
1234470.000000
1235433.000000
1236381.000000
1237326.000000
1238310.000000
1239283.000000
1240190.000000
1241171.000000
1242141.000000
1243074.000000
1244028.000000
1244998.000000
1245942.000000
1246844.000000
1247787.000000
1248757.000000
1249670.000000
1250618.000000
1251583.000000
1252529.000000
1253438.000000
1254375.000000
1255318.000000
1256255.000000
1257145.000000
1258086.000000
1259044.000000
1259972.000000
1260916.000000
1261941.000000
1262960.000000
1263895.000000
1264899.000000
1265899.000000
1266849.000000
1267807.000000
1268815.000000
1269826.000000
1270759.000000
1271734.000000
1272744.000000
1273710.000000
1274640.000000
1275622.000000
1276616.000000
1277576.000000
1278522.000000
1279544.000000
1280558.000000
1281504.000000
1282473.000000
1283444.000000
1284357.000000
1285233.000000
1286149.000000
1287125.000000
1288097.000000
1289047.000000
1290086.000000
1291126.000000
1292067.000000
1293058.000000
1294061.000000
1294976.000000
1295917.000000
1296885.000000
1297865.000000
1298773.000000
1299716.000000
1300684.000000
1301651.000000
1302518.000000
1303381.000000
1304268.000000
1305126.000000
1306008.000000
1306900.000000
1307847.000000
1308801.000000
1309715.000000
1310720.000000
1311709.000000
1312654.000000
1313590.000000
1314543.000000
1315525.000000
1316434.000000
1317394.000000
1318364.000000
1319350.000000
1320268.000000
1321238.000000
1322230.000000
1323166.000000
1324064.000000
1325016.000000
1325979.000000
1326911.000000
1327846.000000
1328818.000000
1329769.000000
1330654.000000
1331516.000000
1332365.000000
1333201.000000
1334029.000000
1334859.000000
1335695.000000
1336531.000000
1337415.000000
1338343.000000
1339263.000000
1340161.000000
1341150.000000
1342165.000000
1343114.000000
1344045.000000
1345022.000000
1345993.000000
1346933.000000
1347870.000000
1348845.000000
1349807.000000
1350718.000000
1351633.000000
1352586.000000
1353533.000000
1354450.000000
1355396.000000
1356356.000000
1357276.000000
1358173.000000
1359127.000000
1360100.000000
1361030.000000
1361937.000000
1362896.000000
1363878.000000
1364783.000000
1365703.000000
1366651.000000
1367594.000000
1368477.000000
1369417.000000
1370405.000000
1371355.000000
1372273.000000
1373250.000000
1374229.000000
1375160.000000
1376100.000000
1377079.000000
1378051.000000
1378963.000000
1379908.000000
1380889.000000
1381830.000000
1382737.000000
1383692.000000
1384648.000000
1385578.000000
1386500.000000
1387455.000000
1388423.000000
1389331.000000
1390274.000000
1391239.000000
1392175.000000
1393108.000000
1394090.000000
1395059.000000
1396007.000000
1396979.000000
1397908.000000
1398787.000000
1399664.000000
1400533.000000
1401393.000000
1402252.000000
1403124.000000
1403996.000000
1404864.000000
1405758.000000
1406652.000000
1407524.000000
1408431.000000
1409343.000000
1410237.000000
1411126.000000
1412051.000000
1413005.000000
1413913.000000
1414859.000000
1415832.000000
1416761.000000
1417675.000000
1418632.000000
1419573.000000
1420468.000000
1421416.000000
1422408.000000
1423356.000000
1424289.000000
1425244.000000
1426219.000000
1427152.000000
1428088.000000
1429079.000000
1430059.000000
1430983.000000
1431947.000000
1432933.000000
1433939.000000
1434886.000000
1435872.000000
1436856.000000
1437849.000000
1438776.000000
1439744.000000
1440746.000000
1441718.000000
1442637.000000
1443624.000000
1444619.000000
1445560.000000
1446511.000000
1447491.000000
1448449.000000
1449353.000000
1450291.000000
1451245.000000
1452172.000000
1453073.000000
1454032.000000
1454985.000000
1455894.000000
1456826.000000
1457756.000000
1458672.000000
1459552.000000
1460471.000000
1461433.000000
1462350.000000
1463274.000000
1464251.000000
1465252.000000
1466222.000000
1467216.000000
1468212.000000
1469192.000000
1470122.000000
1471078.000000
1472034.000000
1472993.000000
1473897.000000
1474855.000000
1475853.000000
1476827.000000
1477759.000000
1478758.000000
1479757.000000
1480760.000000
1481693.000000
1482633.000000
1483608.000000
1484600.000000
1485538.000000
1486497.000000
1487488.000000
1488471.000000
1489399.000000
1490346.000000
1491314.000000
1492276.000000
1493191.000000
1494180.000000
1495168.000000
1496146.000000
1497101.000000
1498129.000000
1499153.000000
1500093.000000
1501050.000000
1502006.000000
1502944.000000
1503830.000000
1504776.000000
1505750.000000
1506734.000000
1507666.000000
1508649.000000
1509593.000000
1510503.000000
1511412.000000
1512278.000000
1513117.000000
1513953.000000
1514766.000000
1515553.000000
1516314.000000
1517066.000000
1517821.000000
1518571.000000
1519353.000000
1520232.000000
1521145.000000
1522098.000000
1523055.000000
1524026.000000
1525007.000000
1525992.000000
1526959.000000
1527919.000000
1528871.000000
1529831.000000
1530789.000000
1531701.000000
1532596.000000
1533503.000000
1534424.000000
1535310.000000
1536212.000000
1537162.000000
1538100.000000
1539008.000000
1539926.000000
1540918.000000
1541922.000000
1542861.000000
1543856.000000
1544874.000000
1545819.000000
1546739.000000
1547719.000000
1548733.000000
1549688.000000
1550606.000000
1551575.000000
1552548.000000
1553526.000000
1554444.000000
1555383.000000
1556327.000000
1557268.000000
1558199.000000
1559180.000000
1560203.000000
1561209.000000
1562233.000000
1563325.000000
1564379.000000
1565313.000000
1566310.000000
1567333.000000
1568268.000000
1569231.000000
1570260.000000
1571235.000000
1572165.000000
1573159.000000
1574171.000000
1575101.000000
1576100.000000
1577088.000000
1578024.000000
1578984.000000
1579985.000000
1580944.000000
1581897.000000
1582886.000000
1583861.000000
1584801.000000
1585783.000000
1586802.000000
1587784.000000
1588727.000000
1589740.000000
1590738.000000
1591654.000000
1592583.000000
1593542.000000
1594504.000000
1595430.000000
1596432.000000
1597473.000000
1598444.000000
1599422.000000
1600423.000000
1601416.000000
1602357.000000
1603367.000000
1604370.000000
1605345.000000
1606332.000000
1607421.000000
1608458.000000
1609415.000000
1610419.000000
1611459.000000
1612438.000000
1613377.000000
1614370.000000
1615390.000000
1616312.000000
1617307.000000
1618354.000000
1619335.000000
1620270.000000
1621273.000000
1622303.000000
1623261.000000
1624188.000000
1625158.000000
1626154.000000
1627168.000000
1628088.000000
1629070.000000
1630053.000000
1631041.000000
1631965.000000
1632955.000000
1633949.000000
1634902.000000
1635816.000000
1636778.000000
1637753.000000
1638679.000000
1639655.000000
1640661.000000
1641631.000000
1642558.000000
1643532.000000
1644505.000000
1645433.000000
1646366.000000
1647330.000000
1648294.000000
1649208.000000
1650174.000000
1651166.000000
1652115.000000
1653065.000000
1654035.000000
1655023.000000
1655950.000000
1656929.000000
1657923.000000
1658929.000000
1659873.000000
1660855.000000
1661863.000000
1662842.000000
1663799.000000
1664791.000000
1665802.000000
1666732.000000
1667647.000000
1668611.000000
1669574.000000
1670496.000000
1671389.000000
1672260.000000
1673168.000000
1674062.000000
1674947.000000
1675838.000000
1676706.000000
1677614.000000
1678544.000000
1679471.000000
1680354.000000
1681255.000000
1682179.000000
1683126.000000
1684022.000000
1684932.000000
1685893.000000
1686859.000000
1687772.000000
1688731.000000
1689705.000000
1690679.000000
1691602.000000
1692570.000000
1693570.000000
1694552.000000
1695470.000000
1696431.000000
1697442.000000
1698438.000000
1699361.000000
1700326.000000
1701332.000000
1702339.000000
1703266.000000
1704227.000000
1705228.000000
1706247.000000
1707190.000000
1708175.000000
1709180.000000
1710158.000000
1711070.000000
1712031.000000
1713032.000000
1714023.000000
1714966.000000
1715985.000000
1717012.000000
1717957.000000
1718915.000000
1719902.000000
1720883.000000
1721800.000000
1722769.000000
1723777.000000
1724762.000000
1725699.000000
1726705.000000
1727744.000000
1728743.000000
1729690.000000
1730693.000000
1731721.000000
1732698.000000
1733629.000000
1734601.000000
1735609.000000
1736589.000000
1737529.000000
1738511.000000
1739568.000000
1740592.000000
1741582.000000
1742579.000000
1743639.000000
1744666.000000
1745613.000000
1746618.000000
1747630.000000
1748651.000000
1749589.000000
1750604.000000
1751635.000000
1752627.000000
1753588.000000
1754619.000000
1755656.000000
1756583.000000
1757547.000000
1758511.000000
1759469.000000
1760375.000000
1761334.000000
1762380.000000
1763367.000000
1764342.000000
1765412.000000
1766468.000000
1767426.000000
1768383.000000
1769407.000000
1770398.000000
1771323.000000
1772356.000000
1773476.000000
1774467.000000
1775485.000000
1776518.000000
1777544.000000
1778482.000000
1779490.000000
1780520.000000
1781486.000000
1782479.000000
1783532.000000
1784557.000000
1785501.000000
1786523.000000
1787625.000000
1788617.000000
1789551.000000
1790537.000000
1791522.000000
1792427.000000
1793400.000000
1794401.000000
1795333.000000
1796314.000000
1797330.000000
