ECG (ms)
925.000000
1884.000000
2835.000000
3685.000000
4513.000000
5397.000000
6297.000000
7241.000000
8539.000000
9676.000000
10677.000000
11769.000000
12795.000000
13718.000000
14572.000000
15415.000000
16234.000000
17137.000000
18209.000000
19274.000000
20264.000000
21188.000000
22191.000000
23182.000000
24288.000000
25418.000000
26557.000000
27574.000000
28622.000000
29778.000000
30886.000000
31904.000000
32885.000000
33831.000000
34720.000000
35561.000000
36841.000000
37972.000000
39013.000000
40058.000000
41332.000000
42431.000000
43512.000000
44512.000000
45380.000000
46329.000000
47671.000000
48875.000000
49889.000000
50909.000000
52230.000000
53458.000000
54563.000000
55600.000000
56910.000000
58083.000000
59258.000000
60399.000000
61550.000000
62740.000000
63954.000000
65173.000000
66362.000000
67408.000000
68399.000000
69724.000000
70919.000000
72131.000000
73331.000000
74558.000000
75725.000000
76642.000000
77489.000000
78400.000000
79728.000000
80947.000000
82143.000000
83093.000000
83947.000000
84743.000000
85692.000000
86650.000000
87545.000000
88447.000000
89666.000000
90636.000000
91547.000000
92567.000000
93641.000000
94697.000000
95597.000000
96515.000000
97429.000000
98372.000000
99238.000000
100122.000000
101390.000000
102372.000000
103279.000000
104270.000000
105432.000000
106588.000000
107543.000000
108741.000000
110023.000000
111214.000000
112234.000000
113581.000000
114761.000000
115867.000000
116921.000000
118084.000000
119245.000000
120339.000000
121484.000000
122719.000000
123915.000000
125047.000000
126196.000000
127306.000000
128316.000000
129240.000000
130122.000000
130904.000000
132185.000000
133345.000000
134511.000000
135735.000000
136932.000000
138091.000000
139102.000000
140166.000000
141209.000000
142301.000000
143306.000000
144254.000000
145344.000000
146284.000000
147212.000000
148281.000000
149354.000000
150376.000000
151308.000000
152258.000000
153278.000000
154207.000000
155058.000000
155950.000000
156945.000000
157839.000000
158688.000000
159694.000000
160634.000000
161667.000000
162937.000000
164125.000000
165178.000000
166259.000000
167386.000000
168491.000000
169467.000000
170507.000000
171674.000000
172737.000000
173715.000000
174941.000000
176196.000000
177286.000000
178464.000000
179601.000000
180617.000000
181698.000000
182834.000000
183913.000000
185134.000000
186237.000000
187237.000000
188390.000000
189611.000000
190760.000000
191859.000000
193166.000000
194418.000000
195540.000000
196676.000000
197791.000000
198884.000000
200021.000000
201219.000000
202333.000000
203438.000000
204595.000000
205746.000000
206715.000000
207652.000000
208515.000000
209340.000000
210150.000000
211155.000000
212253.000000
213442.000000
214554.000000
215583.000000
216629.000000
217690.000000
218698.000000
219660.000000
220603.000000
221534.000000
222600.000000
223689.000000
224906.000000
226020.000000
227057.000000
228089.000000
229068.000000
230049.000000
231036.000000
232108.000000
233122.000000
234096.000000
235084.000000
236113.000000
237013.000000
237898.000000
238768.000000
239697.000000
240651.000000
241510.000000
242320.000000
243114.000000
243906.000000
245293.000000
246487.000000
247510.000000
248675.000000
249891.000000
251020.000000
252105.000000
253150.000000
254303.000000
255560.000000
256817.000000
257964.000000
259000.000000
260023.000000
261157.000000
262484.000000
263728.000000
264894.000000
265938.000000
267082.000000
268305.000000
269427.000000
270395.000000
271361.000000
272283.000000
273267.000000
274176.000000
275042.000000
276517.000000
277693.000000
278925.000000
280139.000000
281240.000000
282242.000000
283203.000000
284208.000000
285152.000000
286024.000000
286902.000000
287928.000000
288970.000000
289936.000000
290944.000000
291983.000000
292935.000000
293865.000000
294840.000000
295844.000000
296764.000000
297706.000000
298648.000000
299545.000000
300414.000000
301370.000000
302573.000000
303574.000000
304485.000000
305364.000000
306192.000000
306980.000000
307829.000000
308676.000000
309529.000000
310509.000000
311558.000000
312528.000000
313512.000000
314499.000000
315419.000000
316260.000000
317087.000000
317962.000000
318936.000000
319863.000000
320809.000000
321788.000000
322773.000000
323780.000000
324791.000000
325826.000000
326773.000000
327748.000000
328770.000000
329725.000000
330659.000000
331610.000000
332557.000000
333521.000000
334656.000000
335730.000000
336683.000000
337566.000000
338487.000000
339372.000000
340256.000000
341203.000000
342164.000000
343087.000000
344010.000000
345107.000000
346031.000000
346893.000000
347819.000000
348693.000000
349585.000000
350641.000000
351725.000000
352677.000000
353715.000000
354790.000000
355769.000000
356654.000000
357559.000000
358769.000000
359850.000000
360825.000000
361881.000000
363018.000000
364002.000000
364968.000000
366094.000000
367191.000000
368179.000000
369369.000000
370585.000000
371631.000000
372755.000000
373896.000000
374989.000000
376030.000000
377124.000000
378277.000000
379275.000000
380242.000000
381280.000000
382259.000000
383181.000000
384079.000000
384909.000000
385941.000000
387170.000000
388240.000000
389437.000000
390463.000000
391336.000000
392249.000000
393304.000000
394419.000000
395662.000000
396833.000000
397834.000000
398894.000000
399940.000000
400948.000000
401882.000000
403067.000000
404312.000000
405352.000000
406319.000000
407687.000000
408946.000000
410037.000000
411176.000000
412374.000000
413524.000000
414680.000000
415817.000000
416906.000000
417988.000000
419105.000000
420168.000000
421172.000000
422282.000000
423392.000000
424402.000000
425498.000000
426633.000000
427692.000000
428637.000000
429629.000000
430486.000000
431324.000000
432605.000000
433718.000000
434777.000000
435884.000000
437046.000000
438149.000000
439195.000000
440239.000000
441221.000000
442100.000000
442942.000000
443744.000000
444516.000000
445991.000000
447265.000000
448273.000000
449394.000000
450562.000000
451570.000000
452683.000000
453924.000000
455044.000000
456329.000000
457577.000000
458686.000000
459845.000000
460973.000000
461970.000000
462975.000000
464186.000000
465466.000000
466779.000000
468013.000000
469213.000000
470424.000000
471629.000000
472771.000000
473967.000000
475145.000000
476213.000000
477323.000000
478427.000000
479492.000000
480787.000000
481966.000000
483119.000000
484390.000000
485547.000000
486545.000000
487543.000000
488478.000000
489689.000000
490679.000000
492080.000000
493326.000000
494476.000000
495717.000000
496990.000000
498244.000000
499490.000000
500693.000000
501839.000000
503028.000000
504191.000000
505309.000000
506502.000000
507651.000000
508795.000000
509967.000000
511123.000000
512164.000000
513260.000000
514429.000000
515518.000000
516572.000000
517746.000000
518846.000000
519870.000000
520913.000000
521813.000000
522657.000000
523517.000000
524342.000000
525172.000000
526069.000000
526913.000000
527763.000000
528705.000000
529591.000000
530473.000000
531438.000000
532370.000000
533234.000000
534108.000000
535278.000000
536325.000000
537245.000000
538140.000000
539054.000000
539958.000000
540806.000000
541733.000000
542804.000000
543785.000000
544703.000000
545642.000000
546564.000000
547438.000000
548307.000000
549290.000000
550343.000000
551233.000000
552048.000000
552841.000000
553675.000000
554629.000000
555750.000000
556849.000000
557834.000000
558722.000000
559580.000000
560830.000000
561920.000000
563016.000000
564063.000000
565034.000000
565934.000000
566769.000000
567566.000000
568340.000000
569135.000000
569925.000000
570686.000000
571443.000000
572333.000000
573315.000000
574411.000000
575560.000000
576574.000000
577555.000000
578519.000000
579432.000000
580415.000000
581410.000000
582478.000000
583414.000000
584341.000000
585291.000000
586223.000000
587107.000000
588058.000000
589097.000000
590053.000000
590941.000000
591877.000000
593119.000000
594212.000000
595165.000000
596241.000000
597398.000000
598390.000000
599342.000000
600350.000000
601361.000000
602299.000000
603374.000000
604461.000000
605471.000000
606524.000000
607589.000000
608563.000000
609532.000000
610547.000000
611524.000000
612426.000000
613333.000000
614204.000000
615079.000000
615916.000000
616728.000000
617536.000000
618313.000000
619244.000000
620188.000000
621101.000000
622072.000000
623048.000000
623984.000000
624854.000000
625732.000000
626651.000000
627557.000000
628447.000000
629448.000000
630626.000000
631716.000000
632786.000000
633834.000000
634784.000000
635696.000000
636692.000000
637727.000000
638834.000000
639911.000000
641026.000000
642039.000000
642949.000000
643790.000000
644642.000000
645998.000000
647138.000000
648154.000000
649194.000000
650252.000000
651252.000000
652277.000000
653399.000000
654593.000000
655671.000000
656646.000000
657703.000000
658811.000000
659834.000000
660755.000000
661613.000000
662517.000000
663570.000000
664761.000000
665800.000000
666825.000000
667869.000000
668856.000000
669867.000000
670920.000000
671896.000000
672867.000000
673839.000000
674777.000000
675669.000000
676598.000000
677846.000000
678877.000000
679799.000000
680759.000000
681759.000000
682740.000000
683721.000000
684816.000000
685844.000000
686820.000000
687886.000000
689004.000000
690001.000000
690899.000000
691739.000000
692595.000000
693412.000000
694259.000000
695217.000000
696344.000000
697328.000000
698296.000000
699222.000000
700109.000000
700933.000000
701755.000000
702560.000000
703370.000000
704147.000000
704947.000000
705784.000000
706618.000000
707394.000000
708198.000000
708984.000000
709738.000000
710555.000000
711377.000000
712196.000000
713155.000000
714252.000000
715308.000000
716251.000000
717190.000000
718074.000000
718963.000000
719839.000000
720658.000000
721499.000000
722387.000000
723293.000000
724232.000000
725212.000000
726243.000000
727242.000000
728189.000000
729138.000000
730136.000000
731116.000000
732023.000000
732952.000000
733964.000000
735092.000000
736225.000000
737216.000000
738117.000000
739177.000000
740223.000000
741231.000000
742316.000000
743350.000000
744322.000000
745208.000000
746109.000000
747033.000000
747896.000000
748730.000000
749561.000000
750386.000000
751192.000000
752396.000000
753323.000000
754258.000000
755212.000000
756211.000000
757157.000000
758063.000000
759012.000000
759997.000000
760940.000000
761870.000000
762937.000000
764069.000000
765182.000000
766162.000000
767060.000000
767985.000000
769012.000000
770077.000000
771016.000000
771908.000000
772755.000000
773619.000000
774455.000000
775272.000000
776071.000000
776866.000000
777930.000000
779035.000000
779988.000000
781103.000000
782213.000000
783233.000000
784200.000000
785219.000000
786219.000000
787175.000000
788102.000000
789008.000000
789852.000000
790670.000000
791479.000000
792286.000000
793041.000000
793864.000000
794739.000000
795582.000000
796497.000000
797567.000000
798564.000000
799453.000000
800327.000000
801256.000000
802159.000000
803010.000000
803908.000000
804895.000000
805861.000000
806720.000000
807558.000000
808398.000000
809256.000000
810081.000000
810936.000000
811839.000000
812755.000000
813606.000000
814430.000000
815232.000000
816004.000000
816849.000000
817762.000000
818656.000000
819597.000000
820770.000000
821822.000000
822819.000000
823877.000000
824981.000000
825989.000000
826918.000000
827873.000000
828910.000000
829973.000000
831011.000000
832049.000000
833080.000000
834091.000000
835044.000000
835970.000000
836973.000000
838029.000000
839063.000000
839978.000000
840888.000000
841885.000000
842883.000000
843832.000000
844831.000000
845870.000000
846840.000000
847771.000000
848783.000000
849978.000000
851061.000000
852008.000000
853022.000000
854107.000000
855162.000000
856270.000000
857452.000000
858522.000000
859684.000000
860797.000000
861801.000000
862693.000000
863605.000000
864755.000000
865856.000000
866852.000000
867844.000000
868895.000000
870050.000000
871204.000000
872235.000000
873250.000000
874309.000000
875334.000000
876382.000000
877523.000000
878623.000000
879716.000000
880926.000000
882115.000000
883167.000000
884232.000000
885314.000000
886339.000000
887396.000000
888626.000000
889755.000000
890826.000000
891929.000000
893043.000000
894101.000000
895175.000000
896169.000000
897099.000000
898106.000000
899176.000000
900137.000000
901071.000000
902047.000000
903064.000000
904011.000000
904968.000000
905983.000000
906918.000000
907904.000000
908904.000000
909867.000000
910764.000000
911715.000000
