ECG (ms)
618.000000
1413.000000
2216.000000
3039.000000
3848.000000
4638.000000
5443.000000
6245.000000
7048.000000
7875.000000
8718.000000
9541.000000
10361.000000
11199.000000
12044.000000
12858.000000
13672.000000
14502.000000
15336.000000
16146.000000
16970.000000
17818.000000
18667.000000
19503.000000
20368.000000
21269.000000
22128.000000
22994.000000
23890.000000
24794.000000
25646.000000
26513.000000
27402.000000
28258.000000
29101.000000
29970.000000
30854.000000
31690.000000
32532.000000
33396.000000
34248.000000
35089.000000
35950.000000
36838.000000
37692.000000
38555.000000
39452.000000
40346.000000
41185.000000
42046.000000
42929.000000
43795.000000
44627.000000
45479.000000
46355.000000
47211.000000
48046.000000
48898.000000
49786.000000
50646.000000
51477.000000
52338.000000
53218.000000
54061.000000
54894.000000
55741.000000
56609.000000
57449.000000
58280.000000
59138.000000
60017.000000
60855.000000
61686.000000
62541.000000
63396.000000
64219.000000
65059.000000
65905.000000
66737.000000
67546.000000
68366.000000
69195.000000
70008.000000
70820.000000
71666.000000
72528.000000
73347.000000
74167.000000
74980.000000
75774.000000
76580.000000
77395.000000
78204.000000
79003.000000
79821.000000
80650.000000
81463.000000
82270.000000
83097.000000
83941.000000
84767.000000
85582.000000
86410.000000
87243.000000
88057.000000
88868.000000
89697.000000
90539.000000
91361.000000
92192.000000
93034.000000
93861.000000
94671.000000
95493.000000
96324.000000
97155.000000
97960.000000
98767.000000
99587.000000
100401.000000
101197.000000
102006.000000
102824.000000
103637.000000
104430.000000
105229.000000
106033.000000
106846.000000
107636.000000
108418.000000
109213.000000
110017.000000
110812.000000
111592.000000
112389.000000
113202.000000
114004.000000
114793.000000
115599.000000
116424.000000
117244.000000
118064.000000
118855.000000
119644.000000
120439.000000
121238.000000
122046.000000
122846.000000
123661.000000
124492.000000
125316.000000
126114.000000
126914.000000
127721.000000
128519.000000
129303.000000
130096.000000
130904.000000
131735.000000
132559.000000
133363.000000
134183.000000
135023.000000
135865.000000
136672.000000
137482.000000
138296.000000
139114.000000
139913.000000
140713.000000
141521.000000
142345.000000
143147.000000
143936.000000
144740.000000
145550.000000
146345.000000
147134.000000
147940.000000
148747.000000
149539.000000
150319.000000
151110.000000
151913.000000
152710.000000
153493.000000
154285.000000
155082.000000
155855.000000
156620.000000
157394.000000
158162.000000
158938.000000
159731.000000
160531.000000
161317.000000
162117.000000
162924.000000
163742.000000
164537.000000
165322.000000
166130.000000
166946.000000
167753.000000
168547.000000
169362.000000
170202.000000
171028.000000
171838.000000
172668.000000
173529.000000
174364.000000
175183.000000
176022.000000
176879.000000
177704.000000
178522.000000
179360.000000
180221.000000
181058.000000
181875.000000
182710.000000
183564.000000
184395.000000
185215.000000
186059.000000
186915.000000
187773.000000
188593.000000
189411.000000
190248.000000
191111.000000
191953.000000
192781.000000
193630.000000
194498.000000
195347.000000
196164.000000
197000.000000
197866.000000
198717.000000
199542.000000
200387.000000
201246.000000
202070.000000
202877.000000
203695.000000
204518.000000
205324.000000
206131.000000
206949.000000
207784.000000
208600.000000
209411.000000
210234.000000
211061.000000
211868.000000
212682.000000
213505.000000
214325.000000
215124.000000
215939.000000
216776.000000
217602.000000
218409.000000
219234.000000
220086.000000
220957.000000
221790.000000
222611.000000
223411.000000
224203.000000
224982.000000
225758.000000
226525.000000
227292.000000
228065.000000
228843.000000
229623.000000
230398.000000
231181.000000
231951.000000
232723.000000
233492.000000
234279.000000
235085.000000
235900.000000
236699.000000
237507.000000
238327.000000
239148.000000
239946.000000
240755.000000
241572.000000
242380.000000
243177.000000
244001.000000
244848.000000
245686.000000
246506.000000
247356.000000
248232.000000
249065.000000
249896.000000
250747.000000
251620.000000
252457.000000
253272.000000
254110.000000
254970.000000
255804.000000
256624.000000
257468.000000
258332.000000
259175.000000
259981.000000
260807.000000
261642.000000
262467.000000
263268.000000
264085.000000
264925.000000
265755.000000
266561.000000
267374.000000
268203.000000
269040.000000
269851.000000
270666.000000
271503.000000
272346.000000
273161.000000
273991.000000
274839.000000
275667.000000
276474.000000
277306.000000
278159.000000
279001.000000
279817.000000
280651.000000
281498.000000
282323.000000
283125.000000
283951.000000
284797.000000
285627.000000
286438.000000
287273.000000
288130.000000
288956.000000
289759.000000
290582.000000
291424.000000
292239.000000
293042.000000
293859.000000
294691.000000
295501.000000
296302.000000
297117.000000
297949.000000
298768.000000
299577.000000
300397.000000
301230.000000
302036.000000
302839.000000
303653.000000
304479.000000
305278.000000
306074.000000
306885.000000
307706.000000
308513.000000
309307.000000
310122.000000
310953.000000
311773.000000
312598.000000
313452.000000
314308.000000
315128.000000
315963.000000
316813.000000
317651.000000
318455.000000
319271.000000
320102.000000
320929.000000
321728.000000
322536.000000
323353.000000
324182.000000
324993.000000
325798.000000
326618.000000
327430.000000
328218.000000
329018.000000
329833.000000
330651.000000
331449.000000
332258.000000
333079.000000
333913.000000
334721.000000
335516.000000
336317.000000
337135.000000
337968.000000
338774.000000
339561.000000
340361.000000
341170.000000
341970.000000
342757.000000
343565.000000
344383.000000
345190.000000
345980.000000
346789.000000
347605.000000
348399.000000
349180.000000
349973.000000
350771.000000
351557.000000
352334.000000
353134.000000
353953.000000
354759.000000
355554.000000
356365.000000
357182.000000
357986.000000
358773.000000
359579.000000
360390.000000
361209.000000
362008.000000
362808.000000
363621.000000
364445.000000
365247.000000
366051.000000
366862.000000
367686.000000
368488.000000
369281.000000
370085.000000
370904.000000
371712.000000
372505.000000
373311.000000
374130.000000
374938.000000
375725.000000
376524.000000
377330.000000
378119.000000
378899.000000
379684.000000
380478.000000
381272.000000
382049.000000
382831.000000
383614.000000
384401.000000
385176.000000
385949.000000
386725.000000
387513.000000
388287.000000
389056.000000
389829.000000
390612.000000
391391.000000
392159.000000
392941.000000
393733.000000
394530.000000
395315.000000
396087.000000
396864.000000
397649.000000
398419.000000
399183.000000
399952.000000
400730.000000
401506.000000
402275.000000
403057.000000
403849.000000
404644.000000
405424.000000
406214.000000
407011.000000
407788.000000
408551.000000
409321.000000
410090.000000
410862.000000
411653.000000
412467.000000
413286.000000
414080.000000
414886.000000
415710.000000
416535.000000
417336.000000
418136.000000
418940.000000
419757.000000
420557.000000
421356.000000
422167.000000
422996.000000
423811.000000
424615.000000
425436.000000
426266.000000
427077.000000
427881.000000
428703.000000
429546.000000
430372.000000
431195.000000
432038.000000
432894.000000
433716.000000
434536.000000
435377.000000
436247.000000
437090.000000
437913.000000
438748.000000
439600.000000
440417.000000
441223.000000
442047.000000
442890.000000
443709.000000
444518.000000
445348.000000
446205.000000
447036.000000
447840.000000
448667.000000
449503.000000
450320.000000
451123.000000
451948.000000
452807.000000
453650.000000
454470.000000
455311.000000
456168.000000
456992.000000
457805.000000
458634.000000
459490.000000
460322.000000
461127.000000
461947.000000
462797.000000
463653.000000
464477.000000
465319.000000
466188.000000
467045.000000
467864.000000
468696.000000
469551.000000
470400.000000
471207.000000
472033.000000
472867.000000
473686.000000
474489.000000
475308.000000
476145.000000
476961.000000
477766.000000
478585.000000
479422.000000
480235.000000
481035.000000
481845.000000
482668.000000
483469.000000
484273.000000
485091.000000
485915.000000
486716.000000
487512.000000
488316.000000
489115.000000
489900.000000
490693.000000
491496.000000
492298.000000
493082.000000
493881.000000
494702.000000
495511.000000
496298.000000
497096.000000
497903.000000
498693.000000
499474.000000
500264.000000
501070.000000
501861.000000
502639.000000
503437.000000
504248.000000
505042.000000
505825.000000
506619.000000
507431.000000
508235.000000
509026.000000
509831.000000
510657.000000
511461.000000
512245.000000
513045.000000
513869.000000
514675.000000
515468.000000
516273.000000
517086.000000
517875.000000
518677.000000
519485.000000
520305.000000
521101.000000
521894.000000
522695.000000
523513.000000
524313.000000
525102.000000
525907.000000
526732.000000
527546.000000
528333.000000
529132.000000
529943.000000
530737.000000
531519.000000
532317.000000
533121.000000
533906.000000
534678.000000
535460.000000
536255.000000
537035.000000
537803.000000
538591.000000
539395.000000
540179.000000
540953.000000
541734.000000
542533.000000
543323.000000
544091.000000
544871.000000
545654.000000
546430.000000
547195.000000
547967.000000
548748.000000
549523.000000
550291.000000
551072.000000
551863.000000
552649.000000
553417.000000
554193.000000
554975.000000
555750.000000
556513.000000
557285.000000
558064.000000
558845.000000
559607.000000
560366.000000
561128.000000
561900.000000
562664.000000
563426.000000
564208.000000
565015.000000
565833.000000
566620.000000
567381.000000
568151.000000
568928.000000
569715.000000
570513.000000
571158.000000
572087.000000
572875.000000
573666.000000
574464.000000
575248.000000
576028.000000
576819.000000
577617.000000
578427.000000
579253.000000
580062.000000
580865.000000
581673.000000
582490.000000
583320.000000
584128.000000
584916.000000
585705.000000
586503.000000
587295.000000
588074.000000
588850.000000
589635.000000
590428.000000
591221.000000
592001.000000
592789.000000
593590.000000
594408.000000
595237.000000
596038.000000
596818.000000
597588.000000
598347.000000
599097.000000
599842.000000
600590.000000
601353.000000
602128.000000
602895.000000
603667.000000
604457.000000
605263.000000
606054.000000
606851.000000
607657.000000
608473.000000
609264.000000
610065.000000
610879.000000
611701.000000
612513.000000
613339.000000
614191.000000
615015.000000
615828.000000
616655.000000
617477.000000
618275.000000
619078.000000
619894.000000
620704.000000
621502.000000
622321.000000
623165.000000
623989.000000
624800.000000
625629.000000
626462.000000
627272.000000
628087.000000
628915.000000
629726.000000
630527.000000
631343.000000
632175.000000
632987.000000
633790.000000
634609.000000
635433.000000
636232.000000
637039.000000
637858.000000
638665.000000
639463.000000
640270.000000
641080.000000
641871.000000
642671.000000
643487.000000
644293.000000
645081.000000
645886.000000
646709.000000
647519.000000
648323.000000
649134.000000
649960.000000
650763.000000
651566.000000
652383.000000
653197.000000
653982.000000
654775.000000
655581.000000
656388.000000
657170.000000
657954.000000
658746.000000
659552.000000
660343.000000
661124.000000
661920.000000
662735.000000
663534.000000
664314.000000
665117.000000
665940.000000
666751.000000
667540.000000
668342.000000
669162.000000
669958.000000
670740.000000
671537.000000
672355.000000
673176.000000
673973.000000
674761.000000
675566.000000
676399.000000
677215.000000
678011.000000
678816.000000
679622.000000
680407.000000
681195.000000
682001.000000
682811.000000
683600.000000
684378.000000
685170.000000
685972.000000
686763.000000
687548.000000
688352.000000
689162.000000
689951.000000
690750.000000
691576.000000
692422.000000
693231.000000
694046.000000
694875.000000
695703.000000
696504.000000
697325.000000
698172.000000
699010.000000
699823.000000
700648.000000
701485.000000
702295.000000
703087.000000
703888.000000
704701.000000
705501.000000
706288.000000
707086.000000
707908.000000
708714.000000
709500.000000
710299.000000
711117.000000
711918.000000
712699.000000
713494.000000
714302.000000
715114.000000
715902.000000
716700.000000
717520.000000
718369.000000
719197.000000
720018.000000
720851.000000
721698.000000
722517.000000
723338.000000
724181.000000
725014.000000
725816.000000
726624.000000
727455.000000
728287.000000
729087.000000
729896.000000
730706.000000
731511.000000
732299.000000
733105.000000
733932.000000
734746.000000
735542.000000
736357.000000
737198.000000
738019.000000
738829.000000
739658.000000
740504.000000
741314.000000
742115.000000
742939.000000
743785.000000
744606.000000
745414.000000
746242.000000
747094.000000
747916.000000
748724.000000
749553.000000
750418.000000
751270.000000
752083.000000
752912.000000
753769.000000
754611.000000
755416.000000
756239.000000
757088.000000
757935.000000
758740.000000
759553.000000
760383.000000
761206.000000
762000.000000
762791.000000
763597.000000
764395.000000
765178.000000
765980.000000
766806.000000
767619.000000
768407.000000
769211.000000
770027.000000
770820.000000
771605.000000
772405.000000
773221.000000
774022.000000
774804.000000
775602.000000
776419.000000
777214.000000
777995.000000
778790.000000
779599.000000
780387.000000
781166.000000
781952.000000
782746.000000
783522.000000
784289.000000
785062.000000
785843.000000
786610.000000
787371.000000
788147.000000
788938.000000
789720.000000
790496.000000
791291.000000
792112.000000
792984.000000
793828.000000
794637.000000
795468.000000
796315.000000
797129.000000
797917.000000
798712.000000
799521.000000
800307.000000
801081.000000
801864.000000
802657.000000
803435.000000
804207.000000
804995.000000
805807.000000
806605.000000
807382.000000
808168.000000
808962.000000
809744.000000
810516.000000
811303.000000
812113.000000
812927.000000
813712.000000
814505.000000
815306.000000
816118.000000
816914.000000
817694.000000
818493.000000
819318.000000
820140.000000
820937.000000
821757.000000
822603.000000
823430.000000
824226.000000
825033.000000
825854.000000
826694.000000
827507.000000
828293.000000
829098.000000
829923.000000
830757.000000
831568.000000
832354.000000
833155.000000
833961.000000
834757.000000
835518.000000
836276.000000
837065.000000
837871.000000
838681.000000
839471.000000
840236.000000
840990.000000
841748.000000
842516.000000
843282.000000
844052.000000
844828.000000
845611.000000
846408.000000
847221.000000
848011.000000
848796.000000
849590.000000
850404.000000
851231.000000
852042.000000
852831.000000
853621.000000
854430.000000
855260.000000
856070.000000
856871.000000
857687.000000
858529.000000
859353.000000
860164.000000
860986.000000
861835.000000
862662.000000
863472.000000
864293.000000
865134.000000
865946.000000
866750.000000
867566.000000
868404.000000
869226.000000
870047.000000
870890.000000
871757.000000
872568.000000
873364.000000
874161.000000
874970.000000
875767.000000
876558.000000
877370.000000
878213.000000
879040.000000
879847.000000
880670.000000
881518.000000
882344.000000
883152.000000
883970.000000
884805.000000
885609.000000
886406.000000
887215.000000
888036.000000
888838.000000
889631.000000
890430.000000
891235.000000
892026.000000
892844.000000
893728.000000
894645.000000
895491.000000
896341.000000
897204.000000
898031.000000
898847.000000
899675.000000
900527.000000
901346.000000
902150.000000
902965.000000
903786.000000
904583.000000
905386.000000
906207.000000
907026.000000
907811.000000
908608.000000
909419.000000
910232.000000
911017.000000
911819.000000
912644.000000
913462.000000
914259.000000
915078.000000
915929.000000
916760.000000
917550.000000
918354.000000
919171.000000
919968.000000
920749.000000
921549.000000
922374.000000
923180.000000
923968.000000
924768.000000
925583.000000
926376.000000
927158.000000
927954.000000
928772.000000
929569.000000
930349.000000
931146.000000
931959.000000
932747.000000
933527.000000
934315.000000
935117.000000
935903.000000
936680.000000
937471.000000
938273.000000
939055.000000
939835.000000
940632.000000
941429.000000
942201.000000
942975.000000
943759.000000
944552.000000
945324.000000
946097.000000
946888.000000
947692.000000
948468.000000
949244.000000
950024.000000
950804.000000
951568.000000
952338.000000
953119.000000
953921.000000
954706.000000
955484.000000
956271.000000
957080.000000
957873.000000
958659.000000
959460.000000
960280.000000
961076.000000
961872.000000
962679.000000
963498.000000
964296.000000
965087.000000
965889.000000
966709.000000
967512.000000
968302.000000
969104.000000
969919.000000
970716.000000
971491.000000
972280.000000
973086.000000
973883.000000
974659.000000
975451.000000
976264.000000
977064.000000
977847.000000
978647.000000
979470.000000
980273.000000
981054.000000
981851.000000
982667.000000
983467.000000
984249.000000
985038.000000
985842.000000
986628.000000
987409.000000
988210.000000
989044.000000
989859.000000
990650.000000
991453.000000
992262.000000
993044.000000
993826.000000
994616.000000
995412.000000
996190.000000
996968.000000
997757.000000
998553.000000
999339.000000
1000135.000000
1000955.000000
1001786.000000
1002583.000000
1003390.000000
1004218.000000
1005031.000000
1005822.000000
1006629.000000
1007452.000000
1008252.000000
1009037.000000
1009828.000000
1010635.000000
1011429.000000
1012216.000000
1013018.000000
1013833.000000
1014624.000000
1015418.000000
1016228.000000
1017053.000000
1017850.000000
1018643.000000
1019450.000000
1020281.000000
1021087.000000
1021890.000000
1022714.000000
1023543.000000
1024340.000000
1025133.000000
1025948.000000
1026769.000000
1027567.000000
1028370.000000
1029191.000000
1030007.000000
1030800.000000
1031605.000000
1032437.000000
1033261.000000
1034069.000000
1034892.000000
1035738.000000
1036561.000000
1037373.000000
1038197.000000
1039027.000000
1039836.000000
1040638.000000
1041453.000000
1042291.000000
1043100.000000
1043896.000000
1044703.000000
1045535.000000
1046349.000000
1047147.000000
1047967.000000
1048792.000000
1049583.000000
1050384.000000
1051202.000000
1052012.000000
1052794.000000
1053589.000000
1054394.000000
1055195.000000
1055979.000000
1056786.000000
1057618.000000
1058435.000000
1059229.000000
1060041.000000
1060868.000000
1061671.000000
1062469.000000
1063282.000000
1064126.000000
1064946.000000
1065763.000000
1066601.000000
1067466.000000
1068299.000000
1069099.000000
1069917.000000
1070756.000000
1071573.000000
1072367.000000
1073180.000000
1074018.000000
1074843.000000
1075633.000000
1076437.000000
1077262.000000
1078096.000000
1078890.000000
1079671.000000
1080467.000000
1081271.000000
1082056.000000
1082830.000000
1083619.000000
1084426.000000
1085223.000000
1085999.000000
1086787.000000
1087582.000000
1088369.000000
1089143.000000
1089939.000000
1090759.000000
1091570.000000
1092347.000000
1093140.000000
1093947.000000
1094752.000000
1095533.000000
1096323.000000
1097125.000000
1097937.000000
1098729.000000
1099509.000000
1100306.000000
1101125.000000
1101940.000000
1102732.000000
1103523.000000
1104309.000000
1105087.000000
1105862.000000
1106622.000000
1107381.000000
1108140.000000
1108887.000000
1109628.000000
1110375.000000
1111119.000000
1111870.000000
1112636.000000
1113422.000000
1114198.000000
1114967.000000
1115746.000000
1116541.000000
1117334.000000
1118112.000000
1118904.000000
1119720.000000
1120543.000000
1121336.000000
1122145.000000
1122979.000000
1123807.000000
1124605.000000
1125418.000000
1126252.000000
1127077.000000
1127877.000000
1128694.000000
1129546.000000
1130394.000000
1131205.000000
1132027.000000
1132872.000000
1133688.000000
1134485.000000
1135296.000000
1136131.000000
1136946.000000
1137743.000000
1138553.000000
1139374.000000
1140176.000000
1140972.000000
1141779.000000
1142604.000000
1143411.000000
1144203.000000
1145018.000000
1145849.000000
1146649.000000
1147448.000000
1148263.000000
1149108.000000
1149925.000000
1150723.000000
1151532.000000
1152359.000000
1153176.000000
1153973.000000
1154786.000000
1155619.000000
1156432.000000
1157223.000000
1158034.000000
1158876.000000
1159721.000000
1160524.000000
1161337.000000
1162169.000000
1162981.000000
1163778.000000
1164586.000000
1165409.000000
1166213.000000
1166997.000000
1167804.000000
1168645.000000
1169474.000000
1170263.000000
1171074.000000
1171912.000000
1172738.000000
1173537.000000
1174356.000000
1175190.000000
1176004.000000
1176805.000000
1177623.000000
1178476.000000
1179305.000000
1180100.000000
1180917.000000
1181765.000000
1182596.000000
1183392.000000
1184203.000000
1185044.000000
1185867.000000
1186655.000000
1187459.000000
1188288.000000
1189106.000000
1189892.000000
1190698.000000
1191522.000000
1192322.000000
1193106.000000
1193906.000000
1194732.000000
1195551.000000
1196340.000000
1197139.000000
1197964.000000
1198779.000000
1199563.000000
1200366.000000
1201197.000000
1202031.000000
1202826.000000
1203630.000000
1204452.000000
1205284.000000
1206083.000000
1206871.000000
1207670.000000
1208482.000000
1209273.000000
1210052.000000
1210843.000000
1211662.000000
1212469.000000
1213247.000000
1214033.000000
1214836.000000
1215631.000000
1216401.000000
1217176.000000
1217969.000000
1218759.000000
1219531.000000
1220310.000000
1221109.000000
1221929.000000
1222727.000000
1223515.000000
1224318.000000
1225123.000000
1225900.000000
1226681.000000
1227475.000000
1228272.000000
1229052.000000
1229842.000000
1230656.000000
1231470.000000
1232252.000000
1233053.000000
1233883.000000
1234702.000000
1235492.000000
1236293.000000
1237112.000000
1237919.000000
1238702.000000
1239501.000000
1240328.000000
1241148.000000
1241936.000000
1242747.000000
1243584.000000
1244395.000000
1245200.000000
1246031.000000
1246883.000000
1247700.000000
1248499.000000
1249306.000000
1250143.000000
1250970.000000
1251765.000000
1252574.000000
1253417.000000
1254238.000000
1255023.000000
1255822.000000
1256654.000000
1257504.000000
1258304.000000
1259104.000000
1259917.000000
1260738.000000
1261531.000000
1262319.000000
1263123.000000
1263958.000000
1264782.000000
1265585.000000
1266406.000000
1267230.000000
1268017.000000
1268817.000000
1269638.000000
1270458.000000
1271242.000000
1272037.000000
1272859.000000
1273699.000000
1274504.000000
1275321.000000
1276168.000000
1277011.000000
1277808.000000
1278615.000000
1279443.000000
1280255.000000
1281043.000000
1281847.000000
1282680.000000
1283514.000000
1284307.000000
1285111.000000
1285940.000000
1286766.000000
1287553.000000
1288347.000000
1289159.000000
1289971.000000
1290761.000000
1291557.000000
1292368.000000
1293195.000000
1293993.000000
1294789.000000
1295603.000000
1296438.000000
1297236.000000
1298022.000000
1298825.000000
1299646.000000
1300455.000000
1301242.000000
1302047.000000
1302883.000000
1303732.000000
1304542.000000
1305355.000000
1306179.000000
1306994.000000
1307781.000000
1308579.000000
1309401.000000
1310230.000000
1311032.000000
1311833.000000
1312654.000000
1313488.000000
1314288.000000
1315096.000000
1315934.000000
1316781.000000
1317580.000000
1318381.000000
1319197.000000
1320025.000000
1320822.000000
1321613.000000
1322414.000000
1323240.000000
1324057.000000
1324838.000000
1325628.000000
1326428.000000
1327220.000000
1327997.000000
1328772.000000
1329537.000000
1330279.000000
1331021.000000
1331766.000000
1332515.000000
1333276.000000
1334053.000000
1334818.000000
1335576.000000
1336343.000000
1337126.000000
1337895.000000
1338656.000000
1339428.000000
1340217.000000
1341017.000000
1341800.000000
1342582.000000
1343387.000000
1344228.000000
1345045.000000
1345832.000000
1346643.000000
1347493.000000
1348330.000000
1349121.000000
1349920.000000
1350738.000000
1351545.000000
1352327.000000
1353121.000000
1353948.000000
1354774.000000
1355565.000000
1356356.000000
1357166.000000
1357985.000000
1358772.000000
1359556.000000
1360354.000000
1361167.000000
1361968.000000
1362746.000000
1363537.000000
1364346.000000
1365165.000000
1365953.000000
1366741.000000
1367545.000000
1368360.000000
1369155.000000
1369942.000000
1370747.000000
1371569.000000
1372374.000000
1373160.000000
1373957.000000
1374783.000000
1375597.000000
1376378.000000
1377175.000000
1377975.000000
1378763.000000
1379541.000000
1380342.000000
1381172.000000
1381999.000000
1382783.000000
1383586.000000
1384404.000000
1385230.000000
1386022.000000
1386813.000000
1387616.000000
1388438.000000
1389238.000000
1390036.000000
1390861.000000
1391698.000000
1392496.000000
1393294.000000
1394099.000000
1394924.000000
1395733.000000
1396518.000000
1397319.000000
1398146.000000
1398978.000000
1399771.000000
1400579.000000
1401407.000000
1402221.000000
1403006.000000
1403801.000000
1404612.000000
1405429.000000
1406221.000000
1407026.000000
1407863.000000
1408707.000000
1409513.000000
1410322.000000
1411161.000000
1412001.000000
1412792.000000
1413584.000000
1414392.000000
1415216.000000
1416021.000000
1416823.000000
1417648.000000
1418498.000000
1419316.000000
1420104.000000
1420899.000000
1421698.000000
1422482.000000
1423255.000000
1424043.000000
1424853.000000
1425658.000000
1426441.000000
1427235.000000
1428050.000000
1428855.000000
1429640.000000
1430437.000000
1431251.000000
1432053.000000
1432836.000000
1433633.000000
1434453.000000
1435261.000000
1436052.000000
1436858.000000
1437677.000000
1438475.000000
1439262.000000
1440072.000000
1440909.000000
1441721.000000
1442521.000000
1443333.000000
1444160.000000
1444957.000000
1445743.000000
1446541.000000
1447350.000000
1448145.000000
1448937.000000
1449746.000000
1450565.000000
1451356.000000
1452138.000000
1452934.000000
1453756.000000
1454578.000000
1455367.000000
1456165.000000
1456986.000000
1457820.000000
1458624.000000
1459429.000000
1460257.000000
1461101.000000
1461922.000000
1462728.000000
1463560.000000
1464417.000000
1465228.000000
1466024.000000
1466817.000000
1467623.000000
1468414.000000
1469194.000000
1469991.000000
1470810.000000
1471620.000000
1472403.000000
1473201.000000
1474015.000000
1474846.000000
1475647.000000
1476432.000000
1477227.000000
1478045.000000
1478881.000000
1479684.000000
1480472.000000
1481272.000000
1482088.000000
1482904.000000
1483689.000000
1484483.000000
1485294.000000
1486106.000000
1486893.000000
1487675.000000
1488468.000000
1489274.000000
1490068.000000
1490841.000000
1491622.000000
1492426.000000
1493256.000000
1494074.000000
1494887.000000
1495720.000000
1496573.000000
1497384.000000
1498183.000000
1499002.000000
1499848.000000
1500684.000000
1501481.000000
1502297.000000
1503142.000000
1503997.000000
1504806.000000
1505624.000000
1506457.000000
1507305.000000
1508125.000000
1508921.000000
1509745.000000
1510615.000000
1511455.000000
1512250.000000
1513064.000000
1513911.000000
1514787.000000
1515613.000000
1516417.000000
1517238.000000
1518098.000000
1518941.000000
1519733.000000
1520547.000000
1521405.000000
1522276.000000
1523093.000000
1523908.000000
1524739.000000
1525589.000000
1526407.000000
1527203.000000
1528009.000000
1528846.000000
1529674.000000
1530470.000000
1531281.000000
1532117.000000
1532931.000000
1533706.000000
1534487.000000
1535281.000000
1536063.000000
1536835.000000
1537635.000000
1538479.000000
1539313.000000
1540101.000000
1540897.000000
1541711.000000
1542526.000000
1543316.000000
1544117.000000
1544937.000000
1545770.000000
1546562.000000
1547351.000000
1548159.000000
1548985.000000
1549791.000000
1550603.000000
1551446.000000
1552289.000000
1553115.000000
1553941.000000
1554776.000000
1555614.000000
1556438.000000
1557267.000000
1558100.000000
1558936.000000
1559753.000000
1560579.000000
1561416.000000
1562256.000000
1563081.000000
1563907.000000
1564740.000000
1565565.000000
1566352.000000
1567136.000000
1567945.000000
1568807.000000
1569640.000000
1570411.000000
1571193.000000
1571996.000000
1572802.000000
1573586.000000
1574375.000000
1575192.000000
1576031.000000
1576829.000000
1577615.000000
1578417.000000
1579243.000000
1580060.000000
1580843.000000
1581642.000000
1582473.000000
1583318.000000
1584112.000000
1584899.000000
1585697.000000
1586515.000000
1587328.000000
1588105.000000
1588896.000000
1589710.000000
1590547.000000
1591366.000000
1592162.000000
1592966.000000
1593797.000000
1594616.000000
1595396.000000
1596195.000000
1597026.000000
1597868.000000
1598669.000000
1599481.000000
1600336.000000
1601239.000000
1602069.000000
1602884.000000
1603717.000000
1604563.000000
1605377.000000
1606158.000000
1606956.000000
1607775.000000
1608618.000000
1609422.000000
1610209.000000
1611013.000000
1611832.000000
1612632.000000
1613409.000000
1614190.000000
1614976.000000
1615746.000000
1616507.000000
1617276.000000
1618055.000000
1618834.000000
1619599.000000
1620378.000000
1621168.000000
1621966.000000
1622743.000000
1623509.000000
1624285.000000
1625070.000000
1625843.000000
1626602.000000
1627375.000000
1628161.000000
1628941.000000
1629707.000000
1630485.000000
1631282.000000
1632065.000000
1632830.000000
1633600.000000
1634381.000000
1635158.000000
1635918.000000
1636688.000000
1637462.000000
1638228.000000
1638986.000000
1639756.000000
1640540.000000
1641314.000000
1642075.000000
1642847.000000
1643632.000000
1644420.000000
1645189.000000
1645966.000000
1646766.000000
1647576.000000
1648359.000000
1649139.000000
1649942.000000
1650746.000000
1651523.000000
1652309.000000
1653089.000000
1653859.000000
1654633.000000
1655396.000000
1656142.000000
1656883.000000
1657631.000000
1658392.000000
1659153.000000
1659909.000000
1660677.000000
1661466.000000
1662262.000000
1663041.000000
1663827.000000
1664623.000000
1665419.000000
1666197.000000
1666972.000000
1667750.000000
1668539.000000
1669316.000000
1670085.000000
1670868.000000
1671664.000000
1672454.000000
1673226.000000
1674015.000000
1674822.000000
1675647.000000
1676437.000000
1677212.000000
1677990.000000
1678787.000000
1679583.000000
1680360.000000
1681146.000000
1681938.000000
1682726.000000
1683498.000000
1684248.000000
1685012.000000
1685786.000000
1686575.000000
1687369.000000
1688134.000000
1688876.000000
1689616.000000
1690359.000000
1691109.000000
1691865.000000
1692625.000000
1693382.000000
1694136.000000
1694887.000000
1695639.000000
1696389.000000
1697140.000000
1697894.000000
1698660.000000
1699431.000000
1700199.000000
1700981.000000
1701761.000000
1702545.000000
1703325.000000
1704093.000000
1704859.000000
1705630.000000
1706393.000000
1707139.000000
1707891.000000
1708646.000000
1709406.000000
1710173.000000
1710954.000000
1711739.000000
1712513.000000
1713295.000000
1714087.000000
1714876.000000
1715678.000000
1716501.000000
1717308.000000
1718117.000000
1718931.000000
1719749.000000
1720553.000000
1721346.000000
1722162.000000
1723013.000000
1723852.000000
1724674.000000
1725518.000000
1726377.000000
1727204.000000
1728030.000000
1728867.000000
1729691.000000
1730500.000000
1731334.000000
1732161.000000
1732989.000000
1733806.000000
1734623.000000
1735441.000000
1736236.000000
1737034.000000
1737848.000000
1738662.000000
1739465.000000
1740289.000000
1741143.000000
1741970.000000
1742776.000000
1743592.000000
1744410.000000
1745212.000000
1746017.000000
1746819.000000
1747624.000000
1748422.000000
1749205.000000
1750006.000000
1750826.000000
1751636.000000
1752421.000000
1753212.000000
1754005.000000
1754809.000000
1755608.000000
1756402.000000
1757179.000000
1757942.000000
1758694.000000
1759449.000000
1760210.000000
1760979.000000
1761750.000000
1762516.000000
1763279.000000
1764047.000000
1764800.000000
1765557.000000
1766338.000000
1767127.000000
1767940.000000
1768771.000000
1769577.000000
1770379.000000
1771192.000000
1771990.000000
1772790.000000
1773597.000000
1774392.000000
1775200.000000
1776019.000000
1776843.000000
1777677.000000
1778501.000000
1779317.000000
1780154.000000
1780984.000000
1781807.000000
1782656.000000
1783524.000000
1784350.000000
1785180.000000
1786010.000000
1786824.000000
1787625.000000
1788414.000000
1789214.000000
1790038.000000
1790856.000000
1791655.000000
1792469.000000
1793307.000000
1794132.000000
1794926.000000
1795738.000000
1796565.000000
1797382.000000
1798197.000000
1799041.000000
1799906.000000
1800732.000000
