ECG (ms)
147.000000
963.000000
1772.000000
2555.000000
3331.000000
4122.000000
4908.000000
5676.000000
6448.000000
7234.000000
8026.000000
8809.000000
9606.000000
10408.000000
11177.000000
11914.000000
12644.000000
13380.000000
14130.000000
14898.000000
15662.000000
16423.000000
17199.000000
17975.000000
18746.000000
19509.000000
20288.000000
21078.000000
21882.000000
22674.000000
23484.000000
24330.000000
25202.000000
26048.000000
26871.000000
27706.000000
28533.000000
29336.000000
30126.000000
30939.000000
31774.000000
32621.000000
33452.000000
34292.000000
35153.000000
36011.000000
36838.000000
37650.000000
38473.000000
39303.000000
40138.000000
40955.000000
41769.000000
42597.000000
43430.000000
44266.000000
45076.000000
45890.000000
46716.000000
47554.000000
48386.000000
49195.000000
50020.000000
50850.000000
51672.000000
52470.000000
53279.000000
54092.000000
54901.000000
55693.000000
56507.000000
57322.000000
58116.000000
58909.000000
59712.000000
60517.000000
61310.000000
62109.000000
62917.000000
63727.000000
64528.000000
65317.000000
66115.000000
66934.000000
67776.000000
68609.000000
69437.000000
70277.000000
71130.000000
71982.000000
72804.000000
73622.000000
74447.000000
75263.000000
76058.000000
76853.000000
77662.000000
78463.000000
79241.000000
80014.000000
80807.000000
81616.000000
82402.000000
83167.000000
83939.000000
84700.000000
85483.000000
86278.000000
87071.000000
87854.000000
88661.000000
89472.000000
90272.000000
91085.000000
91922.000000
92764.000000
93581.000000
94420.000000
95270.000000
96120.000000
96947.000000
97782.000000
98614.000000
99429.000000
100227.000000
101050.000000
101888.000000
102738.000000
103573.000000
104421.000000
105264.000000
106086.000000
106925.000000
107777.000000
108639.000000
109482.000000
110322.000000
111192.000000
112067.000000
112923.000000
113758.000000
114608.000000
115452.000000
116279.000000
117090.000000
117908.000000
118740.000000
119570.000000
120391.000000
121233.000000
122090.000000
122937.000000
123757.000000
124587.000000
125414.000000
126223.000000
127003.000000
127796.000000
128583.000000
129366.000000
130141.000000
130935.000000
131751.000000
132573.000000
133385.000000
134197.000000
135027.000000
135855.000000
136658.000000
137458.000000
138263.000000
139075.000000
139884.000000
140675.000000
141479.000000
142286.000000
143097.000000
143891.000000
144695.000000
145512.000000
146331.000000
147129.000000
147924.000000
148736.000000
149530.000000
150287.000000
151027.000000
151774.000000
152541.000000
153338.000000
154165.000000
155027.000000
155896.000000
156736.000000
157558.000000
158385.000000
159204.000000
160025.000000
160827.000000
161624.000000
162435.000000
163257.000000
164098.000000
164926.000000
165748.000000
166587.000000
167422.000000
168258.000000
169071.000000
169859.000000
170658.000000
171466.000000
172276.000000
173079.000000
173902.000000
174732.000000
175550.000000
176344.000000
177143.000000
177935.000000
178732.000000
179512.000000
180286.000000
181082.000000
181885.000000
182722.000000
183535.000000
184343.000000
185164.000000
185982.000000
186814.000000
187625.000000
188429.000000
189245.000000
190062.000000
190880.000000
191677.000000
192481.000000
193294.000000
194109.000000
194904.000000
195689.000000
196485.000000
197287.000000
198086.000000
198894.000000
199703.000000
200508.000000
201339.000000
202176.000000
202998.000000
203803.000000
204621.000000
205431.000000
206227.000000
207032.000000
207836.000000
208643.000000
209437.000000
210247.000000
211076.000000
211917.000000
212747.000000
213556.000000
214376.000000
215206.000000
216048.000000
216861.000000
217651.000000
218441.000000
219230.000000
220027.000000
220816.000000
221597.000000
222387.000000
223192.000000
224026.000000
224872.000000
225684.000000
226484.000000
227295.000000
228111.000000
228938.000000
229752.000000
230551.000000
231355.000000
232183.000000
233022.000000
233878.000000
234710.000000
235538.000000
236377.000000
237219.000000
238060.000000
238868.000000
239656.000000
240452.000000
241251.000000
242061.000000
242881.000000
243687.000000
244492.000000
245324.000000
246171.000000
247030.000000
247858.000000
248690.000000
249518.000000
250344.000000
251141.000000
251938.000000
252737.000000
253542.000000
254348.000000
255132.000000
255929.000000
256728.000000
257530.000000
258357.000000
259183.000000
259992.000000
260801.000000
261614.000000
262434.000000
263251.000000
264049.000000
264856.000000
265687.000000
266537.000000
267406.000000
268298.000000
269115.000000
269934.000000
270853.000000
271674.000000
272489.000000
273289.000000
274067.000000
274863.000000
275669.000000
276497.000000
277315.000000
278128.000000
278960.000000
279802.000000
280646.000000
281461.000000
282262.000000
283054.000000
283865.000000
284705.000000
285580.000000
286446.000000
287295.000000
288165.000000
289034.000000
289913.000000
290764.000000
291609.000000
292473.000000
293342.000000
294217.000000
295074.000000
295904.000000
296745.000000
297585.000000
298428.000000
299267.000000
300077.000000
300907.000000
301738.000000
302572.000000
303378.000000
304201.000000
305040.000000
305889.000000
306711.000000
307508.000000
308319.000000
309129.000000
309950.000000
310754.000000
311543.000000
312348.000000
313160.000000
313984.000000
314790.000000
315582.000000
316381.000000
317187.000000
317994.000000
318786.000000
319573.000000
320381.000000
321214.000000
322067.000000
322877.000000
323648.000000
324395.000000
325165.000000
325973.000000
326792.000000
327607.000000
328400.000000
329209.000000
330027.000000
330859.000000
331661.000000
332460.000000
333269.000000
334089.000000
334925.000000
335756.000000
336567.000000
337387.000000
338218.000000
339058.000000
339915.000000
340756.000000
341566.000000
342400.000000
343237.000000
344091.000000
344956.000000
345791.000000
346607.000000
347433.000000
348260.000000
349101.000000
349952.000000
350782.000000
351603.000000
352445.000000
353299.000000
354165.000000
355025.000000
355863.000000
356705.000000
357556.000000
358416.000000
359279.000000
360120.000000
360970.000000
361851.000000
362741.000000
363632.000000
364532.000000
365447.000000
366312.000000
367156.000000
368013.000000
368875.000000
369755.000000
370638.000000
371495.000000
372335.000000
373197.000000
374067.000000
374935.000000
375764.000000
376599.000000
377468.000000
378356.000000
379220.000000
380066.000000
380946.000000
381829.000000
382692.000000
383527.000000
384383.000000
385235.000000
386072.000000
386887.000000
387713.000000
388539.000000
389362.000000
390167.000000
390965.000000
391787.000000
392619.000000
393491.000000
394320.000000
395159.000000
395966.000000
396717.000000
397472.000000
398244.000000
399003.000000
399808.000000
400621.000000
401444.000000
402245.000000
403064.000000
403876.000000
404690.000000
405474.000000
406240.000000
407023.000000
407828.000000
408656.000000
409471.000000
410284.000000
411115.000000
411953.000000
412771.000000
413557.000000
414337.000000
415121.000000
415916.000000
416703.000000
417476.000000
418272.000000
419098.000000
419952.000000
420786.000000
421608.000000
422432.000000
423255.000000
424050.000000
424829.000000
425614.000000
426402.000000
427193.000000
427971.000000
428778.000000
429605.000000
430448.000000
431241.000000
432047.000000
432856.000000
433725.000000
434460.000000
435205.000000
435973.000000
436789.000000
437663.000000
438533.000000
439455.000000
440434.000000
441418.000000
442367.000000
443254.000000
444128.000000
444995.000000
445842.000000
446647.000000
447449.000000
448263.000000
449107.000000
449977.000000
450844.000000
451677.000000
452507.000000
453359.000000
454237.000000
455128.000000
456012.000000
456856.000000
457684.000000
458510.000000
459344.000000
460184.000000
461018.000000
461815.000000
462619.000000
463420.000000
464215.000000
465000.000000
465807.000000
466623.000000
467460.000000
468271.000000
469070.000000
469888.000000
470703.000000
471488.000000
472288.000000
473098.000000
473911.000000
474727.000000
475528.000000
476344.000000
477173.000000
478009.000000
478826.000000
479617.000000
480435.000000
481255.000000
482091.000000
482911.000000
483721.000000
484555.000000
485396.000000
486230.000000
487033.000000
487835.000000
488645.000000
489461.000000
490272.000000
491066.000000
491886.000000
492728.000000
493594.000000
494467.000000
495306.000000
496144.000000
496935.000000
497689.000000
498458.000000
499249.000000
500028.000000
500850.000000
501703.000000
502578.000000
503443.000000
504281.000000
505134.000000
505987.000000
506844.000000
507678.000000
508480.000000
509291.000000
510101.000000
510924.000000
511734.000000
512529.000000
513344.000000
514176.000000
515020.000000
515833.000000
516639.000000
517460.000000
518289.000000
519104.000000
519892.000000
520679.000000
521477.000000
522281.000000
523077.000000
523854.000000
524639.000000
525439.000000
526264.000000
527088.000000
527899.000000
528718.000000
529562.000000
530421.000000
531232.000000
532048.000000
532882.000000
533726.000000
534573.000000
535668.000000
536514.000000
537302.000000
538096.000000
538895.000000
539741.000000
540604.000000
541448.000000
542296.000000
543207.000000
544136.000000
545034.000000
545905.000000
546791.000000
547654.000000
548445.000000
549270.000000
550117.000000
550962.000000
551798.000000
552632.000000
553485.000000
554331.000000
555168.000000
555975.000000
556784.000000
557609.000000
558434.000000
559242.000000
560048.000000
560877.000000
561718.000000
562857.000000
563777.000000
564632.000000
565472.000000
566314.000000
567163.000000
567996.000000
568833.000000
569686.000000
570542.000000
571387.000000
572220.000000
573081.000000
573939.000000
574796.000000
575628.000000
576456.000000
577300.000000
578141.000000
578979.000000
579793.000000
580623.000000
581460.000000
582294.000000
583119.000000
583941.000000
584770.000000
585620.000000
586470.000000
587301.000000
588134.000000
588977.000000
589814.000000
590640.000000
591454.000000
592294.000000
593143.000000
593968.000000
594794.000000
595628.000000
596472.000000
597320.000000
598159.000000
598984.000000
599818.000000
600670.000000
601523.000000
602380.000000
603237.000000
604073.000000
