ECG (ms)
794.000000
1703.000000
2596.000000
3483.000000
4364.000000
5256.000000
6159.000000
7026.000000
7915.000000
8818.000000
9713.000000
10609.000000
11504.000000
12396.000000
13285.000000
14240.000000
15185.000000
16113.000000
17030.000000
17964.000000
18877.000000
19775.000000
20679.000000
21582.000000
22471.000000
23394.000000
24317.000000
25223.000000
26130.000000
27003.000000
27873.000000
28758.000000
29657.000000
30653.000000
31631.000000
32590.000000
33538.000000
34506.000000
35430.000000
36379.000000
37314.000000
38221.000000
39133.000000
40036.000000
40960.000000
41925.000000
42898.000000
43847.000000
44778.000000
45704.000000
46627.000000
47529.000000
48401.000000
49293.000000
50234.000000
51164.000000
52070.000000
53006.000000
53941.000000
54852.000000
55760.000000
56646.000000
57501.000000
58372.000000
59270.000000
60175.000000
61071.000000
61945.000000
62785.000000
63631.000000
64513.000000
65402.000000
66312.000000
67228.000000
68098.000000
68969.000000
69823.000000
70682.000000
71544.000000
72403.000000
73263.000000
74149.000000
75030.000000
75911.000000
76819.000000
77720.000000
78648.000000
79574.000000
80469.000000
81376.000000
82270.000000
83157.000000
84012.000000
84879.000000
85775.000000
86689.000000
87589.000000
88493.000000
89385.000000
90273.000000
91167.000000
92055.000000
92932.000000
93802.000000
94643.000000
95493.000000
96407.000000
97331.000000
98233.000000
99132.000000
100065.000000
100999.000000
101908.000000
102812.000000
103712.000000
104583.000000
105437.000000
106334.000000
107243.000000
108173.000000
109097.000000
109985.000000
110842.000000
111646.000000
112478.000000
113414.000000
114353.000000
115286.000000
116209.000000
117133.000000
118038.000000
118911.000000
119768.000000
120640.000000
121514.000000
122399.000000
123317.000000
124220.000000
125120.000000
126023.000000
126920.000000
127812.000000
128675.000000
129531.000000
130397.000000
131286.000000
132208.000000
133126.000000
134026.000000
134912.000000
135805.000000
136718.000000
137664.000000
138581.000000
139477.000000
140352.000000
141207.000000
142089.000000
142971.000000
143872.000000
144816.000000
145765.000000
146708.000000
147653.000000
148567.000000
149480.000000
150361.000000
151181.000000
152068.000000
152945.000000
153823.000000
154702.000000
155570.000000
156463.000000
157371.000000
158265.000000
159147.000000
160035.000000
160936.000000
161809.000000
162683.000000
163580.000000
164450.000000
165286.000000
166070.000000
166842.000000
167628.000000
168461.000000
169300.000000
170186.000000
171055.000000
171942.000000
172808.000000
173666.000000
174519.000000
175368.000000
176205.000000
177038.000000
177899.000000
178783.000000
179661.000000
180549.000000
181444.000000
182350.000000
183243.000000
184116.000000
184994.000000
185882.000000
186777.000000
187663.000000
188565.000000
189488.000000
190410.000000
191300.000000
192187.000000
193076.000000
193961.000000
194834.000000
195714.000000
196631.000000
197532.000000
198418.000000
199279.000000
200164.000000
201068.000000
201981.000000
202933.000000
203861.000000
204789.000000
205698.000000
206592.000000
207470.000000
208324.000000
209186.000000
210068.000000
210964.000000
211821.000000
212626.000000
213567.000000
214491.000000
215412.000000
216342.000000
217259.000000
218165.000000
219063.000000
219980.000000
220864.000000
221741.000000
222613.000000
223496.000000
224385.000000
225305.000000
226218.000000
227109.000000
227978.000000
228853.000000
229747.000000
230655.000000
231547.000000
232456.000000
233341.000000
234242.000000
235113.000000
235931.000000
236813.000000
237718.000000
238634.000000
239564.000000
240486.000000
241392.000000
242264.000000
243093.000000
243918.000000
244784.000000
245647.000000
246524.000000
247417.000000
248303.000000
249200.000000
250071.000000
250942.000000
251805.000000
252662.000000
253525.000000
254382.000000
255244.000000
256120.000000
257012.000000
257870.000000
258740.000000
259631.000000
260517.000000
261406.000000
262249.000000
263052.000000
263917.000000
264793.000000
265710.000000
266633.000000
267524.000000
268400.000000
269270.000000
270142.000000
271006.000000
271875.000000
272736.000000
273585.000000
274386.000000
275277.000000
276212.000000
277194.000000
278145.000000
279093.000000
280019.000000
280930.000000
281820.000000
282690.000000
283561.000000
284452.000000
285329.000000
286214.000000
287108.000000
287981.000000
288879.000000
289756.000000
290653.000000
291567.000000
292462.000000
293347.000000
294235.000000
295115.000000
296040.000000
296944.000000
297855.000000
298793.000000
299764.000000
300728.000000
301634.000000
302547.000000
303438.000000
304353.000000
305306.000000
306245.000000
307125.000000
308033.000000
308976.000000
309940.000000
310932.000000
311866.000000
312740.000000
313604.000000
314460.000000
315370.000000
316283.000000
317222.000000
318165.000000
319116.000000
320053.000000
320968.000000
321838.000000
322685.000000
323538.000000
324432.000000
325315.000000
326208.000000
327089.000000
327963.000000
328818.000000
329698.000000
330581.000000
331470.000000
332349.000000
333226.000000
334094.000000
334974.000000
335844.000000
336733.000000
337634.000000
338513.000000
339400.000000
340338.000000
341300.000000
342252.000000
343170.000000
344087.000000
344990.000000
345865.000000
346714.000000
347562.000000
348443.000000
349373.000000
350308.000000
351212.000000
352118.000000
353030.000000
353923.000000
354797.000000
355692.000000
356570.000000
357413.000000
358201.000000
359022.000000
359946.000000
360836.000000
361741.000000
362645.000000
363548.000000
364409.000000
365270.000000
366148.000000
367020.000000
367875.000000
368757.000000
369662.000000
370540.000000
371425.000000
372329.000000
373209.000000
374073.000000
374965.000000
375842.000000
376731.000000
377598.000000
378482.000000
379429.000000
380361.000000
381295.000000
382199.000000
383079.000000
383963.000000
384847.000000
385746.000000
386640.000000
387533.000000
388440.000000
389325.000000
390204.000000
391093.000000
391975.000000
392839.000000
393703.000000
394559.000000
395465.000000
396402.000000
397338.000000
398224.000000
399104.000000
399972.000000
400851.000000
401719.000000
402601.000000
403488.000000
404360.000000
405222.000000
406100.000000
406980.000000
407852.000000
408719.000000
409595.000000
410457.000000
411325.000000
412181.000000
413046.000000
413913.000000
414783.000000
415643.000000
416507.000000
417384.000000
418262.000000
419131.000000
419980.000000
420772.000000
421590.000000
422486.000000
423509.000000
424523.000000
425501.000000
426452.000000
427356.000000
428230.000000
429076.000000
429883.000000
430662.000000
431451.000000
432293.000000
433135.000000
433992.000000
434860.000000
435729.000000
436598.000000
437485.000000
438320.000000
439150.000000
439991.000000
440840.000000
441703.000000
442555.000000
443399.000000
444249.000000
445135.000000
446040.000000
446974.000000
447890.000000
448779.000000
449681.000000
450610.000000
451547.000000
452468.000000
453368.000000
454289.000000
455183.000000
456088.000000
457003.000000
457920.000000
458832.000000
459756.000000
460731.000000
461713.000000
462697.000000
463629.000000
464499.000000
465343.000000
466260.000000
467230.000000
468163.000000
469098.000000
470023.000000
470949.000000
471875.000000
472798.000000
473720.000000
474648.000000
475569.000000
476487.000000
477411.000000
478344.000000
479283.000000
480219.000000
481164.000000
482113.000000
483046.000000
483927.000000
484770.000000
485598.000000
486466.000000
487383.000000
488298.000000
489227.000000
490139.000000
491034.000000
491930.000000
492831.000000
493739.000000
494637.000000
495533.000000
496442.000000
497340.000000
498235.000000
499096.000000
499957.000000
500887.000000
501809.000000
502711.000000
503601.000000
504499.000000
505414.000000
506303.000000
507183.000000
508070.000000
508950.000000
509805.000000
510717.000000
511626.000000
512545.000000
513453.000000
514326.000000
515244.000000
516157.000000
517053.000000
517936.000000
518783.000000
519636.000000
520501.000000
521415.000000
522327.000000
523229.000000
524138.000000
525092.000000
526021.000000
526927.000000
527824.000000
528737.000000
529638.000000
530537.000000
531432.000000
532325.000000
533219.000000
534107.000000
535007.000000
535906.000000
536798.000000
537704.000000
538593.000000
539495.000000
540392.000000
541282.000000
542169.000000
543055.000000
543930.000000
544809.000000
545663.000000
546528.000000
547410.000000
548301.000000
549169.000000
550051.000000
550911.000000
551772.000000
552661.000000
553555.000000
554435.000000
555305.000000
556194.000000
557097.000000
557994.000000
558879.000000
559770.000000
560660.000000
561557.000000
562431.000000
563331.000000
564222.000000
565127.000000
566037.000000
566951.000000
567854.000000
568735.000000
569582.000000
570448.000000
571330.000000
572269.000000
573188.000000
574112.000000
575040.000000
575963.000000
576826.000000
577715.000000
578603.000000
579511.000000
580411.000000
581290.000000
582186.000000
583077.000000
584000.000000
584904.000000
585808.000000
586721.000000
587659.000000
588608.000000
589545.000000
590460.000000
591308.000000
592231.000000
593149.000000
594068.000000
594973.000000
595868.000000
596768.000000
597667.000000
598577.000000
599468.000000
600378.000000
601315.000000
602221.000000
603132.000000
604049.000000
604962.000000
605850.000000
606695.000000
607549.000000
608443.000000
609359.000000
610301.000000
611241.000000
612168.000000
613065.000000
613931.000000
614800.000000
615682.000000
616579.000000
617468.000000
618352.000000
619246.000000
620141.000000
621031.000000
621905.000000
622805.000000
623714.000000
624597.000000
625489.000000
626399.000000
627330.000000
628248.000000
629170.000000
630072.000000
630951.000000
631823.000000
632675.000000
633540.000000
634471.000000
635386.000000
636291.000000
637186.000000
638104.000000
639023.000000
639950.000000
640852.000000
641713.000000
642605.000000
643473.000000
644331.000000
645217.000000
646111.000000
646977.000000
647853.000000
648704.000000
649571.000000
650474.000000
651372.000000
652277.000000
653175.000000
654067.000000
654930.000000
655821.000000
656692.000000
657522.000000
658360.000000
659283.000000
660185.000000
661124.000000
662034.000000
662944.000000
663855.000000
664720.000000
665593.000000
666472.000000
667333.000000
668196.000000
669082.000000
669954.000000
670822.000000
671693.000000
672587.000000
673501.000000
674423.000000
675319.000000
676213.000000
677091.000000
677975.000000
678848.000000
679683.000000
680528.000000
681420.000000
682321.000000
683218.000000
684100.000000
684982.000000
685860.000000
686744.000000
687613.000000
688497.000000
689389.000000
690284.000000
691166.000000
692035.000000
692916.000000
693816.000000
694696.000000
695568.000000
696512.000000
697455.000000
698372.000000
699284.000000
700199.000000
701113.000000
702004.000000
702870.000000
703753.000000
704632.000000
705521.000000
706391.000000
707292.000000
708254.000000
709173.000000
710062.000000
710921.000000
711821.000000
712681.000000
713530.000000
714373.000000
715250.000000
716153.000000
717027.000000
717908.000000
718798.000000
719680.000000
720522.000000
721367.000000
722249.000000
723109.000000
723966.000000
724842.000000
725725.000000
726638.000000
727526.000000
728413.000000
729294.000000
730165.000000
731017.000000
731891.000000
732808.000000
733697.000000
734577.000000
735401.000000
736227.000000
737081.000000
737983.000000
738870.000000
739740.000000
740612.000000
741489.000000
742325.000000
743218.000000
744081.000000
744956.000000
745827.000000
746743.000000
747674.000000
748590.000000
749501.000000
750353.000000
751230.000000
752131.000000
753063.000000
753930.000000
754796.000000
755674.000000
756549.000000
757448.000000
758294.000000
759150.000000
759985.000000
760807.000000
761716.000000
762644.000000
763543.000000
764438.000000
765311.000000
766151.000000
766998.000000
767880.000000
768756.000000
769648.000000
770546.000000
771436.000000
772323.000000
773184.000000
774061.000000
774955.000000
775862.000000
776769.000000
777684.000000
778618.000000
779522.000000
780382.000000
781280.000000
782192.000000
783101.000000
784001.000000
784906.000000
785824.000000
786742.000000
787656.000000
788528.000000
789436.000000
790332.000000
791223.000000
792074.000000
792983.000000
793897.000000
794850.000000
795768.000000
796636.000000
797530.000000
798468.000000
799373.000000
800282.000000
801159.000000
802034.000000
802909.000000
803796.000000
804681.000000
805589.000000
806477.000000
807395.000000
808308.000000
809242.000000
810172.000000
811064.000000
811964.000000
812865.000000
813758.000000
814649.000000
815497.000000
816347.000000
817201.000000
818096.000000
819045.000000
819993.000000
820948.000000
821907.000000
822848.000000
823733.000000
824648.000000
825527.000000
826408.000000
827286.000000
828172.000000
829091.000000
830012.000000
830940.000000
831862.000000
832771.000000
833638.000000
834501.000000
835395.000000
836334.000000
837246.000000
838138.000000
839007.000000
839853.000000
840723.000000
841626.000000
842523.000000
843435.000000
844333.000000
845218.000000
846135.000000
847055.000000
847973.000000
848873.000000
849759.000000
850619.000000
851519.000000
852429.000000
853351.000000
854283.000000
855194.000000
856095.000000
857000.000000
857888.000000
858748.000000
859591.000000
860448.000000
861345.000000
862226.000000
863100.000000
864009.000000
864922.000000
865811.000000
866696.000000
867592.000000
868453.000000
869319.000000
870171.000000
871034.000000
871922.000000
872772.000000
873634.000000
874501.000000
875378.000000
876227.000000
877056.000000
877901.000000
878779.000000
879653.000000
880564.000000
881452.000000
882307.000000
883143.000000
884029.000000
884893.000000
885723.000000
886555.000000
887407.000000
888274.000000
889112.000000
889926.000000
890725.000000
891546.000000
892409.000000
893262.000000
