ECG (ms)
38.000000
693.000000
1360.000000
2035.000000
2707.000000
3374.000000
4022.000000
4676.000000
5336.000000
6006.000000
6697.000000
7392.000000
8090.000000
8771.000000
9455.000000
10139.000000
10822.000000
11503.000000
12182.000000
12850.000000
13505.000000
14155.000000
14820.000000
15504.000000
16190.000000
16895.000000
17618.000000
18312.000000
18986.000000
19662.000000
20342.000000
21019.000000
21708.000000
22386.000000
23038.000000
23678.000000
24318.000000
24964.000000
25632.000000
26311.000000
26990.000000
27660.000000
28330.000000
29007.000000
29689.000000
30375.000000
31071.000000
31752.000000
32426.000000
33102.000000
33777.000000
34463.000000
35159.000000
35879.000000
36600.000000
37298.000000
37996.000000
38693.000000
39401.000000
40122.000000
40869.000000
41606.000000
42315.000000
43011.000000
43715.000000
44430.000000
45146.000000
45862.000000
46545.000000
47214.000000
47875.000000
48541.000000
49214.000000
49881.000000
50535.000000
51181.000000
51845.000000
52518.000000
53191.000000
53879.000000
54577.000000
55293.000000
56011.000000
56735.000000
57448.000000
58130.000000
58774.000000
59424.000000
60070.000000
60723.000000
61395.000000
62090.000000
62821.000000
63569.000000
64288.000000
64994.000000
65701.000000
66415.000000
67129.000000
67844.000000
68534.000000
69205.000000
69871.000000
70535.000000
71203.000000
71889.000000
72588.000000
73285.000000
74000.000000
74746.000000
75532.000000
76330.000000
77096.000000
77821.000000
78539.000000
79249.000000
79953.000000
80643.000000
81310.000000
81983.000000
82666.000000
83355.000000
84057.000000
84751.000000
85440.000000
86128.000000
86827.000000
87540.000000
88265.000000
88981.000000
89671.000000
90355.000000
91038.000000
91727.000000
92432.000000
93141.000000
93837.000000
94523.000000
95214.000000
95917.000000
96637.000000
97364.000000
98094.000000
98792.000000
99481.000000
100165.000000
100852.000000
101546.000000
102240.000000
102925.000000
103610.000000
104304.000000
105009.000000
105725.000000
106432.000000
107124.000000
107810.000000
108494.000000
109179.000000
109868.000000
110558.000000
111240.000000
111928.000000
112633.000000
113356.000000
114085.000000
114798.000000
115500.000000
116203.000000
116906.000000
117607.000000
118292.000000
118967.000000
119652.000000
120339.000000
121042.000000
121749.000000
122451.000000
123157.000000
123868.000000
124584.000000
125272.000000
125931.000000
126610.000000
127287.000000
127953.000000
128620.000000
129294.000000
129969.000000
130652.000000
131332.000000
132013.000000
132707.000000
133421.000000
134161.000000
134922.000000
135655.000000
136386.000000
137116.000000
137850.000000
138580.000000
139283.000000
139977.000000
140677.000000
141385.000000
142102.000000
142823.000000
143526.000000
144230.000000
144938.000000
145658.000000
146386.000000
147100.000000
147802.000000
148504.000000
149210.000000
149930.000000
150643.000000
151350.000000
152063.000000
152791.000000
153528.000000
154264.000000
154976.000000
155698.000000
156421.000000
157155.000000
157887.000000
158612.000000
159350.000000
160104.000000
160867.000000
161630.000000
162350.000000
163057.000000
163758.000000
164459.000000
165173.000000
165889.000000
166607.000000
167336.000000
168082.000000
168847.000000
169611.000000
170346.000000
171080.000000
171816.000000
172557.000000
173293.000000
174015.000000
174731.000000
175446.000000
176159.000000
176861.000000
177553.000000
178263.000000
179003.000000
179787.000000
180569.000000
181324.000000
182077.000000
182839.000000
183591.000000
184322.000000
185028.000000
185732.000000
186433.000000
187133.000000
187827.000000
188528.000000
189249.000000
189979.000000
190713.000000
191426.000000
192142.000000
192865.000000
193589.000000
194303.000000
195005.000000
195713.000000
196427.000000
197151.000000
197858.000000
198546.000000
199235.000000
199924.000000
200607.000000
201271.000000
201914.000000
202565.000000
203220.000000
203896.000000
204578.000000
205265.000000
205942.000000
206628.000000
207314.000000
208006.000000
208675.000000
209343.000000
210014.000000
210685.000000
211338.000000
211980.000000
212633.000000
213296.000000
213967.000000
214632.000000
215290.000000
215962.000000
216643.000000
217330.000000
217997.000000
218659.000000
219328.000000
220003.000000
220676.000000
221333.000000
221984.000000
222644.000000
223317.000000
224001.000000
224694.000000
225383.000000
226067.000000
226759.000000
227453.000000
228138.000000
228812.000000
229454.000000
230111.000000
230784.000000
231479.000000
232186.000000
232887.000000
233579.000000
234266.000000
234955.000000
235641.000000
236320.000000
236997.000000
237666.000000
238316.000000
238975.000000
239670.000000
240395.000000
241099.000000
241799.000000
242514.000000
243245.000000
243975.000000
244693.000000
245395.000000
246099.000000
246819.000000
247534.000000
248249.000000
248943.000000
249652.000000
250368.000000
251104.000000
251833.000000
252553.000000
253284.000000
254020.000000
254778.000000
255530.000000
256270.000000
257011.000000
257757.000000
258502.000000
259227.000000
259957.000000
260685.000000
261416.000000
262149.000000
262891.000000
263664.000000
264489.000000
265340.000000
266150.000000
266937.000000
267714.000000
268479.000000
269207.000000
269913.000000
270620.000000
271332.000000
272041.000000
272754.000000
273492.000000
274242.000000
274992.000000
275730.000000
276472.000000
277206.000000
277926.000000
278636.000000
279352.000000
280079.000000
280807.000000
281517.000000
282238.000000
282973.000000
283710.000000
284430.000000
285133.000000
285840.000000
286554.000000
287274.000000
287977.000000
288683.000000
289399.000000
290124.000000
290838.000000
291532.000000
292231.000000
292929.000000
293633.000000
294349.000000
295071.000000
295789.000000
296502.000000
297213.000000
297931.000000
298644.000000
299342.000000
300042.000000
300752.000000
301480.000000
302201.000000
302922.000000
303658.000000
304405.000000
305154.000000
305880.000000
306603.000000
307324.000000
308033.000000
308733.000000
309407.000000
310088.000000
310796.000000
311536.000000
312313.000000
313078.000000
313837.000000
314609.000000
315381.000000
316152.000000
316914.000000
317653.000000
318392.000000
319129.000000
319861.000000
320591.000000
321307.000000
322009.000000
322711.000000
323431.000000
324162.000000
324905.000000
325649.000000
326372.000000
327072.000000
327775.000000
328480.000000
329186.000000
329887.000000
330563.000000
331213.000000
331850.000000
332492.000000
333159.000000
333835.000000
334535.000000
335243.000000
335950.000000
336634.000000
337312.000000
337983.000000
338659.000000
339338.000000
340015.000000
340686.000000
341375.000000
342082.000000
342799.000000
343514.000000
344208.000000
344906.000000
345606.000000
346311.000000
347008.000000
347688.000000
348381.000000
349088.000000
349790.000000
350483.000000
351183.000000
351895.000000
352614.000000
353338.000000
354048.000000
354760.000000
355475.000000
356187.000000
356897.000000
357599.000000
358308.000000
359022.000000
359734.000000
360426.000000
361129.000000
361833.000000
362552.000000
363282.000000
363994.000000
364707.000000
365424.000000
366156.000000
366864.000000
367563.000000
368267.000000
368975.000000
369682.000000
370356.000000
371016.000000
371681.000000
372373.000000
373104.000000
373878.000000
374624.000000
375362.000000
376091.000000
376806.000000
377497.000000
378169.000000
378820.000000
379470.000000
380125.000000
380798.000000
381481.000000
382169.000000
382846.000000
383533.000000
384224.000000
384909.000000
385595.000000
386295.000000
386998.000000
387693.000000
388379.000000
389066.000000
389760.000000
390458.000000
391146.000000
391850.000000
392562.000000
393280.000000
393983.000000
394672.000000
395375.000000
396093.000000
396816.000000
397528.000000
398222.000000
398931.000000
399644.000000
400354.000000
401059.000000
401744.000000
402433.000000
403137.000000
403852.000000
404569.000000
405282.000000
406011.000000
406761.000000
407518.000000
408243.000000
408954.000000
409668.000000
410378.000000
411068.000000
411741.000000
412419.000000
413092.000000
413769.000000
414433.000000
415108.000000
415812.000000
416536.000000
417244.000000
417948.000000
418673.000000
419413.000000
420148.000000
420853.000000
421558.000000
422268.000000
422962.000000
423630.000000
424285.000000
424947.000000
425618.000000
426297.000000
426977.000000
427644.000000
428326.000000
429024.000000
429733.000000
430436.000000
431118.000000
431796.000000
432486.000000
433184.000000
433866.000000
434538.000000
435218.000000
435904.000000
436582.000000
437251.000000
437927.000000
438619.000000
439320.000000
440030.000000
440725.000000
441405.000000
442085.000000
442765.000000
443439.000000
444093.000000
444730.000000
445356.000000
446003.000000
446666.000000
447329.000000
447998.000000
448692.000000
449410.000000
450132.000000
450863.000000
451566.000000
452248.000000
452937.000000
453624.000000
454320.000000
455002.000000
455677.000000
456378.000000
457104.000000
457836.000000
458547.000000
459246.000000
459942.000000
460641.000000
461343.000000
462029.000000
462736.000000
463459.000000
464191.000000
464907.000000
465621.000000
466344.000000
467065.000000
467790.000000
468496.000000
469211.000000
469927.000000
470641.000000
471344.000000
472059.000000
472786.000000
473522.000000
474261.000000
474984.000000
475716.000000
476452.000000
477178.000000
477884.000000
478598.000000
479317.000000
480035.000000
480746.000000
481472.000000
482215.000000
482964.000000
483699.000000
484413.000000
485128.000000
485848.000000
486550.000000
487240.000000
487942.000000
488676.000000
489428.000000
490202.000000
490979.000000
491719.000000
492425.000000
493122.000000
493830.000000
494560.000000
495306.000000
496089.000000
496888.000000
497673.000000
498450.000000
499219.000000
499990.000000
500766.000000
501532.000000
502270.000000
503008.000000
503742.000000
504478.000000
505186.000000
505895.000000
506592.000000
507285.000000
507969.000000
508641.000000
509329.000000
510027.000000
510728.000000
511449.000000
512188.000000
512939.000000
513674.000000
514387.000000
515096.000000
515805.000000
516518.000000
517220.000000
517935.000000
518671.000000
519421.000000
520174.000000
520906.000000
521646.000000
522387.000000
523112.000000
523818.000000
524537.000000
525260.000000
525984.000000
526693.000000
527416.000000
528154.000000
528896.000000
529621.000000
530352.000000
531077.000000
531788.000000
532485.000000
533195.000000
533924.000000
534650.000000
535361.000000
536086.000000
536820.000000
537535.000000
538233.000000
538944.000000
539658.000000
540365.000000
541064.000000
541780.000000
542512.000000
543240.000000
543947.000000
544663.000000
545391.000000
546124.000000
546846.000000
547550.000000
548255.000000
548971.000000
549688.000000
550395.000000
551111.000000
551842.000000
552583.000000
553322.000000
554053.000000
554793.000000
555534.000000
556263.000000
556978.000000
557703.000000
558431.000000
559156.000000
559870.000000
560592.000000
561307.000000
561999.000000
562682.000000
563375.000000
564074.000000
564765.000000
565453.000000
566157.000000
566869.000000
567584.000000
568289.000000
568982.000000
569681.000000
570381.000000
571081.000000
571774.000000
572442.000000
573092.000000
573735.000000
574387.000000
575070.000000
575777.000000
576490.000000
577194.000000
577905.000000
578625.000000
579349.000000
580055.000000
580745.000000
581438.000000
582135.000000
582825.000000
583512.000000
584223.000000
584973.000000
585737.000000
586480.000000
587235.000000
587997.000000
588784.000000
589535.000000
590268.000000
591006.000000
591729.000000
592435.000000
593133.000000
593858.000000
594612.000000
595379.000000
596131.000000
596897.000000
597659.000000
598390.000000
599119.000000
599850.000000
600576.000000
601283.000000
601980.000000
602681.000000
603387.000000
604090.000000
604775.000000
605472.000000
606184.000000
606922.000000
607665.000000
608394.000000
609120.000000
609848.000000
610571.000000
611278.000000
611984.000000
612697.000000
613417.000000
614118.000000
614825.000000
615542.000000
616275.000000
617001.000000
617720.000000
618450.000000
619180.000000
619900.000000
620590.000000
621264.000000
621930.000000
622592.000000
623261.000000
623952.000000
624674.000000
625413.000000
626145.000000
626866.000000
627587.000000
628305.000000
629017.000000
629702.000000
630400.000000
631110.000000
631824.000000
632521.000000
633235.000000
633972.000000
634707.000000
635433.000000
636149.000000
636875.000000
637600.000000
638311.000000
639008.000000
639717.000000
640429.000000
641138.000000
641837.000000
642555.000000
643277.000000
644002.000000
644727.000000
645466.000000
646213.000000
646946.000000
647680.000000
648420.000000
649151.000000
649851.000000
650556.000000
651254.000000
651951.000000
652644.000000
653351.000000
654073.000000
654794.000000
655518.000000
656257.000000
657000.000000
657720.000000
658433.000000
659152.000000
659874.000000
660587.000000
661285.000000
661997.000000
662728.000000
663483.000000
664243.000000
664984.000000
665726.000000
666472.000000
667211.000000
667915.000000
668622.000000
669335.000000
670030.000000
670714.000000
671399.000000
672111.000000
672829.000000
673547.000000
674270.000000
675013.000000
675765.000000
676502.000000
677218.000000
677940.000000
678655.000000
679360.000000
680053.000000
680757.000000
681470.000000
682199.000000
682926.000000
683639.000000
684365.000000
685090.000000
685796.000000
686496.000000
687216.000000
687943.000000
688660.000000
689359.000000
690062.000000
690774.000000
691492.000000
692193.000000
692895.000000
693609.000000
694333.000000
695046.000000
695757.000000
696482.000000
697214.000000
697938.000000
698657.000000
699390.000000
700127.000000
700839.000000
701550.000000
702272.000000
703004.000000
703728.000000
704458.000000
705204.000000
705955.000000
706685.000000
707406.000000
708135.000000
708872.000000
709596.000000
710320.000000
711066.000000
711817.000000
712555.000000
713283.000000
714007.000000
714742.000000
715478.000000
716212.000000
716922.000000
717622.000000
718323.000000
719047.000000
719790.000000
720546.000000
721301.000000
722032.000000
722770.000000
723504.000000
724231.000000
724938.000000
725635.000000
726347.000000
727067.000000
727799.000000
728524.000000
729237.000000
729966.000000
730695.000000
731423.000000
732120.000000
732829.000000
733547.000000
734272.000000
734995.000000
735709.000000
736445.000000
737182.000000
737909.000000
738610.000000
739321.000000
740046.000000
740776.000000
741507.000000
742252.000000
743010.000000
743758.000000
744495.000000
745239.000000
745978.000000
746695.000000
747403.000000
748114.000000
748826.000000
749530.000000
750223.000000
750932.000000
751664.000000
752403.000000
753133.000000
753875.000000
754624.000000
755362.000000
756066.000000
756733.000000
757363.000000
758008.000000
758679.000000
759357.000000
760052.000000
760774.000000
761480.000000
762171.000000
762911.000000
763664.000000
764396.000000
765140.000000
765889.000000
766633.000000
767369.000000
768093.000000
768804.000000
769504.000000
770186.000000
770870.000000
771558.000000
772259.000000
772962.000000
773653.000000
774362.000000
775081.000000
775798.000000
776493.000000
777194.000000
777897.000000
778604.000000
779301.000000
779991.000000
780686.000000
781383.000000
782077.000000
782758.000000
783450.000000
784144.000000
784842.000000
785540.000000
786228.000000
786927.000000
787620.000000
788315.000000
789000.000000
789683.000000
790370.000000
791059.000000
791743.000000
792418.000000
793107.000000
793810.000000
794529.000000
795235.000000
795939.000000
796651.000000
797368.000000
798089.000000
798797.000000
799485.000000
800174.000000
800866.000000
801558.000000
802261.000000
802976.000000
803691.000000
804386.000000
805073.000000
805772.000000
806475.000000
807180.000000
807885.000000
808577.000000
809247.000000
809913.000000
810574.000000
811225.000000
811865.000000
812485.000000
813101.000000
813716.000000
814342.000000
814970.000000
815602.000000
816224.000000
816843.000000
817473.000000
818107.000000
818744.000000
819377.000000
820009.000000
820646.000000
821284.000000
821921.000000
822548.000000
823166.000000
823780.000000
824393.000000
825000.000000
825600.000000
826192.000000
826794.000000
827410.000000
828049.000000
828699.000000
829368.000000
830042.000000
830702.000000
831365.000000
832031.000000
832699.000000
833355.000000
834013.000000
834683.000000
835358.000000
836030.000000
836708.000000
837402.000000
838109.000000
838830.000000
839544.000000
840238.000000
840939.000000
841634.000000
842321.000000
843000.000000
843704.000000
844420.000000
845139.000000
845850.000000
846574.000000
847302.000000
848023.000000
848738.000000
849456.000000
850173.000000
850883.000000
851579.000000
852283.000000
852982.000000
853682.000000
854393.000000
855126.000000
855880.000000
856629.000000
857368.000000
858110.000000
858846.000000
859569.000000
860271.000000
860968.000000
861678.000000
862400.000000
863132.000000
863862.000000
864584.000000
865314.000000
866049.000000
866782.000000
867505.000000
868228.000000
868959.000000
869688.000000
870428.000000
871164.000000
871912.000000
872683.000000
873478.000000
874260.000000
875010.000000
875766.000000
876537.000000
877307.000000
878055.000000
878777.000000
879499.000000
880218.000000
880938.000000
881648.000000
882371.000000
883114.000000
883890.000000
884661.000000
885410.000000
886147.000000
886852.000000
887529.000000
888190.000000
888826.000000
889472.000000
890157.000000
890886.000000
891633.000000
892362.000000
893093.000000
893828.000000
894565.000000
895285.000000
895997.000000
896725.000000
897461.000000
898191.000000
898905.000000
899630.000000
900365.000000
901101.000000
901820.000000
902554.000000
