ECG (ms)
384.000000
1230.000000
2167.000000
3279.000000
4323.000000
5339.000000
6327.000000
7277.000000
8197.000000
9082.000000
9887.000000
10600.000000
11331.000000
12370.000000
13412.000000
14410.000000
15386.000000
16320.000000
17166.000000
17964.000000
18739.000000
19522.000000
20433.000000
21404.000000
22367.000000
23333.000000
24272.000000
25182.000000
26081.000000
26979.000000
27849.000000
28655.000000
29494.000000
30350.000000
31256.000000
32167.000000
33068.000000
33963.000000
34875.000000
35809.000000
36711.000000
37552.000000
38333.000000
39126.000000
39981.000000
40832.000000
41602.000000
42458.000000
43336.000000
44283.000000
45274.000000
46264.000000
47238.000000
48194.000000
49163.000000
50101.000000
51006.000000
51889.000000
52801.000000
53780.000000
54755.000000
55701.000000
56633.000000
57537.000000
58431.000000
59365.000000
60333.000000
61312.000000
62268.000000
63196.000000
64102.000000
64929.000000
65729.000000
66578.000000
67488.000000
68452.000000
69434.000000
70409.000000
71350.000000
72255.000000
73175.000000
74096.000000
74974.000000
75791.000000
76531.000000
77346.000000
78351.000000
79325.000000
80254.000000
81155.000000
82043.000000
82925.000000
83766.000000
84656.000000
85597.000000
86557.000000
87447.000000
88223.000000
88937.000000
89663.000000
90526.000000
91442.000000
92353.000000
93233.000000
94090.000000
94955.000000
95832.000000
96711.000000
97531.000000
98434.000000
99405.000000
100402.000000
101381.000000
102327.000000
103199.000000
104063.000000
104987.000000
105923.000000
106832.000000
107655.000000
108441.000000
109334.000000
110253.000000
111175.000000
112062.000000
112848.000000
113622.000000
114480.000000
115415.000000
116339.000000
117252.000000
118151.000000
118988.000000
119766.000000
120613.000000
121587.000000
122575.000000
123563.000000
124539.000000
125498.000000
126394.000000
127254.000000
128186.000000
129174.000000
130142.000000
131051.000000
131965.000000
132937.000000
133911.000000
134821.000000
135761.000000
136786.000000
137768.000000
138726.000000
139646.000000
140505.000000
141337.000000
142115.000000
142877.000000
143740.000000
144724.000000
145598.000000
146393.000000
147225.000000
148066.000000
148913.000000
149775.000000
150675.000000
151581.000000
152499.000000
153436.000000
154380.000000
155330.000000
156259.000000
157165.000000
158009.000000
158823.000000
159654.000000
160523.000000
161448.000000
162377.000000
163295.000000
164259.000000
165262.000000
166296.000000
167291.000000
168223.000000
169173.000000
170121.000000
171085.000000
172037.000000
172924.000000
173792.000000
174718.000000
175676.000000
176649.000000
177609.000000
178606.000000
179620.000000
180668.000000
181646.000000
182542.000000
183404.000000
184266.000000
185214.000000
186175.000000
187110.000000
188040.000000
188957.000000
189877.000000
190765.000000
191608.000000
192403.000000
193196.000000
194225.000000
195202.000000
196163.000000
197110.000000
198072.000000
199021.000000
199972.000000
200891.000000
201781.000000
202635.000000
203482.000000
204364.000000
205285.000000
206232.000000
207184.000000
208119.000000
209070.000000
210045.000000
211000.000000
211931.000000
212840.000000
213766.000000
214711.000000
215662.000000
216554.000000
217457.000000
218388.000000
219347.000000
220326.000000
221289.000000
222236.000000
223179.000000
224086.000000
225018.000000
225961.000000
226909.000000
227858.000000
228814.000000
229764.000000
230664.000000
231587.000000
232530.000000
233423.000000
234324.000000
235231.000000
236177.000000
237135.000000
238053.000000
238953.000000
239872.000000
240789.000000
241694.000000
242623.000000
243517.000000
244366.000000
245182.000000
246038.000000
246960.000000
247871.000000
248766.000000
249661.000000
250549.000000
251430.000000
252320.000000
253219.000000
254143.000000
255075.000000
256007.000000
256908.000000
257758.000000
258606.000000
259482.000000
260399.000000
261331.000000
262256.000000
263147.000000
264015.000000
264868.000000
265742.000000
266671.000000
267641.000000
268630.000000
269585.000000
270460.000000
271254.000000
271977.000000
272726.000000
273546.000000
274469.000000
275405.000000
276307.000000
277210.000000
278130.000000
279052.000000
279933.000000
280789.000000
281606.000000
282441.000000
283392.000000
284375.000000
285333.000000
286306.000000
287279.000000
288227.000000
289120.000000
289977.000000
290780.000000
291562.000000
292611.000000
293684.000000
294689.000000
295675.000000
296635.000000
297569.000000
298471.000000
299326.000000
300152.000000
300986.000000
301818.000000
302684.000000
303581.000000
304522.000000
305424.000000
306293.000000
307107.000000
307850.000000
308576.000000
309308.000000
310059.000000
311119.000000
312105.000000
313053.000000
313978.000000
314864.000000
315725.000000
316576.000000
317421.000000
318218.000000
318972.000000
319839.000000
320771.000000
321715.000000
322653.000000
323573.000000
324456.000000
325306.000000
326115.000000
326929.000000
327801.000000
328716.000000
329635.000000
330574.000000
331544.000000
332517.000000
333485.000000
334395.000000
335291.000000
336219.000000
337163.000000
338116.000000
339025.000000
339952.000000
340922.000000
341911.000000
342909.000000
343887.000000
344835.000000
345739.000000
346616.000000
347520.000000
348442.000000
349398.000000
350354.000000
351302.000000
352202.000000
353117.000000
354025.000000
354934.000000
355877.000000
356807.000000
357731.000000
358682.000000
359655.000000
360652.000000
361643.000000
362607.000000
363523.000000
364427.000000
365314.000000
366175.000000
367007.000000
367877.000000
368801.000000
369759.000000
370730.000000
371709.000000
372681.000000
373606.000000
374500.000000
375336.000000
376119.000000
376920.000000
377783.000000
378619.000000
379603.000000
380502.000000
381293.000000
382035.000000
382765.000000
383529.000000
384339.000000
385191.000000
386010.000000
386860.000000
387704.000000
388534.000000
389308.000000
390062.000000
390803.000000
391513.000000
392290.000000
393134.000000
393971.000000
394794.000000
395627.000000
396507.000000
397419.000000
398324.000000
399218.000000
400105.000000
400960.000000
401753.000000
402540.000000
403470.000000
404427.000000
405364.000000
406303.000000
407223.000000
408096.000000
408923.000000
409743.000000
410663.000000
411603.000000
412541.000000
413480.000000
414408.000000
415297.000000
416169.000000
417050.000000
417958.000000
418891.000000
419818.000000
420737.000000
421657.000000
422584.000000
423488.000000
424342.000000
425204.000000
426139.000000
427096.000000
428071.000000
429035.000000
429984.000000
430915.000000
431843.000000
432794.000000
433774.000000
434769.000000
435706.000000
436638.000000
437601.000000
438557.000000
439514.000000
440474.000000
441442.000000
442392.000000
443283.000000
444149.000000
445008.000000
445906.000000
446758.000000
447551.000000
448298.000000
449065.000000
449867.000000
450688.000000
451575.000000
452482.000000
453393.000000
454276.000000
455142.000000
456053.000000
457016.000000
458005.000000
459031.000000
460036.000000
461037.000000
461991.000000
462926.000000
463862.000000
464774.000000
465702.000000
466654.000000
467646.000000
468624.000000
469622.000000
470587.000000
471563.000000
472560.000000
473556.000000
474545.000000
475544.000000
476496.000000
477449.000000
478426.000000
479423.000000
480411.000000
481400.000000
482395.000000
483399.000000
484405.000000
485420.000000
486442.000000
487397.000000
488317.000000
489282.000000
490260.000000
491263.000000
492251.000000
493225.000000
494203.000000
495140.000000
496099.000000
497072.000000
498053.000000
498993.000000
499883.000000
500744.000000
501585.000000
502365.000000
503441.000000
504423.000000
505385.000000
506336.000000
507284.000000
508224.000000
509135.000000
510025.000000
510870.000000
511710.000000
512632.000000
513646.000000
514679.000000
515691.000000
516675.000000
517638.000000
518579.000000
519472.000000
520366.000000
521273.000000
522200.000000
523172.000000
524121.000000
525074.000000
526070.000000
527097.000000
528121.000000
529117.000000
530069.000000
531025.000000
531962.000000
532891.000000
533786.000000
534714.000000
535660.000000
536634.000000
537562.000000
538455.000000
539394.000000
540359.000000
541330.000000
542310.000000
543281.000000
544246.000000
545207.000000
546144.000000
547072.000000
547999.000000
548912.000000
549837.000000
550772.000000
551702.000000
552646.000000
553615.000000
554561.000000
555470.000000
556368.000000
557296.000000
558243.000000
559202.000000
560171.000000
561159.000000
562141.000000
563110.000000
564050.000000
564956.000000
565875.000000
566812.000000
567758.000000
568731.000000
569719.000000
570712.000000
571694.000000
572691.000000
573692.000000
574634.000000
575609.000000
576589.000000
577549.000000
578498.000000
579426.000000
580332.000000
581269.000000
582253.000000
583233.000000
584111.000000
584902.000000
585633.000000
586400.000000
587173.000000
588149.000000
589228.000000
590240.000000
591217.000000
592173.000000
593100.000000
593995.000000
594866.000000
595810.000000
596787.000000
597791.000000
598788.000000
599765.000000
600667.000000
601514.000000
602372.000000
603276.000000
604185.000000
605098.000000
606020.000000
606932.000000
607849.000000
608773.000000
609687.000000
610587.000000
611545.000000
612529.000000
613490.000000
614439.000000
615357.000000
616264.000000
617157.000000
618059.000000
619014.000000
619976.000000
620952.000000
621910.000000
622887.000000
623874.000000
624817.000000
625761.000000
626719.000000
627716.000000
628707.000000
629660.000000
630636.000000
631627.000000
632614.000000
633537.000000
634453.000000
635395.000000
636358.000000
637348.000000
638334.000000
639312.000000
640259.000000
641227.000000
642198.000000
643170.000000
644152.000000
645113.000000
646082.000000
647058.000000
648049.000000
649006.000000
649969.000000
650949.000000
651930.000000
652911.000000
653894.000000
654846.000000
655815.000000
656803.000000
657789.000000
658765.000000
659709.000000
660600.000000
661444.000000
662184.000000
663002.000000
663936.000000
664752.000000
665618.000000
666559.000000
667542.000000
668518.000000
669501.000000
670475.000000
671434.000000
672400.000000
673358.000000
674305.000000
675262.000000
676235.000000
677191.000000
678161.000000
679152.000000
680155.000000
681098.000000
681981.000000
682852.000000
683739.000000
684645.000000
685590.000000
686551.000000
687494.000000
688466.000000
689500.000000
690545.000000
691597.000000
692632.000000
693671.000000
694708.000000
695737.000000
696754.000000
697760.000000
698756.000000
699767.000000
700787.000000
701791.000000
702750.000000
703726.000000
704710.000000
705722.000000
706733.000000
707726.000000
708719.000000
709722.000000
710713.000000
711694.000000
712679.000000
713634.000000
714581.000000
715570.000000
716568.000000
717561.000000
718559.000000
719509.000000
720422.000000
721379.000000
722346.000000
723334.000000
724348.000000
725369.000000
726375.000000
727362.000000
728352.000000
729337.000000
730314.000000
731254.000000
732245.000000
733269.000000
734291.000000
735307.000000
736250.000000
737179.000000
738126.000000
739059.000000
740031.000000
741025.000000
742010.000000
743035.000000
744071.000000
745097.000000
746116.000000
747055.000000
748027.000000
749084.000000
750176.000000
751253.000000
752279.000000
753218.000000
754174.000000
755207.000000
756268.000000
757338.000000
758393.000000
759431.000000
760432.000000
761419.000000
762359.000000
763312.000000
764288.000000
765258.000000
766164.000000
767042.000000
767944.000000
768871.000000
769838.000000
770806.000000
771740.000000
772656.000000
773575.000000
774536.000000
775512.000000
776497.000000
777440.000000
778424.000000
779467.000000
780519.000000
781554.000000
782535.000000
783480.000000
784457.000000
785473.000000
786484.000000
787465.000000
788391.000000
789351.000000
790321.000000
791280.000000
792234.000000
793164.000000
794059.000000
794912.000000
795716.000000
796555.000000
797573.000000
798575.000000
799555.000000
800517.000000
801469.000000
802400.000000
803333.000000
804262.000000
805215.000000
806193.000000
807155.000000
807987.000000
808744.000000
809566.000000
810440.000000
811363.000000
812335.000000
813320.000000
814308.000000
815289.000000
816244.000000
817161.000000
818071.000000
818991.000000
819913.000000
820815.000000
821717.000000
822639.000000
823572.000000
824517.000000
825432.000000
826353.000000
827283.000000
828203.000000
829084.000000
829947.000000
830813.000000
831758.000000
832724.000000
833643.000000
834564.000000
835470.000000
836339.000000
837197.000000
838037.000000
838889.000000
839669.000000
840439.000000
841313.000000
842168.000000
842968.000000
843787.000000
844638.000000
845511.000000
846391.000000
847219.000000
848013.000000
848861.000000
849713.000000
850592.000000
851457.000000
852296.000000
853115.000000
853886.000000
854643.000000
855436.000000
856406.000000
857370.000000
858312.000000
859232.000000
860144.000000
861014.000000
861882.000000
862723.000000
863564.000000
864530.000000
865533.000000
866535.000000
867523.000000
868497.000000
869451.000000
870388.000000
871290.000000
872174.000000
873078.000000
874002.000000
874893.000000
875811.000000
876715.000000
877588.000000
878406.000000
879218.000000
880067.000000
880941.000000
881848.000000
882736.000000
883590.000000
884398.000000
885173.000000
885906.000000
886748.000000
887623.000000
888488.000000
889306.000000
890145.000000
891003.000000
891884.000000
892735.000000
893539.000000
894293.000000
895038.000000
895806.000000
896600.000000
897586.000000
898537.000000
899444.000000
900328.000000
901198.000000
902083.000000
902993.000000
903936.000000
904911.000000
905917.000000
906878.000000
907820.000000
908738.000000
909649.000000
910584.000000
911493.000000
912363.000000
913247.000000
914230.000000
915244.000000
