ECG (ms)
175.000000
926.000000
1725.000000
2554.000000
3382.000000
4178.000000
4972.000000
5813.000000
6660.000000
7465.000000
8238.000000
8995.000000
9766.000000
10524.000000
11253.000000
12005.000000
12814.000000
13648.000000
14451.000000
15252.000000
16079.000000
16880.000000
17640.000000
18410.000000
19194.000000
19967.000000
20745.000000
21548.000000
22367.000000
23161.000000
23966.000000
24751.000000
25529.000000
26283.000000
27046.000000
27835.000000
28635.000000
29419.000000
30219.000000
31060.000000
31912.000000
32695.000000
33492.000000
34298.000000
35096.000000
35886.000000
36664.000000
37431.000000
38195.000000
38962.000000
39751.000000
40520.000000
41319.000000
42130.000000
42909.000000
43690.000000
44467.000000
45241.000000
45992.000000
46752.000000
47520.000000
48296.000000
49049.000000
49819.000000
50589.000000
51374.000000
52152.000000
52915.000000
53611.000000
54290.000000
54996.000000
55716.000000
56463.000000
57225.000000
57977.000000
58725.000000
59480.000000
60249.000000
60985.000000
61696.000000
62403.000000
63108.000000
63825.000000
64563.000000
65349.000000
66110.000000
66863.000000
67638.000000
68456.000000
69268.000000
70038.000000
70828.000000
71634.000000
72443.000000
73216.000000
73971.000000
74750.000000
75554.000000
76338.000000
77145.000000
77962.000000
78772.000000
79561.000000
80359.000000
81163.000000
81941.000000
82710.000000
83484.000000
84287.000000
85052.000000
85840.000000
86632.000000
87409.000000
88204.000000
89003.000000
89816.000000
90581.000000
91363.000000
92145.000000
92919.000000
93720.000000
94528.000000
95333.000000
96137.000000
96934.000000
97740.000000
98494.000000
99259.000000
100090.000000
100936.000000
101746.000000
102569.000000
103425.000000
104268.000000
105094.000000
105950.000000
106808.000000
107639.000000
108470.000000
109249.000000
109994.000000
110751.000000
111501.000000
112228.000000
112959.000000
113703.000000
114458.000000
115172.000000
115913.000000
116647.000000
117369.000000
118114.000000
118848.000000
119592.000000
120356.000000
121143.000000
121911.000000
122698.000000
123439.000000
124138.000000
124835.000000
125553.000000
126295.000000
127013.000000
127702.000000
128396.000000
129075.000000
129781.000000
130478.000000
131181.000000
131897.000000
132641.000000
133385.000000
134129.000000
134876.000000
135640.000000
136369.000000
137106.000000
137838.000000
138510.000000
139189.000000
139918.000000
140666.000000
141449.000000
142217.000000
143002.000000
143795.000000
144592.000000
145359.000000
146143.000000
146929.000000
147682.000000
148429.000000
149193.000000
149980.000000
150761.000000
151540.000000
152339.000000
153142.000000
153918.000000
154712.000000
155502.000000
156290.000000
157048.000000
157828.000000
158627.000000
159401.000000
160172.000000
160951.000000
161748.000000
162525.000000
163334.000000
164139.000000
164913.000000
165682.000000
166459.000000
167257.000000
168026.000000
168833.000000
169650.000000
170443.000000
171251.000000
172064.000000
172855.000000
173608.000000
174354.000000
175139.000000
175944.000000
176755.000000
177528.000000
178300.000000
179104.000000
179911.000000
180691.000000
181436.000000
182190.000000
182978.000000
183770.000000
184523.000000
185298.000000
186080.000000
186846.000000
187584.000000
188340.000000
189098.000000
189830.000000
190548.000000
191272.000000
192017.000000
192756.000000
193521.000000
194329.000000
195114.000000
195901.000000
196704.000000
197507.000000
198279.000000
199062.000000
199832.000000
200565.000000
201305.000000
202058.000000
202819.000000
203571.000000
204350.000000
205173.000000
205966.000000
206750.000000
207538.000000
208309.000000
209051.000000
209805.000000
210569.000000
211320.000000
212044.000000
212783.000000
213538.000000
214262.000000
214980.000000
215716.000000
216441.000000
217163.000000
217872.000000
218618.000000
219376.000000
220129.000000
220861.000000
221605.000000
222357.000000
223088.000000
223826.000000
224564.000000
225300.000000
226024.000000
226759.000000
227517.000000
228266.000000
229006.000000
229760.000000
230547.000000
231340.000000
232125.000000
232877.000000
233612.000000
234364.000000
235113.000000
235840.000000
236589.000000
237351.000000
238113.000000
238850.000000
239595.000000
240352.000000
241079.000000
241817.000000
242568.000000
243335.000000
244089.000000
244849.000000
245612.000000
246363.000000
247127.000000
247895.000000
248641.000000
249384.000000
250151.000000
250921.000000
251673.000000
252459.000000
253277.000000
254053.000000
254857.000000
255662.000000
256436.000000
257210.000000
257976.000000
258752.000000
259505.000000
260286.000000
261074.000000
261838.000000
262607.000000
263390.000000
264164.000000
264902.000000
265620.000000
266360.000000
267128.000000
267920.000000
268692.000000
269447.000000
270216.000000
271020.000000
271838.000000
272607.000000
273390.000000
274182.000000
274959.000000
275702.000000
276468.000000
277235.000000
277991.000000
278733.000000
279464.000000
280208.000000
280970.000000
281752.000000
282501.000000
283243.000000
284024.000000
284835.000000
285658.000000
286431.000000
287185.000000
287975.000000
288778.000000
289569.000000
290331.000000
291112.000000
291893.000000
292643.000000
293379.000000
294140.000000
294939.000000
295755.000000
296539.000000
297327.000000
298115.000000
298880.000000
299622.000000
300368.000000
301118.000000
301867.000000
302591.000000
303334.000000
304097.000000
304851.000000
305582.000000
306336.000000
307094.000000
307821.000000
308536.000000
309251.000000
310000.000000
310777.000000
311542.000000
312319.000000
313060.000000
313784.000000
314529.000000
315271.000000
316013.000000
316735.000000
317471.000000
318196.000000
318908.000000
319613.000000
320333.000000
321100.000000
321889.000000
322643.000000
323372.000000
324117.000000
324872.000000
325622.000000
326342.000000
327080.000000
327820.000000
328562.000000
329285.000000
330010.000000
330764.000000
331535.000000
332341.000000
333139.000000
333929.000000
334710.000000
335468.000000
336216.000000
336977.000000
337754.000000
338514.000000
339253.000000
340016.000000
340773.000000
341552.000000
342320.000000
343061.000000
343800.000000
344566.000000
345361.000000
346133.000000
346868.000000
347585.000000
348314.000000
349072.000000
349854.000000
350633.000000
351392.000000
352166.000000
352954.000000
353743.000000
354513.000000
355259.000000
356010.000000
356769.000000
357509.000000
358246.000000
359002.000000
359766.000000
360530.000000
361272.000000
362022.000000
362801.000000
363600.000000
364390.000000
365131.000000
365873.000000
366619.000000
367365.000000
368096.000000
368835.000000
369579.000000
370335.000000
371065.000000
371795.000000
372556.000000
373339.000000
374128.000000
374884.000000
375660.000000
376425.000000
377162.000000
377882.000000
378626.000000
379404.000000
380190.000000
380934.000000
381683.000000
382433.000000
383195.000000
383919.000000
384630.000000
385367.000000
386120.000000
386900.000000
387646.000000
388405.000000
389166.000000
389893.000000
390618.000000
391371.000000
392130.000000
392897.000000
393642.000000
394357.000000
395081.000000
395801.000000
396520.000000
397238.000000
397988.000000
398785.000000
399620.000000
400435.000000
401266.000000
402112.000000
402905.000000
403708.000000
404503.000000
405307.000000
406060.000000
406832.000000
407621.000000
408395.000000
409150.000000
409903.000000
410667.000000
411469.000000
412256.000000
413010.000000
413704.000000
414384.000000
415075.000000
415782.000000
416501.000000
417238.000000
417979.000000
418698.000000
419447.000000
420235.000000
421063.000000
421874.000000
422653.000000
423457.000000
424265.000000
425067.000000
425836.000000
426618.000000
427427.000000
428240.000000
429016.000000
429787.000000
430569.000000
431338.000000
432084.000000
432808.000000
433543.000000
434328.000000
435165.000000
436001.000000
436797.000000
437606.000000
438418.000000
439225.000000
439988.000000
440751.000000
441542.000000
442330.000000
443110.000000
443855.000000
444594.000000
445359.000000
446141.000000
446942.000000
447704.000000
448461.000000
449255.000000
450059.000000
450856.000000
451619.000000
452389.000000
453168.000000
453964.000000
454723.000000
455487.000000
456263.000000
457062.000000
457842.000000
458605.000000
459385.000000
460167.000000
460967.000000
461733.000000
462480.000000
463245.000000
464025.000000
464818.000000
465573.000000
466334.000000
467112.000000
467891.000000
468669.000000
469401.000000
470155.000000
470950.000000
471730.000000
472516.000000
473383.000000
474285.000000
475170.000000
476034.000000
476938.000000
477850.000000
478699.000000
479531.000000
480369.000000
481201.000000
482004.000000
482821.000000
483639.000000
484458.000000
485248.000000
486038.000000
486844.000000
487667.000000
488451.000000
489212.000000
489982.000000
490757.000000
491538.000000
492284.000000
493038.000000
493834.000000
494666.000000
495492.000000
496282.000000
497093.000000
497900.000000
498701.000000
499478.000000
500235.000000
500991.000000
501773.000000
502574.000000
503342.000000
504087.000000
504776.000000
505475.000000
506195.000000
506937.000000
507728.000000
508568.000000
509402.000000
510187.000000
510948.000000
511709.000000
512492.000000
513309.000000
514118.000000
514907.000000
515671.000000
516454.000000
517284.000000
518136.000000
518961.000000
519752.000000
520553.000000
521359.000000
522167.000000
522938.000000
523691.000000
524463.000000
525249.000000
526057.000000
526844.000000
527637.000000
528468.000000
529342.000000
530211.000000
531036.000000
531864.000000
532675.000000
533469.000000
534223.000000
534995.000000
535794.000000
536615.000000
537416.000000
538230.000000
539058.000000
539873.000000
540660.000000
541455.000000
542254.000000
543049.000000
543810.000000
544592.000000
545399.000000
546192.000000
547015.000000
547844.000000
548676.000000
549486.000000
550303.000000
551113.000000
551897.000000
552675.000000
553477.000000
554275.000000
555074.000000
555836.000000
556586.000000
557360.000000
558157.000000
558965.000000
559758.000000
560528.000000
561342.000000
562200.000000
563058.000000
563873.000000
564702.000000
565519.000000
566352.000000
567147.000000
567946.000000
568768.000000
569576.000000
570392.000000
571214.000000
572052.000000
572857.000000
573676.000000
574489.000000
575261.000000
576055.000000
576888.000000
577756.000000
578575.000000
579397.000000
580211.000000
581046.000000
581836.000000
582649.000000
583461.000000
584279.000000
585041.000000
585789.000000
586537.000000
587301.000000
588079.000000
588844.000000
589646.000000
590462.000000
591261.000000
592023.000000
592788.000000
593557.000000
594305.000000
595046.000000
595807.000000
596576.000000
597358.000000
598104.000000
598833.000000
599562.000000
600320.000000
601153.000000
601999.000000
602821.000000
603614.000000
604372.000000
605100.000000
605826.000000
606571.000000
607382.000000
608214.000000
609046.000000
609862.000000
610649.000000
611413.000000
612162.000000
612941.000000
613728.000000
614511.000000
615271.000000
616021.000000
616794.000000
617568.000000
618342.000000
619094.000000
619865.000000
620650.000000
621424.000000
622182.000000
622968.000000
623788.000000
624603.000000
625392.000000
626141.000000
626893.000000
627642.000000
628380.000000
629107.000000
629864.000000
630678.000000
631533.000000
632372.000000
633167.000000
633976.000000
634784.000000
635605.000000
636393.000000
637143.000000
637884.000000
638647.000000
639426.000000
640250.000000
641043.000000
641808.000000
642597.000000
643399.000000
644203.000000
644971.000000
645755.000000
646536.000000
647323.000000
648080.000000
648825.000000
649594.000000
650398.000000
651230.000000
652033.000000
652839.000000
653628.000000
654399.000000
655148.000000
655910.000000
656676.000000
657440.000000
658202.000000
658981.000000
659774.000000
660544.000000
661304.000000
662084.000000
662880.000000
663677.000000
664447.000000
665206.000000
665972.000000
666767.000000
667555.000000
668317.000000
669071.000000
669846.000000
670633.000000
671412.000000
672177.000000
672947.000000
673726.000000
674479.000000
675247.000000
676019.000000
676789.000000
677564.000000
678366.000000
679192.000000
680005.000000
680812.000000
681626.000000
682428.000000
683197.000000
683973.000000
684751.000000
685537.000000
686302.000000
687054.000000
687821.000000
688611.000000
689397.000000
690190.000000
690943.000000
691704.000000
692470.000000
693239.000000
693989.000000
694753.000000
695525.000000
696312.000000
697061.000000
697811.000000
698574.000000
699355.000000
700135.000000
700921.000000
701743.000000
702571.000000
703387.000000
704186.000000
704976.000000
705799.000000
706577.000000
707329.000000
708113.000000
708921.000000
709738.000000
710527.000000
711326.000000
712137.000000
712952.000000
713739.000000
714541.000000
715354.000000
716132.000000
716893.000000
717661.000000
718453.000000
719257.000000
720049.000000
720816.000000
721579.000000
722365.000000
723165.000000
723979.000000
724770.000000
725530.000000
726294.000000
727052.000000
727826.000000
728586.000000
729347.000000
730138.000000
730972.000000
731810.000000
732612.000000
733377.000000
734159.000000
734950.000000
735753.000000
736529.000000
737292.000000
738089.000000
738890.000000
739690.000000
740462.000000
741255.000000
742058.000000
742860.000000
743651.000000
744437.000000
745226.000000
745996.000000
746782.000000
747584.000000
748388.000000
749161.000000
749944.000000
750749.000000
751558.000000
752344.000000
753135.000000
753928.000000
754694.000000
755450.000000
756233.000000
757040.000000
757859.000000
758620.000000
759398.000000
760173.000000
760966.000000
761726.000000
762523.000000
763337.000000
764104.000000
764862.000000
765638.000000
766418.000000
767186.000000
767975.000000
768792.000000
769607.000000
770395.000000
771185.000000
771972.000000
772720.000000
773488.000000
774264.000000
775059.000000
775828.000000
776628.000000
777440.000000
778222.000000
778980.000000
779725.000000
780501.000000
781282.000000
782062.000000
782811.000000
783541.000000
784300.000000
785073.000000
785847.000000
786615.000000
787392.000000
788172.000000
788947.000000
789690.000000
790442.000000
791205.000000
791947.000000
792700.000000
793462.000000
794222.000000
794980.000000
795761.000000
796539.000000
797285.000000
798052.000000
798865.000000
799676.000000
800470.000000
801287.000000
802098.000000
802882.000000
803629.000000
804371.000000
805140.000000
805973.000000
806807.000000
807631.000000
808423.000000
809250.000000
810108.000000
810938.000000
811725.000000
812524.000000
813325.000000
814142.000000
814914.000000
815683.000000
816472.000000
817288.000000
818083.000000
818852.000000
819642.000000
820450.000000
821264.000000
822039.000000
822811.000000
823593.000000
824386.000000
825154.000000
825908.000000
826687.000000
827490.000000
828282.000000
829064.000000
829850.000000
830621.000000
831359.000000
832113.000000
832874.000000
833617.000000
834388.000000
835170.000000
835976.000000
836765.000000
837591.000000
838420.000000
839214.000000
840020.000000
840814.000000
841580.000000
842355.000000
843138.000000
843927.000000
844673.000000
845428.000000
846220.000000
847049.000000
847872.000000
848713.000000
849566.000000
850394.000000
851218.000000
852054.000000
852894.000000
853696.000000
854513.000000
855337.000000
856104.000000
856829.000000
857558.000000
858348.000000
859183.000000
860010.000000
860848.000000
861679.000000
862473.000000
863254.000000
864046.000000
864862.000000
865689.000000
866494.000000
867266.000000
868042.000000
868844.000000
869655.000000
870452.000000
871232.000000
871983.000000
872755.000000
873549.000000
874352.000000
875128.000000
875896.000000
876671.000000
877458.000000
878256.000000
879031.000000
879816.000000
880635.000000
881477.000000
882305.000000
883103.000000
883916.000000
884730.000000
885545.000000
886325.000000
887118.000000
887916.000000
888712.000000
889534.000000
890389.000000
891276.000000
892166.000000
893007.000000
893879.000000
894761.000000
895600.000000
896421.000000
897243.000000
898069.000000
898862.000000
899692.000000
900526.000000
901348.000000
902159.000000
902966.000000
903750.000000
904532.000000
905293.000000
906045.000000
906743.000000
907420.000000
908101.000000
908819.000000
909578.000000
910368.000000
911128.000000
911920.000000
912744.000000
913567.000000
914359.000000
915186.000000
916039.000000
916886.000000
917672.000000
918486.000000
919315.000000
920152.000000
920996.000000
921889.000000
922802.000000
923668.000000
924551.000000
925422.000000
926238.000000
927015.000000
927808.000000
928617.000000
929441.000000
930247.000000
931055.000000
931876.000000
932700.000000
933490.000000
934297.000000
935109.000000
935929.000000
936742.000000
937575.000000
938426.000000
939228.000000
940055.000000
940884.000000
941687.000000
942474.000000
943267.000000
944074.000000
944876.000000
945660.000000
946478.000000
947312.000000
948133.000000
948943.000000
949771.000000
950593.000000
951382.000000
952197.000000
953020.000000
953829.000000
954593.000000
955377.000000
956173.000000
956976.000000
957770.000000
958582.000000
959395.000000
960172.000000
960970.000000
961782.000000
962574.000000
963385.000000
964207.000000
965007.000000
965785.000000
966574.000000
967373.000000
968181.000000
968970.000000
969758.000000
970582.000000
971417.000000
972215.000000
973019.000000
973828.000000
974642.000000
975415.000000
976203.000000
977027.000000
977859.000000
978651.000000
979473.000000
980303.000000
981099.000000
981881.000000
982685.000000
983495.000000
984300.000000
985085.000000
985919.000000
986771.000000
987594.000000
988376.000000
989133.000000
989920.000000
990758.000000
991611.000000
992457.000000
993260.000000
994083.000000
994905.000000
995691.000000
996477.000000
997296.000000
998136.000000
998956.000000
999772.000000
1000618.000000
1001486.000000
1002343.000000
1003156.000000
1003976.000000
1004790.000000
1005600.000000
1006379.000000
1007181.000000
1007998.000000
1008796.000000
1009603.000000
1010408.000000
1011224.000000
1012003.000000
1012791.000000
1013587.000000
1014386.000000
1015164.000000
1015952.000000
1016749.000000
1017504.000000
1018294.000000
1019101.000000
1019920.000000
1020707.000000
1021523.000000
1022348.000000
1023148.000000
1023904.000000
1024682.000000
1025495.000000
1026346.000000
1027183.000000
1028016.000000
1028869.000000
1029720.000000
1030519.000000
1031324.000000
1032137.000000
1032964.000000
1033766.000000
1034586.000000
1035422.000000
1036238.000000
1037069.000000
1037910.000000
1038762.000000
1039590.000000
1040430.000000
1041282.000000
1042087.000000
1042869.000000
1043603.000000
1044307.000000
