ECG (ms)
251.000000
1188.000000
2205.000000
3210.000000
4240.000000
5135.000000
5981.000000
6897.000000
7958.000000
9056.000000
9979.000000
10914.000000
11994.000000
13022.000000
13916.000000
14876.000000
15849.000000
16817.000000
17724.000000
18619.000000
19570.000000
20563.000000
21523.000000
22443.000000
23414.000000
24260.000000
25074.000000
25983.000000
26869.000000
27715.000000
28691.000000
29769.000000
30738.000000
31701.000000
32733.000000
33698.000000
34577.000000
35493.000000
36487.000000
37470.000000
38383.000000
39370.000000
40456.000000
41496.000000
42399.000000
43343.000000
44308.000000
45195.000000
46052.000000
47019.000000
48176.000000
49153.000000
50088.000000
51104.000000
52136.000000
53062.000000
53905.000000
54823.000000
55808.000000
56741.000000
57629.000000
58551.000000
59510.000000
60344.000000
61126.000000
61909.000000
62728.000000
63676.000000
64596.000000
65509.000000
66322.000000
67163.000000
68068.000000
68933.000000
69746.000000
70563.000000
71389.000000
72173.000000
72997.000000
73868.000000
74745.000000
75622.000000
76439.000000
77295.000000
78200.000000
79093.000000
79922.000000
80722.000000
81562.000000
82401.000000
83242.000000
84046.000000
84883.000000
85774.000000
86730.000000
87686.000000
88573.000000
89409.000000
90294.000000
91228.000000
92163.000000
93063.000000
93914.000000
94763.000000
95698.000000
96670.000000
97671.000000
98602.000000
99455.000000
100369.000000
101361.000000
102352.000000
103262.000000
104127.000000
105059.000000
106105.000000
107144.000000
108089.000000
109065.000000
110113.000000
111113.000000
112024.000000
112986.000000
114061.000000
115089.000000
116015.000000
116942.000000
117993.000000
119027.000000
119957.000000
120905.000000
121953.000000
122959.000000
123944.000000
124864.000000
125862.000000
126866.000000
127842.000000
128775.000000
129693.000000
130658.000000
131651.000000
132613.000000
133537.000000
134463.000000
135432.000000
136412.000000
137400.000000
138349.000000
139275.000000
140256.000000
141254.000000
142219.000000
143161.000000
144145.000000
145154.000000
146113.000000
147023.000000
147956.000000
148914.000000
149889.000000
150816.000000
151676.000000
152530.000000
153370.000000
154333.000000
155285.000000
156208.000000
157208.000000
158230.000000
159214.000000
160136.000000
161100.000000
162070.000000
163023.000000
163948.000000
164907.000000
165912.000000
166898.000000
167854.000000
168786.000000
169811.000000
170842.000000
171844.000000
172788.000000
173780.000000
174787.000000
175759.000000
176700.000000
177648.000000
178654.000000
179661.000000
180642.000000
181599.000000
182566.000000
183593.000000
184596.000000
185538.000000
186529.000000
187538.000000
188516.000000
189442.000000
190413.000000
191401.000000
192377.000000
193325.000000
194346.000000
195372.000000
196367.000000
197321.000000
198332.000000
199320.000000
200298.000000
201240.000000
202258.000000
203319.000000
204308.000000
205236.000000
206239.000000
207279.000000
208331.000000
209347.000000
210345.000000
211421.000000
212474.000000
213514.000000
214524.000000
215483.000000
216444.000000
217461.000000
218521.000000
219588.000000
220614.000000
221621.000000
222679.000000
223720.000000
224764.000000
225745.000000
226722.000000
227744.000000
228746.000000
229712.000000
230690.000000
231727.000000
232750.000000
233732.000000
234716.000000
235734.000000
236704.000000
237626.000000
238561.000000
239538.000000
240475.000000
241367.000000
242296.000000
243274.000000
244249.000000
245179.000000
246115.000000
247100.000000
247976.000000
248787.000000
249561.000000
250327.000000
251120.000000
251879.000000
252636.000000
253575.000000
254513.000000
255400.000000
256282.000000
257180.000000
258088.000000
258972.000000
259797.000000
260663.000000
261571.000000
262466.000000
263330.000000
264253.000000
265360.000000
266465.000000
267413.000000
268416.000000
269499.000000
270523.000000
271448.000000
272526.000000
273595.000000
274591.000000
275538.000000
276572.000000
277615.000000
278654.000000
279649.000000
280601.000000
281616.000000
282640.000000
283660.000000
284640.000000
285596.000000
286600.000000
287627.000000
288664.000000
289654.000000
290685.000000
291718.000000
292700.000000
293667.000000
294687.000000
295731.000000
296750.000000
297716.000000
298769.000000
299831.000000
300839.000000
301789.000000
302801.000000
303823.000000
304827.000000
305786.000000
306818.000000
307863.000000
308914.000000
309913.000000
310864.000000
311867.000000
312909.000000
313939.000000
314905.000000
315929.000000
316960.000000
317959.000000
318934.000000
319939.000000
320956.000000
321936.000000
322886.000000
323872.000000
324888.000000
325856.000000
326784.000000
327765.000000
328758.000000
329771.000000
330704.000000
331605.000000
332554.000000
333559.000000
334558.000000
335496.000000
336459.000000
337468.000000
338472.000000
339429.000000
340374.000000
341378.000000
342380.000000
343297.000000
344178.000000
344939.000000
345692.000000
346759.000000
347804.000000
348781.000000
349788.000000
350791.000000
351761.000000
352673.000000
353550.000000
354564.000000
355480.000000
356314.000000
357246.000000
358251.000000
359202.000000
360120.000000
361249.000000
362394.000000
363444.000000
364397.000000
365371.000000
366455.000000
367472.000000
368424.000000
369498.000000
370586.000000
371677.000000
372622.000000
373576.000000
374577.000000
375574.000000
376483.000000
377484.000000
378520.000000
379514.000000
380424.000000
381525.000000
382575.000000
383562.000000
384452.000000
385416.000000
386454.000000
387513.000000
388449.000000
389458.000000
390583.000000
391645.000000
392582.000000
393497.000000
394494.000000
395598.000000
396582.000000
397595.000000
398780.000000
399909.000000
400970.000000
402030.000000
403131.000000
404186.000000
405162.000000
406228.000000
407389.000000
408492.000000
409523.000000
410624.000000
411693.000000
412717.000000
413758.000000
414828.000000
415901.000000
416934.000000
418006.000000
419063.000000
420103.000000
421117.000000
422065.000000
423062.000000
424066.000000
425078.000000
426064.000000
427005.000000
427987.000000
429017.000000
430064.000000
431077.000000
432073.000000
433005.000000
433917.000000
434888.000000
435862.000000
436869.000000
437856.000000
438801.000000
439809.000000
440825.000000
441842.000000
442812.000000
443803.000000
444856.000000
445870.000000
446825.000000
447831.000000
448945.000000
449976.000000
450919.000000
451961.000000
453056.000000
454049.000000
455000.000000
456041.000000
457048.000000
458021.000000
459031.000000
460054.000000
461058.000000
462010.000000
463034.000000
464077.000000
465060.000000
466060.000000
467074.000000
468079.000000
469056.000000
470046.000000
471049.000000
472031.000000
472955.000000
473952.000000
475011.000000
476027.000000
476961.000000
477965.000000
479008.000000
479996.000000
480925.000000
481878.000000
482865.000000
483874.000000
484783.000000
485737.000000
486800.000000
487902.000000
488899.000000
489829.000000
490831.000000
491887.000000
492869.000000
493776.000000
494784.000000
495910.000000
496948.000000
497903.000000
498887.000000
499931.000000
501041.000000
502119.000000
503069.000000
504138.000000
505054.000000
505890.000000
506849.000000
507775.000000
508643.000000
509602.000000
510703.000000
511797.000000
512759.000000
513642.000000
514571.000000
515574.000000
516514.000000
517368.000000
518183.000000
519074.000000
520058.000000
520983.000000
521846.000000
522809.000000
523747.000000
524589.000000
525403.000000
526196.000000
526940.000000
527680.000000
528391.000000
529087.000000
529850.000000
530713.000000
531563.000000
532420.000000
533312.000000
534146.000000
534969.000000
535823.000000
536679.000000
537545.000000
538391.000000
539208.000000
540026.000000
540969.000000
542097.000000
543263.000000
544382.000000
545397.000000
546577.000000
547699.000000
548746.000000
549740.000000
550828.000000
551925.000000
552982.000000
553937.000000
554949.000000
556046.000000
557114.000000
558092.000000
559134.000000
560186.000000
561162.000000
562120.000000
563122.000000
564131.000000
565074.000000
566030.000000
567046.000000
568089.000000
569099.000000
570073.000000
571073.000000
572083.000000
573122.000000
574137.000000
575080.000000
576072.000000
577105.000000
578111.000000
579084.000000
580054.000000
581082.000000
582085.000000
582970.000000
583886.000000
584830.000000
585761.000000
586736.000000
587751.000000
588761.000000
589761.000000
590718.000000
591670.000000
592707.000000
593811.000000
594865.000000
595847.000000
596863.000000
597902.000000
598913.000000
599883.000000
600796.000000
601732.000000
602711.000000
603712.000000
604657.000000
605691.000000
606734.000000
607768.000000
608767.000000
609781.000000
610806.000000
611747.000000
612715.000000
613711.000000
614624.000000
615487.000000
616478.000000
617487.000000
618421.000000
619386.000000
620384.000000
621354.000000
622228.000000
623149.000000
624112.000000
625070.000000
625952.000000
626885.000000
627893.000000
628918.000000
629879.000000
630864.000000
631885.000000
632853.000000
633760.000000
634764.000000
635779.000000
636713.000000
637674.000000
638796.000000
639852.000000
640803.000000
641744.000000
642646.000000
643475.000000
644365.000000
645347.000000
646285.000000
647310.000000
648370.000000
649439.000000
650368.000000
651264.000000
652280.000000
653416.000000
654480.000000
655480.000000
656576.000000
657756.000000
658890.000000
659931.000000
660888.000000
661997.000000
663069.000000
664139.000000
665143.000000
666171.000000
667243.000000
668317.000000
669305.000000
670279.000000
671288.000000
672348.000000
673424.000000
674500.000000
675511.000000
676480.000000
677501.000000
678554.000000
679611.000000
680617.000000
681594.000000
682617.000000
683650.000000
684673.000000
685665.000000
686748.000000
687881.000000
688994.000000
689994.000000
691051.000000
692092.000000
693132.000000
694109.000000
695144.000000
696175.000000
697168.000000
698129.000000
699162.000000
700185.000000
701171.000000
702166.000000
703210.000000
704202.000000
705167.000000
706225.000000
707308.000000
708315.000000
709284.000000
710326.000000
711374.000000
712347.000000
713297.000000
714334.000000
715403.000000
716393.000000
717383.000000
718411.000000
719433.000000
720408.000000
721366.000000
722366.000000
723373.000000
724346.000000
725314.000000
726266.000000
727274.000000
728315.000000
729334.000000
730318.000000
731354.000000
732399.000000
733416.000000
734401.000000
735370.000000
736380.000000
737405.000000
738428.000000
739412.000000
740373.000000
741389.000000
742414.000000
743304.000000
744209.000000
745179.000000
746111.000000
747047.000000
748060.000000
749062.000000
750032.000000
750979.000000
751987.000000
753031.000000
754004.000000
754952.000000
756023.000000
757097.000000
758110.000000
759148.000000
760233.000000
761305.000000
762303.000000
763344.000000
764435.000000
765487.000000
766498.000000
767551.000000
768589.000000
769598.000000
770591.000000
771658.000000
772804.000000
773856.000000
774877.000000
775948.000000
777032.000000
778105.000000
779201.000000
780254.000000
781256.000000
782297.000000
783380.000000
784457.000000
785496.000000
786479.000000
787499.000000
788557.000000
789623.000000
790611.000000
791615.000000
792635.000000
793631.000000
794576.000000
795553.000000
796573.000000
797573.000000
798523.000000
799521.000000
800529.000000
801510.000000
802477.000000
803501.000000
804491.000000
805417.000000
806372.000000
807349.000000
808282.000000
809152.000000
810086.000000
811093.000000
811989.000000
812875.000000
813809.000000
814786.000000
815740.000000
816635.000000
817620.000000
818606.000000
819529.000000
820420.000000
821352.000000
822296.000000
823244.000000
824137.000000
825132.000000
826148.000000
827128.000000
828018.000000
828915.000000
829844.000000
830773.000000
831646.000000
832524.000000
833475.000000
834511.000000
835467.000000
836362.000000
837334.000000
838287.000000
839184.000000
840028.000000
840945.000000
841864.000000
842778.000000
843640.000000
844493.000000
845432.000000
846370.000000
847270.000000
848128.000000
849019.000000
849957.000000
850894.000000
851820.000000
852679.000000
853513.000000
854457.000000
855424.000000
856351.000000
857213.000000
858155.000000
859153.000000
860162.000000
861090.000000
861972.000000
862949.000000
864040.000000
865098.000000
866061.000000
867082.000000
868124.000000
869132.000000
870042.000000
871053.000000
872025.000000
872860.000000
873713.000000
874622.000000
875474.000000
876453.000000
877616.000000
878739.000000
879711.000000
880703.000000
881712.000000
882712.000000
883637.000000
884568.000000
885634.000000
886791.000000
887810.000000
888859.000000
889963.000000
890999.000000
891943.000000
892940.000000
893975.000000
895030.000000
896030.000000
897032.000000
898067.000000
899106.000000
900143.000000
901137.000000
902074.000000
903092.000000
904157.000000
905240.000000
906249.000000
907342.000000
908500.000000
909625.000000
910657.000000
911730.000000
912817.000000
913878.000000
914878.000000
915951.000000
917087.000000
918194.000000
919207.000000
920258.000000
921349.000000
922422.000000
923433.000000
924448.000000
925497.000000
926537.000000
927542.000000
928567.000000
929561.000000
930457.000000
931334.000000
932251.000000
933169.000000
934130.000000
935136.000000
936134.000000
937033.000000
937932.000000
938922.000000
939866.000000
940730.000000
941549.000000
942408.000000
943349.000000
944331.000000
945241.000000
946105.000000
947062.000000
948091.000000
949154.000000
950093.000000
951073.000000
952133.000000
953153.000000
954074.000000
955040.000000
956157.000000
957304.000000
958365.000000
959447.000000
960516.000000
961593.000000
962584.000000
963627.000000
964821.000000
965886.000000
966847.000000
967799.000000
968926.000000
970082.000000
971115.000000
972248.000000
973426.000000
974480.000000
975479.000000
976502.000000
977557.000000
978524.000000
979470.000000
980523.000000
981561.000000
982542.000000
983561.000000
984636.000000
985689.000000
986675.000000
987663.000000
988696.000000
989705.000000
990658.000000
991606.000000
992612.000000
993657.000000
994631.000000
995599.000000
996623.000000
997657.000000
998633.000000
999603.000000
1000615.000000
1001657.000000
1002699.000000
1003706.000000
1004715.000000
1005791.000000
1006869.000000
1007931.000000
1008957.000000
1009963.000000
1011037.000000
1012072.000000
1012984.000000
1013918.000000
1014965.000000
1016015.000000
1017031.000000
1017996.000000
1019058.000000
1020099.000000
1021087.000000
1022042.000000
1023017.000000
1024050.000000
1025048.000000
1025993.000000
1027011.000000
1028066.000000
1029080.000000
1030081.000000
1031042.000000
1032048.000000
1033060.000000
1033941.000000
1034856.000000
1035821.000000
1036743.000000
1037695.000000
1038693.000000
1039724.000000
1040734.000000
1041676.000000
1042663.000000
1043667.000000
1044647.000000
1045568.000000
1046533.000000
1047569.000000
1048590.000000
1049560.000000
1050570.000000
1051627.000000
1052724.000000
1053755.000000
1054735.000000
1055735.000000
1056751.000000
1057787.000000
1058779.000000
1059803.000000
1060854.000000
1061858.000000
1062808.000000
1063787.000000
1064850.000000
1065895.000000
1066865.000000
1067806.000000
1068806.000000
1069843.000000
1070832.000000
1071784.000000
1072776.000000
1073781.000000
1074763.000000
1075687.000000
1076642.000000
1077634.000000
1078687.000000
1079686.000000
1080625.000000
1081563.000000
1082533.000000
1083515.000000
1084417.000000
1085310.000000
1086224.000000
1087080.000000
1087944.000000
1088881.000000
1089815.000000
1090742.000000
1091736.000000
1092754.000000
1093732.000000
1094672.000000
1095574.000000
1096530.000000
1097494.000000
1098433.000000
1099367.000000
1100293.000000
1101164.000000
1102005.000000
1102912.000000
1103909.000000
1104864.000000
1105746.000000
1106677.000000
1107693.000000
1108745.000000
1109659.000000
1110572.000000
1111530.000000
1112453.000000
1113338.000000
1114241.000000
1115217.000000
1116252.000000
1117187.000000
1118190.000000
1119309.000000
1120341.000000
1121245.000000
1122175.000000
1123163.000000
1124178.000000
1125105.000000
1126029.000000
1127037.000000
1128093.000000
1129041.000000
1130013.000000
1131098.000000
1132143.000000
1133089.000000
1134071.000000
1135097.000000
1136102.000000
1137062.000000
1137925.000000
1138883.000000
1139893.000000
1141037.000000
1142080.000000
1143159.000000
1144267.000000
1145313.000000
1146234.000000
1147207.000000
1148240.000000
1149173.000000
1150006.000000
1150810.000000
1151587.000000
1152392.000000
1153309.000000
1154159.000000
1155042.000000
1156019.000000
1157022.000000
1157944.000000
1158816.000000
1159724.000000
1160709.000000
1161762.000000
1162800.000000
1163753.000000
1164623.000000
1165618.000000
1166790.000000
1167928.000000
1169000.000000
1170023.000000
1171267.000000
1172493.000000
1173650.000000
1174656.000000
1175739.000000
1176950.000000
1178128.000000
1179260.000000
1180321.000000
1181323.000000
1182357.000000
1183398.000000
1184383.000000
1185373.000000
1186422.000000
1187404.000000
1188347.000000
1189361.000000
1190428.000000
1191412.000000
1192342.000000
1193317.000000
1194316.000000
1195267.000000
1196178.000000
1197107.000000
1198006.000000
1198855.000000
1199667.000000
1200504.000000
1201468.000000
1202559.000000
1203638.000000
1204614.000000
1205585.000000
1206589.000000
1207649.000000
1208627.000000
1209587.000000
1210667.000000
1211777.000000
