ECG (ms)
374.000000
1400.000000
2425.000000
3393.000000
4391.000000
5385.000000
6397.000000
7389.000000
8330.000000
9316.000000
10307.000000
11314.000000
12281.000000
13273.000000
14274.000000
15265.000000
16206.000000
17122.000000
17993.000000
18769.000000
19559.000000
20284.000000
21010.000000
21853.000000
22811.000000
23773.000000
24697.000000
25607.000000
26533.000000
27453.000000
28364.000000
29255.000000
30119.000000
30950.000000
31782.000000
33011.000000
33994.000000
34914.000000
35840.000000
36792.000000
37677.000000
38569.000000
39503.000000
40497.000000
41448.000000
42319.000000
43179.000000
44072.000000
45131.000000
46069.000000
46977.000000
47879.000000
49007.000000
49946.000000
50866.000000
51794.000000
52785.000000
53709.000000
54619.000000
55534.000000
56637.000000
57600.000000
58586.000000
59580.000000
60632.000000
61608.000000
62581.000000
63413.000000
64155.000000
64937.000000
66097.000000
67199.000000
68323.000000
69364.000000
70404.000000
71464.000000
72452.000000
73490.000000
74544.000000
75626.000000
76645.000000
77726.000000
78818.000000
79881.000000
80932.000000
82032.000000
83138.000000
84169.000000
85196.000000
86255.000000
87320.000000
88326.000000
89364.000000
90422.000000
91483.000000
92477.000000
93514.000000
94567.000000
95610.000000
96594.000000
97627.000000
98676.000000
99756.000000
100731.000000
101720.000000
102734.000000
103786.000000
104847.000000
105822.000000
106839.000000
107854.000000
108882.000000
109867.000000
110843.000000
111851.000000
112891.000000
113908.000000
114870.000000
115866.000000
116887.000000
117923.000000
118901.000000
119923.000000
120968.000000
122024.000000
123008.000000
124022.000000
125048.000000
126081.000000
127055.000000
128075.000000
129145.000000
130196.000000
131186.000000
132177.000000
133183.000000
134222.000000
135201.000000
136197.000000
137219.000000
138259.000000
139282.000000
140254.000000
141280.000000
142303.000000
143340.000000
144309.000000
145330.000000
146355.000000
147354.000000
148327.000000
149334.000000
150364.000000
151389.000000
152377.000000
153420.000000
154481.000000
155474.000000
156479.000000
157498.000000
158561.000000
159592.000000
160567.000000
161593.000000
162650.000000
163713.000000
164705.000000
165760.000000
166838.000000
167905.000000
168916.000000
169965.000000
171021.000000
172051.000000
173054.000000
174096.000000
175167.000000
176174.000000
177198.000000
178255.000000
179359.000000
180388.000000
181447.000000
182542.000000
183601.000000
184626.000000
185693.000000
186798.000000
187856.000000
188862.000000
189922.000000
190991.000000
192059.000000
193058.000000
194113.000000
195220.000000
196281.000000
197298.000000
198372.000000
199454.000000
200488.000000
201497.000000
202528.000000
203562.000000
204590.000000
205593.000000
206639.000000
207698.000000
208688.000000
209546.000000
210315.000000
211142.000000
212389.000000
213471.000000
214444.000000
215413.000000
216397.000000
217339.000000
218211.000000
219039.000000
219937.000000
221207.000000
222293.000000
223345.000000
224416.000000
225454.000000
226490.000000
227541.000000
228596.000000
229587.000000
230631.000000
231720.000000
232770.000000
233742.000000
234723.000000
235781.000000
236828.000000
237830.000000
238808.000000
239920.000000
241034.000000
242140.000000
243245.000000
244351.000000
245358.000000
246415.000000
247515.000000
248689.000000
249771.000000
250857.000000
252015.000000
253173.000000
254241.000000
255297.000000
256350.000000
257325.000000
258281.000000
259305.000000
260429.000000
261500.000000
262591.000000
263713.000000
264801.000000
265800.000000
266814.000000
267911.000000
268947.000000
269894.000000
270763.000000
271688.000000
272935.000000
274029.000000
275029.000000
276040.000000
277095.000000
278120.000000
279110.000000
280156.000000
281230.000000
282307.000000
283304.000000
284321.000000
285400.000000
286442.000000
287424.000000
288291.000000
289099.000000
290389.000000
291557.000000
292675.000000
293758.000000
294823.000000
295865.000000
296915.000000
297959.000000
299035.000000
300091.000000
301130.000000
302156.000000
303168.000000
304121.000000
305065.000000
306159.000000
307257.000000
308287.000000
309243.000000
310210.000000
311212.000000
312213.000000
313160.000000
314168.000000
315175.000000
316206.000000
317178.000000
318050.000000
318839.000000
319555.000000
320261.000000
321027.000000
322247.000000
323296.000000
324327.000000
325360.000000
326333.000000
327268.000000
328215.000000
329060.000000
329891.000000
330740.000000
331900.000000
332924.000000
333880.000000
334869.000000
335889.000000
336877.000000
337802.000000
338702.000000
339636.000000
340657.000000
341565.000000
342441.000000
343322.000000
344312.000000
345238.000000
346126.000000
346982.000000
347933.000000
348894.000000
349770.000000
350653.000000
351598.000000
352550.000000
353427.000000
354301.000000
355173.000000
356106.000000
356958.000000
357789.000000
358662.000000
359757.000000
360680.000000
361581.000000
362436.000000
363343.000000
364232.000000
365078.000000
365932.000000
366909.000000
367859.000000
368744.000000
369604.000000
370476.000000
371420.000000
372268.000000
373090.000000
373928.000000
374938.000000
375885.000000
376748.000000
377538.000000
378385.000000
379309.000000
380239.000000
381087.000000
381929.000000
382786.000000
383720.000000
384664.000000
385597.000000
386481.000000
387316.000000
388169.000000
389301.000000
390286.000000
391227.000000
392191.000000
393239.000000
394229.000000
395176.000000
396139.000000
397150.000000
398141.000000
399060.000000
399960.000000
400906.000000
402031.000000
403017.000000
404026.000000
405052.000000
406096.000000
407096.000000
408070.000000
409070.000000
410110.000000
411118.000000
412064.000000
413021.000000
414034.000000
415001.000000
415916.000000
416833.000000
417795.000000
418706.000000
419639.000000
420615.000000
421598.000000
422502.000000
423419.000000
424479.000000
425535.000000
426485.000000
427389.000000
428430.000000
429487.000000
430440.000000
431396.000000
432409.000000
433431.000000
434360.000000
435288.000000
436327.000000
437365.000000
438294.000000
439177.000000
440080.000000
441221.000000
442215.000000
443188.000000
444184.000000
445197.000000
446137.000000
447005.000000
447796.000000
448527.000000
449296.000000
450538.000000
451639.000000
452655.000000
453686.000000
454717.000000
455684.000000
456598.000000
457538.000000
458564.000000
459519.000000
460396.000000
461289.000000
462340.000000
463391.000000
464377.000000
465360.000000
466360.000000
467349.000000
468236.000000
469103.000000
470156.000000
471217.000000
472168.000000
473028.000000
473985.000000
475163.000000
476302.000000
477347.000000
478415.000000
479490.000000
480529.000000
481539.000000
482577.000000
483656.000000
484699.000000
485764.000000
486885.000000
488035.000000
489049.000000
490030.000000
491051.000000
492073.000000
493049.000000
494044.000000
495126.000000
496186.000000
497156.000000
498124.000000
499164.000000
500195.000000
501165.000000
502178.000000
503246.000000
504322.000000
505320.000000
506317.000000
507377.000000
508409.000000
509380.000000
510352.000000
511449.000000
512528.000000
513536.000000
514549.000000
515667.000000
516691.000000
517691.000000
518765.000000
519850.000000
520868.000000
521926.000000
523048.000000
524081.000000
525116.000000
526200.000000
527244.000000
528246.000000
529297.000000
530435.000000
531504.000000
532476.000000
533462.000000
534552.000000
535615.000000
536605.000000
537612.000000
538704.000000
539783.000000
540770.000000
541750.000000
542839.000000
543937.000000
544953.000000
545975.000000
547047.000000
548062.000000
549027.000000
550022.000000
551062.000000
552066.000000
553055.000000
554100.000000
555154.000000
556069.000000
556851.000000
557572.000000
558310.000000
559520.000000
560594.000000
561590.000000
562601.000000
563641.000000
564657.000000
565579.000000
566490.000000
567508.000000
568551.000000
569510.000000
570375.000000
571163.000000
571893.000000
573146.000000
574302.000000
575406.000000
576449.000000
577479.000000
578489.000000
579493.000000
580518.000000
581538.000000
582587.000000
583633.000000
584665.000000
585747.000000
586776.000000
587730.000000
588673.000000
589610.000000
590405.000000
591162.000000
591985.000000
593259.000000
594390.000000
595379.000000
596361.000000
597376.000000
598334.000000
599260.000000
600176.000000
601256.000000
602319.000000
603296.000000
604260.000000
605301.000000
606358.000000
607392.000000
608357.000000
609334.000000
610342.000000
611402.000000
612435.000000
613474.000000
614209.000000
615460.000000
616436.000000
617382.000000
618391.000000
619402.000000
620330.000000
621227.000000
622160.000000
623110.000000
624029.000000
624950.000000
625910.000000
627062.000000
628055.000000
629077.000000
630123.000000
631158.000000
632131.000000
633127.000000
634164.000000
635191.000000
636140.000000
637073.000000
638107.000000
639152.000000
640139.000000
641129.000000
642128.000000
643121.000000
644069.000000
645040.000000
646059.000000
647035.000000
647979.000000
648916.000000
649829.000000
650745.000000
651594.000000
652475.000000
653507.000000
654590.000000
655532.000000
656452.000000
657388.000000
658309.000000
659194.000000
660045.000000
660861.000000
661798.000000
662753.000000
663656.000000
664669.000000
665833.000000
666832.000000
667795.000000
668768.000000
669724.000000
670578.000000
671415.000000
672237.000000
673207.000000
674147.000000
675040.000000
675931.000000
676992.000000
678045.000000
678979.000000
679864.000000
680727.000000
681628.000000
682499.000000
683326.000000
684140.000000
685014.000000
686040.000000
686988.000000
687875.000000
688749.000000
689663.000000
690574.000000
691413.000000
692196.000000
692953.000000
693678.000000
694441.000000
695395.000000
696301.000000
697194.000000
698082.000000
699087.000000
700056.000000
700940.000000
701841.000000
702925.000000
704044.000000
705073.000000
706103.000000
707165.000000
708222.000000
709221.000000
710214.000000
711245.000000
712272.000000
713267.000000
714301.000000
715385.000000
716377.000000
717287.000000
718216.000000
719364.000000
720538.000000
721569.000000
722550.000000
723565.000000
724644.000000
725747.000000
726825.000000
727879.000000
728989.000000
730093.000000
731116.000000
732127.000000
733178.000000
734304.000000
735365.000000
736341.000000
737324.000000
738414.000000
739462.000000
740450.000000
741445.000000
742362.000000
743198.000000
743954.000000
744769.000000
746033.000000
747096.000000
748158.000000
749248.000000
750330.000000
751330.000000
752295.000000
753246.000000
754236.000000
755162.000000
756045.000000
756965.000000
758154.000000
759158.000000
760156.000000
761157.000000
762149.000000
763120.000000
764120.000000
765192.000000
766243.000000
767252.000000
768292.000000
769367.000000
770407.000000
771393.000000
772388.000000
773428.000000
774475.000000
775464.000000
776466.000000
777528.000000
778526.000000
779552.000000
780634.000000
781639.000000
782626.000000
783656.000000
784741.000000
785721.000000
786710.000000
787727.000000
788778.000000
789759.000000
790763.000000
791815.000000
792830.000000
793805.000000
794780.000000
795787.000000
796781.000000
797728.000000
798689.000000
799687.000000
800745.000000
801694.000000
802711.000000
803769.000000
804848.000000
805808.000000
806741.000000
807725.000000
808712.000000
809662.000000
810580.000000
811492.000000
812502.000000
813540.000000
814486.000000
815439.000000
816384.000000
817375.000000
818261.000000
819129.000000
820007.000000
821190.000000
822205.000000
823148.000000
824088.000000
825062.000000
826044.000000
826947.000000
827818.000000
828769.000000
829875.000000
830872.000000
831897.000000
832933.000000
833890.000000
834782.000000
835660.000000
836592.000000
837597.000000
838532.000000
839454.000000
840398.000000
841433.000000
842417.000000
843328.000000
844143.000000
844884.000000
845842.000000
846916.000000
847893.000000
848904.000000
849897.000000
850887.000000
851808.000000
852688.000000
853539.000000
854425.000000
855305.000000
856206.000000
857152.000000
858109.000000
859093.000000
860001.000000
860857.000000
861681.000000
862818.000000
863901.000000
864887.000000
865835.000000
866775.000000
867746.000000
868656.000000
869560.000000
870481.000000
871608.000000
872647.000000
873631.000000
874597.000000
875472.000000
876324.000000
877206.000000
878386.000000
879407.000000
880359.000000
881309.000000
882281.000000
883252.000000
884147.000000
885005.000000
885850.000000
886820.000000
887847.000000
888778.000000
889768.000000
890972.000000
892113.000000
893163.000000
894183.000000
895197.000000
896196.000000
897136.000000
898037.000000
899130.000000
900211.000000
901277.000000
902262.000000
903252.000000
904265.000000
905267.000000
906217.000000
907204.000000
908252.000000
909315.000000
910353.000000
911316.000000
912293.000000
913320.000000
914371.000000
915342.000000
916324.000000
917368.000000
918411.000000
919415.000000
920439.000000
921465.000000
922364.000000
923142.000000
923898.000000
924718.000000
925923.000000
926991.000000
927979.000000
929004.000000
929960.000000
930782.000000
931527.000000
932292.000000
933382.000000
934416.000000
935415.000000
936406.000000
937433.000000
938458.000000
939432.000000
940452.000000
941500.000000
942606.000000
943675.000000
944730.000000
945756.000000
946697.000000
947598.000000
948433.000000
949293.000000
950107.000000
950889.000000
951484.000000
952289.000000
952990.000000
953670.000000
954348.000000
955027.000000
955707.000000
956375.000000
957038.000000
957715.000000
958478.000000
959587.000000
960638.000000
961657.000000
962699.000000
963815.000000
964928.000000
965910.000000
966875.000000
967839.000000
968813.000000
969721.000000
970585.000000
971544.000000
972708.000000
973789.000000
974755.000000
975744.000000
976746.000000
977733.000000
978744.000000
979664.000000
980522.000000
981335.000000
982171.000000
982996.000000
983812.000000
984604.000000
985404.000000
986155.000000
986930.000000
987767.000000
988549.000000
989366.000000
990494.000000
991381.000000
992251.000000
993227.000000
994246.000000
995261.000000
996276.000000
997290.000000
998304.000000
999280.000000
1000194.000000
1001000.000000
1001792.000000
1002735.000000
1003877.000000
1004904.000000
1005855.000000
1006827.000000
1007828.000000
1008796.000000
1009697.000000
1010591.000000
1011504.000000
1012527.000000
1013459.000000
1014400.000000
1015327.000000
1016363.000000
1017339.000000
1018248.000000
1019135.000000
1020115.000000
1021143.000000
1022071.000000
1022968.000000
1023858.000000
1024901.000000
1025939.000000
1026919.000000
1027944.000000
1028988.000000
1029971.000000
1030964.000000
1031987.000000
1032930.000000
1033861.000000
1034816.000000
1035815.000000
1036778.000000
1037706.000000
1038667.000000
1039671.000000
1040642.000000
1041584.000000
1042565.000000
1043589.000000
1044561.000000
1045537.000000
1046548.000000
1047573.000000
1048535.000000
1049509.000000
1050527.000000
1051535.000000
1052500.000000
1053481.000000
1054529.000000
1055544.000000
1056486.000000
1057413.000000
1058385.000000
1059394.000000
1060315.000000
1061257.000000
1062180.000000
1063215.000000
1064131.000000
1065083.000000
1066049.000000
1067010.000000
1067903.000000
1068794.000000
1069722.000000
1070660.000000
1071525.000000
1072426.000000
1073357.000000
1074396.000000
1075315.000000
1076268.000000
1077217.000000
1078135.000000
1079023.000000
1079979.000000
1081003.000000
1082001.000000
1082917.000000
1083869.000000
1084830.000000
1085753.000000
1086672.000000
1087611.000000
1088767.000000
1089741.000000
1090742.000000
1091787.000000
1092827.000000
1093813.000000
1094813.000000
1095844.000000
1096804.000000
1097765.000000
1098811.000000
1099825.000000
1100768.000000
1101704.000000
1102691.000000
1103677.000000
1104568.000000
1105492.000000
1106352.000000
1107126.000000
1107847.000000
1108601.000000
1109491.000000
1110449.000000
1111354.000000
1112291.000000
1113284.000000
1114285.000000
1115141.000000
1115995.000000
1116876.000000
1117812.000000
1118724.000000
1119592.000000
1120461.000000
1121391.000000
1122474.000000
1123454.000000
1124432.000000
1125376.000000
1126354.000000
1127262.000000
1128157.000000
1129108.000000
1130161.000000
1131137.000000
1132031.000000
1132925.000000
1133831.000000
1134934.000000
1135922.000000
1136937.000000
1138004.000000
1139042.000000
1140009.000000
1141005.000000
1142110.000000
1143212.000000
1144252.000000
1145283.000000
1146364.000000
1147445.000000
1148470.000000
1149482.000000
1150511.000000
1151546.000000
1152489.000000
1153395.000000
1154330.000000
1155477.000000
1156504.000000
1157462.000000
1158414.000000
1159388.000000
1160349.000000
1161218.000000
1162022.000000
1162837.000000
1164087.000000
1165207.000000
1166268.000000
1167270.000000
1168274.000000
1169290.000000
1170321.000000
1171346.000000
1172347.000000
1173311.000000
1174254.000000
1175193.000000
1176293.000000
1177365.000000
1178347.000000
1179299.000000
1180300.000000
1181369.000000
1182418.000000
1183380.000000
1184361.000000
1185375.000000
1186416.000000
1187387.000000
1188361.000000
1189389.000000
1190438.000000
1191416.000000
1192368.000000
1193317.000000
1194286.000000
1195203.000000
1196090.000000
1196994.000000
1198189.000000
1199206.000000
1200207.000000
1201235.000000
1202249.000000
1203202.000000
1204182.000000
1205227.000000
1206123.000000
1206959.000000
1207829.000000
1208784.000000
