ECG (ms)
375.000000
1341.000000
2352.000000
3288.000000
4205.000000
5162.000000
6160.000000
7190.000000
8242.000000
9308.000000
10371.000000
11395.000000
12395.000000
13373.000000
14312.000000
15229.000000
16129.000000
17083.000000
18098.000000
19149.000000
20214.000000
21284.000000
22336.000000
23381.000000
24415.000000
25418.000000
26405.000000
27359.000000
28297.000000
29248.000000
30220.000000
31190.000000
32141.000000
33100.000000
34098.000000
35105.000000
36109.000000
37083.000000
37990.000000
38858.000000
39778.000000
40709.000000
41665.000000
42621.000000
43557.000000
44520.000000
45497.000000
46477.000000
47469.000000
48458.000000
49452.000000
50456.000000
51473.000000
52515.000000
53499.000000
54383.000000
55251.000000
56087.000000
56920.000000
57788.000000
58723.000000
59667.000000
60567.000000
61408.000000
62221.000000
63067.000000
63951.000000
64850.000000
65751.000000
66622.000000
67501.000000
68415.000000
69340.000000
70276.000000
71188.000000
72074.000000
72981.000000
73914.000000
74853.000000
75791.000000
76700.000000
77621.000000
78558.000000
79517.000000
80480.000000
81460.000000
82450.000000
83437.000000
84385.000000
85288.000000
86209.000000
87119.000000
88020.000000
88946.000000
89843.000000
90699.000000
91552.000000
92461.000000
93410.000000
94376.000000
95339.000000
96282.000000
96892.000000
98006.000000
98887.000000
99719.000000
100534.000000
101390.000000
102013.000000
103194.000000
104187.000000
105163.000000
106100.000000
107063.000000
108029.000000
109006.000000
109980.000000
110869.000000
111784.000000
112754.000000
113733.000000
114692.000000
115601.000000
116525.000000
117486.000000
118452.000000
119074.000000
120209.000000
121079.000000
121894.000000
122686.000000
123521.000000
124481.000000
125510.000000
126566.000000
127600.000000
128629.000000
129648.000000
130663.000000
131280.000000
132468.000000
133469.000000
134442.000000
135420.000000
136402.000000
137422.000000
138473.000000
139537.000000
140166.000000
141415.000000
142477.000000
143484.000000
144442.000000
145416.000000
146408.000000
147439.000000
148495.000000
149109.000000
150292.000000
151320.000000
152340.000000
153275.000000
154242.000000
154853.000000
156047.000000
157034.000000
157947.000000
158774.000000
159574.000000
160379.000000
161245.000000
162191.000000
163162.000000
164161.000000
165171.000000
166183.000000
167139.000000
168122.000000
169136.000000
169787.000000
170973.000000
171966.000000
172908.000000
173782.000000
174615.000000
175475.000000
176394.000000
177343.000000
178313.000000
179294.000000
180272.000000
181249.000000
182230.000000
183198.000000
184161.000000
185116.000000
185758.000000
186881.000000
187773.000000
188601.000000
189394.000000
190193.000000
191050.000000
191987.000000
192975.000000
193976.000000
195002.000000
196030.000000
197061.000000
198019.000000
198645.000000
199786.000000
200726.000000
201600.000000
202425.000000
203252.000000
204123.000000
205051.000000
206015.000000
207003.000000
208011.000000
209027.000000
209678.000000
210864.000000
211845.000000
212765.000000
213626.000000
214453.000000
215316.000000
216211.000000
217142.000000
218098.000000
219058.000000
220032.000000
221006.000000
221916.000000
222841.000000
223785.000000
224419.000000
225586.000000
226533.000000
227417.000000
228255.000000
229104.000000
229987.000000
230906.000000
231847.000000
232803.000000
233767.000000
234724.000000
235675.000000
236620.000000
237568.000000
238517.000000
239477.000000
240452.000000
241451.000000
242459.000000
243460.000000
244452.000000
245431.000000
246348.000000
247198.000000
248033.000000
248891.000000
249827.000000
250814.000000
251823.000000
252846.000000
253875.000000
254910.000000
255908.000000
256842.000000
257712.000000
258591.000000
259540.000000
260543.000000
261561.000000
262595.000000
263637.000000
264681.000000
265707.000000
266713.000000
267722.000000
268706.000000
269610.000000
270531.000000
271473.000000
272418.000000
273378.000000
274341.000000
275261.000000
276107.000000
276932.000000
277791.000000
278712.000000
279657.000000
280588.000000
281495.000000
282374.000000
283298.000000
284266.000000
285228.000000
286193.000000
287151.000000
288104.000000
289068.000000
290042.000000
291030.000000
292018.000000
292960.000000
293853.000000
294702.000000
295578.000000
296520.000000
297500.000000
298514.000000
299539.000000
300566.000000
301588.000000
302568.000000
303484.000000
304357.000000
305238.000000
306172.000000
307158.000000
308166.000000
309163.000000
310147.000000
311112.000000
312060.000000
312978.000000
313836.000000
314667.000000
315482.000000
316323.000000
317218.000000
318143.000000
319064.000000
319994.000000
320915.000000
321833.000000
322755.000000
323674.000000
324594.000000
325516.000000
326423.000000
327283.000000
328110.000000
328955.000000
329803.000000
330589.000000
331376.000000
332204.000000
333020.000000
333787.000000
334583.000000
335415.000000
336307.000000
337194.000000
338096.000000
339000.000000
339864.000000
340663.000000
341433.000000
342207.000000
343016.000000
343856.000000
344732.000000
345577.000000
346403.000000
347283.000000
348173.000000
349009.000000
349828.000000
350641.000000
351555.000000
352542.000000
353554.000000
354579.000000
355610.000000
356626.000000
357647.000000
358639.000000
359615.000000
360586.000000
361468.000000
362365.000000
363307.000000
364224.000000
365098.000000
365916.000000
366768.000000
367673.000000
368615.000000
369571.000000
370524.000000
371489.000000
372457.000000
373435.000000
374373.000000
375273.000000
376167.000000
377098.000000
378063.000000
379042.000000
380033.000000
381024.000000
381957.000000
382898.000000
383864.000000
384828.000000
385804.000000
386791.000000
387761.000000
388677.000000
389585.000000
390518.000000
391468.000000
392386.000000
393248.000000
394070.000000
394917.000000
395823.000000
396761.000000
397706.000000
398632.000000
399509.000000
400354.000000
401191.000000
402046.000000
402916.000000
403814.000000
404694.000000
405568.000000
406468.000000
407390.000000
408319.000000
409263.000000
410199.000000
411096.000000
411975.000000
412857.000000
413752.000000
414660.000000
415597.000000
416517.000000
417402.000000
418298.000000
419199.000000
420121.000000
421056.000000
422018.000000
422992.000000
423978.000000
424961.000000
425940.000000
426883.000000
427765.000000
428623.000000
429534.000000
430508.000000
431506.000000
432536.000000
433557.000000
434549.000000
435577.000000
436594.000000
437603.000000
438574.000000
439499.000000
440444.000000
441431.000000
442426.000000
443412.000000
444407.000000
445385.000000
446358.000000
447322.000000
448281.000000
449230.000000
450147.000000
451000.000000
451830.000000
452689.000000
453592.000000
454526.000000
455464.000000
456395.000000
457280.000000
458132.000000
459005.000000
459920.000000
460862.000000
461812.000000
462722.000000
463587.000000
464460.000000
465338.000000
466229.000000
467148.000000
468044.000000
468902.000000
469800.000000
470719.000000
471658.000000
472615.000000
473577.000000
474529.000000
475424.000000
476294.000000
477188.000000
478088.000000
479008.000000
479940.000000
480848.000000
481698.000000
482549.000000
483448.000000
484391.000000
485340.000000
486198.000000
487055.000000
487926.000000
488811.000000
489700.000000
490558.000000
491351.000000
492163.000000
493024.000000
493897.000000
494745.000000
495575.000000
496466.000000
497381.000000
498318.000000
499249.000000
499926.000000
501026.000000
501958.000000
502907.000000
503884.000000
504861.000000
505754.000000
506567.000000
507360.000000
508169.000000
509037.000000
509988.000000
511007.000000
512055.000000
513087.000000
514132.000000
515073.000000
516024.000000
517006.000000
517991.000000
518987.000000
519962.000000
520885.000000
521763.000000
522652.000000
523610.000000
524633.000000
525676.000000
526720.000000
527752.000000
528788.000000
529807.000000
530810.000000
531802.000000
532749.000000
533672.000000
534518.000000
535394.000000
536371.000000
537437.000000
538467.000000
539545.000000
540594.000000
541638.000000
542695.000000
543735.000000
544769.000000
545789.000000
546802.000000
547820.000000
548789.000000
549717.000000
550570.000000
551404.000000
552278.000000
553198.000000
554145.000000
555094.000000
556012.000000
556927.000000
557868.000000
558819.000000
559785.000000
560754.000000
561692.000000
562595.000000
563493.000000
564424.000000
565387.000000
566363.000000
567363.000000
568383.000000
569427.000000
570495.000000
571528.000000
572510.000000
573440.000000
574381.000000
575381.000000
576408.000000
577524.000000
578611.000000
579656.000000
580699.000000
581700.000000
582673.000000
583615.000000
584525.000000
585466.000000
586458.000000
587461.000000
588472.000000
589473.000000
590433.000000
591360.000000
592298.000000
593233.000000
594181.000000
595145.000000
596097.000000
597044.000000
597990.000000
598923.000000
599846.000000
600703.000000
601526.000000
602361.000000
603254.000000
604195.000000
605160.000000
606114.000000
607060.000000
607980.000000
608837.000000
609640.000000
610423.000000
611212.000000
612054.000000
612948.000000
613893.000000
614869.000000
615785.000000
616659.000000
617549.000000
618422.000000
619298.000000
620193.000000
621095.000000
621966.000000
622788.000000
623585.000000
624406.000000
625291.000000
626232.000000
627194.000000
628145.000000
629060.000000
629916.000000
630776.000000
631679.000000
632625.000000
633596.000000
634598.000000
635615.000000
636628.000000
637605.000000
638565.000000
639496.000000
640407.000000
641382.000000
642393.000000
643423.000000
644473.000000
645492.000000
646464.000000
647411.000000
648360.000000
649338.000000
650337.000000
651369.000000
652410.000000
653423.000000
654400.000000
655298.000000
656166.000000
657088.000000
658058.000000
659093.000000
660142.000000
661201.000000
662234.000000
663250.000000
664190.000000
665056.000000
665924.000000
666817.000000
667740.000000
668725.000000
669706.000000
670681.000000
671639.000000
672538.000000
673383.000000
674250.000000
675137.000000
676040.000000
676940.000000
677815.000000
678695.000000
679617.000000
680590.000000
681579.000000
682564.000000
683493.000000
684376.000000
685275.000000
686224.000000
687196.000000
688203.000000
689237.000000
690263.000000
691285.000000
692325.000000
693352.000000
694370.000000
695366.000000
696308.000000
697231.000000
698193.000000
699201.000000
700211.000000
701220.000000
702227.000000
703194.000000
704093.000000
704959.000000
705866.000000
706844.000000
707848.000000
708867.000000
709870.000000
710879.000000
711901.000000
712936.000000
713978.000000
715014.000000
716044.000000
717076.000000
718110.000000
719114.000000
720098.000000
721079.000000
722071.000000
723048.000000
724008.000000
724907.000000
725786.000000
726724.000000
727695.000000
728706.000000
729729.000000
730754.000000
731785.000000
732786.000000
733763.000000
734770.000000
735783.000000
736800.000000
737798.000000
738732.000000
739646.000000
740607.000000
741630.000000
742700.000000
743770.000000
744780.000000
745740.000000
746691.000000
747677.000000
748686.000000
749704.000000
750717.000000
751731.000000
752728.000000
753745.000000
754772.000000
755821.000000
756840.000000
757760.000000
758688.000000
759616.000000
760575.000000
761563.000000
762555.000000
763556.000000
764554.000000
765514.000000
766443.000000
767401.000000
768387.000000
769381.000000
770331.000000
771214.000000
772071.000000
772989.000000
773955.000000
774956.000000
775972.000000
776995.000000
777965.000000
778940.000000
779907.000000
780869.000000
781824.000000
782771.000000
783679.000000
784534.000000
785368.000000
786249.000000
787189.000000
788165.000000
789164.000000
790161.000000
791118.000000
792021.000000
792902.000000
793801.000000
794727.000000
795668.000000
796617.000000
797556.000000
798475.000000
799391.000000
800292.000000
801204.000000
802120.000000
803052.000000
803994.000000
804896.000000
805744.000000
806558.000000
807389.000000
808266.000000
809186.000000
810123.000000
811059.000000
811950.000000
812826.000000
813727.000000
814668.000000
815632.000000
816611.000000
817578.000000
818500.000000
819360.000000
820215.000000
821114.000000
822058.000000
823033.000000
823952.000000
824843.000000
825770.000000
826710.000000
827652.000000
828605.000000
829572.000000
830554.000000
831493.000000
832363.000000
833267.000000
834158.000000
834989.000000
835805.000000
836672.000000
837600.000000
838542.000000
839469.000000
840338.000000
841169.000000
842035.000000
842917.000000
843829.000000
844731.000000
845670.000000
846647.000000
847658.000000
848688.000000
849688.000000
850650.000000
851640.000000
852641.000000
853626.000000
854536.000000
855490.000000
856464.000000
857451.000000
858441.000000
859436.000000
860438.000000
861437.000000
862434.000000
863432.000000
864414.000000
865328.000000
866225.000000
867164.000000
868115.000000
869064.000000
869978.000000
870831.000000
871668.000000
872544.000000
873468.000000
874424.000000
875376.000000
876309.000000
877271.000000
878247.000000
879241.000000
880231.000000
881189.000000
882164.000000
883171.000000
884187.000000
885200.000000
886167.000000
887088.000000
888036.000000
889002.000000
889988.000000
890981.000000
891960.000000
892934.000000
893907.000000
894884.000000
895856.000000
896820.000000
897737.000000
898655.000000
899610.000000
900580.000000
901548.000000
902503.000000
903439.000000
904309.000000
905136.000000
905965.000000
906836.000000
907759.000000
908720.000000
909720.000000
910713.000000
911666.000000
912553.000000
913392.000000
914224.000000
915076.000000
915978.000000
916936.000000
917920.000000
918915.000000
919888.000000
920785.000000
921682.000000
922600.000000
923503.000000
924358.000000
925179.000000
926013.000000
926921.000000
927875.000000
928827.000000
929796.000000
930769.000000
931720.000000
932607.000000
933438.000000
934263.000000
935111.000000
935986.000000
936898.000000
937836.000000
938773.000000
939710.000000
940646.000000
941585.000000
942514.000000
943387.000000
944201.000000
944990.000000
945792.000000
946654.000000
947560.000000
948504.000000
949430.000000
950357.000000
951282.000000
952187.000000
953099.000000
953998.000000
954897.000000
955760.000000
956587.000000
957452.000000
958367.000000
959303.000000
960258.000000
961182.000000
962027.000000
962829.000000
963615.000000
964423.000000
965297.000000
966207.000000
967058.000000
967922.000000
968825.000000
969773.000000
970738.000000
971634.000000
972513.000000
973396.000000
974245.000000
975107.000000
975993.000000
976902.000000
977809.000000
978699.000000
979542.000000
980376.000000
981233.000000
982111.000000
983003.000000
983812.000000
984574.000000
985348.000000
986174.000000
987046.000000
987971.000000
988926.000000
989869.000000
990829.000000
991700.000000
992582.000000
993485.000000
994349.000000
995177.000000
996020.000000
996892.000000
997798.000000
998713.000000
999619.000000
1000511.000000
1001418.000000
1002320.000000
1003205.000000
1004117.000000
1005047.000000
1005917.000000
1006771.000000
1007656.000000
1008540.000000
1009458.000000
1010405.000000
1011355.000000
1012324.000000
1013292.000000
1014217.000000
1015084.000000
1015901.000000
1016741.000000
1017648.000000
1018619.000000
1019619.000000
1020621.000000
1021587.000000
1022583.000000
1023588.000000
1024600.000000
1025608.000000
1026617.000000
1027618.000000
1028615.000000
1029541.000000
1030414.000000
1031310.000000
1032167.000000
1033011.000000
1033918.000000
1034855.000000
1035806.000000
1036749.000000
1037640.000000
1038465.000000
1039271.000000
1040087.000000
1040975.000000
1041929.000000
1042906.000000
1043870.000000
1044818.000000
1045785.000000
1046792.000000
1047791.000000
1048857.000000
1049900.000000
1050936.000000
1051964.000000
1052986.000000
1054006.000000
1054947.000000
1055843.000000
1056784.000000
1057783.000000
1058806.000000
1059852.000000
1060900.000000
1061910.000000
1062918.000000
1063928.000000
1064936.000000
1065938.000000
1066901.000000
1067806.000000
1068674.000000
1069585.000000
1070552.000000
1071546.000000
1072562.000000
1073586.000000
1074604.000000
1075637.000000
1076665.000000
1077702.000000
1078700.000000
1079687.000000
1080686.000000
1081604.000000
1082528.000000
1083514.000000
1084513.000000
1085516.000000
1086517.000000
1087524.000000
1088540.000000
1089506.000000
1090417.000000
1091354.000000
1092291.000000
1093150.000000
1094043.000000
1094924.000000
1095764.000000
1096594.000000
1097471.000000
1098442.000000
1099420.000000
1100415.000000
1101385.000000
1102340.000000
1103339.000000
1104323.000000
1105295.000000
1106235.000000
1107109.000000
1107984.000000
1108905.000000
1109852.000000
1110833.000000
1111836.000000
1112814.000000
1113810.000000
1114827.000000
1115851.000000
1116876.000000
1117912.000000
1118918.000000
1119887.000000
1120833.000000
1121774.000000
1122716.000000
1123665.000000
1124645.000000
1125643.000000
1126603.000000
1127542.000000
1128499.000000
1129470.000000
1130374.000000
1131275.000000
1132220.000000
1133155.000000
1134036.000000
1134924.000000
1135857.000000
1136821.000000
1137809.000000
1138794.000000
1139779.000000
1140771.000000
1141736.000000
1142691.000000
1143642.000000
1144562.000000
1145438.000000
1146302.000000
1147217.000000
1148187.000000
1149181.000000
1150157.000000
1151125.000000
1152126.000000
1153145.000000
1154172.000000
1155196.000000
1156185.000000
1157158.000000
1158137.000000
1159121.000000
1160112.000000
1161106.000000
1162056.000000
1162966.000000
1163867.000000
1164801.000000
1165779.000000
1166775.000000
1167775.000000
1168755.000000
1169686.000000
1170626.000000
1171595.000000
1172591.000000
1173589.000000
1174582.000000
1175553.000000
1176517.000000
1177468.000000
1178434.000000
1179375.000000
1180275.000000
1181178.000000
1182114.000000
1183073.000000
1184018.000000
1184890.000000
1185765.000000
1186638.000000
1187492.000000
1188320.000000
1189177.000000
1190063.000000
1190982.000000
1191918.000000
1192860.000000
1193756.000000
1194626.000000
1195522.000000
1196430.000000
1197344.000000
1198278.000000
1199179.000000
1200051.000000
1200945.000000
1201862.000000
1202807.000000
1203761.000000
1204683.000000
1205565.000000
1206433.000000
1207311.000000
1208175.000000
1208996.000000
1209826.000000
1210688.000000
1211570.000000
1212497.000000
1213439.000000
1214372.000000
1215240.000000
1216100.000000
1216981.000000
1217828.000000
1218624.000000
1219392.000000
1220141.000000
1220897.000000
1221689.000000
1222567.000000
1223470.000000
1224388.000000
1225317.000000
1226255.000000
1227188.000000
1228129.000000
1229059.000000
1229919.000000
1230814.000000
1231723.000000
1232655.000000
1233590.000000
1234470.000000
1235317.000000
1236197.000000
1237101.000000
1238019.000000
1238950.000000
1239854.000000
1240707.000000
1241528.000000
1242365.000000
1243223.000000
1244107.000000
1245022.000000
1245909.000000
1246780.000000
1247674.000000
1248593.000000
1249521.000000
1250465.000000
1251414.000000
1252365.000000
1253314.000000
1254277.000000
1255255.000000
1256240.000000
1257207.000000
1258131.000000
1258980.000000
1259793.000000
1260632.000000
1261540.000000
1262461.000000
1263361.000000
1264234.000000
1265127.000000
1266038.000000
1266965.000000
1267854.000000
1268756.000000
1269666.000000
1270583.000000
1271491.000000
1272373.000000
1273246.000000
1274143.000000
1275049.000000
1275960.000000
1276835.000000
1277740.000000
1278678.000000
1279639.000000
1280637.000000
1281652.000000
1282637.000000
1283574.000000
1284527.000000
1285507.000000
1286515.000000
1287518.000000
1288535.000000
1289578.000000
1290623.000000
1291650.000000
1292632.000000
1293529.000000
1294399.000000
1295302.000000
1296219.000000
1297185.000000
1298143.000000
1299095.000000
1300050.000000
1301006.000000
1301942.000000
1302891.000000
1303817.000000
1304751.000000
1305664.000000
1306493.000000
1307317.000000
1308168.000000
1309061.000000
1309967.000000
1310828.000000
1311647.000000
1312459.000000
1313308.000000
1314175.000000
1315038.000000
1315878.000000
1316748.000000
1317635.000000
1318549.000000
1319488.000000
1320444.000000
1321367.000000
1322235.000000
1323060.000000
1323910.000000
1324819.000000
1325768.000000
1326757.000000
1327773.000000
1328799.000000
1329834.000000
1330870.000000
1331896.000000
1332858.000000
1333799.000000
1334721.000000
1335656.000000
1336634.000000
1337585.000000
1338488.000000
1339343.000000
1340217.000000
1341149.000000
1342140.000000
1343137.000000
1344144.000000
1345144.000000
1346157.000000
1347173.000000
1348169.000000
1349152.000000
1350133.000000
1351107.000000
1352006.000000
1352894.000000
1353824.000000
1354707.000000
1355590.000000
1356462.000000
1357317.000000
1358173.000000
1359075.000000
1360019.000000
1360944.000000
1361838.000000
1362764.000000
1363720.000000
1364691.000000
1365638.000000
1366556.000000
1367505.000000
1368485.000000
1369485.000000
1370481.000000
1371408.000000
1372333.000000
1373287.000000
1374271.000000
1375236.000000
1376203.000000
1377167.000000
1378142.000000
1379117.000000
1380094.000000
1381023.000000
1381913.000000
1382825.000000
1383755.000000
1384700.000000
1385665.000000
1386610.000000
1387509.000000
1388379.000000
1389282.000000
1390200.000000
1391126.000000
1392062.000000
1392986.000000
1393874.000000
1394705.000000
1395527.000000
1396377.000000
1397271.000000
1398240.000000
1399223.000000
1400238.000000
1401233.000000
1402199.000000
1403121.000000
1404049.000000
1404992.000000
1405954.000000
1406932.000000
1407903.000000
1408860.000000
1409824.000000
1410787.000000
1411706.000000
1412585.000000
1413466.000000
1414393.000000
1415393.000000
1416411.000000
1417425.000000
1418427.000000
1419425.000000
1420403.000000
1421365.000000
1422371.000000
1423414.000000
1424455.000000
1425482.000000
1426497.000000
1427498.000000
1428481.000000
1429401.000000
1430285.000000
1431217.000000
1432184.000000
1433167.000000
1434173.000000
1435144.000000
1436057.000000
1436923.000000
1437795.000000
1438714.000000
1439639.000000
1440572.000000
1441530.000000
1442454.000000
1443321.000000
1444183.000000
1445063.000000
1445968.000000
1446919.000000
1447905.000000
1448896.000000
1449892.000000
1450899.000000
1451908.000000
1452920.000000
1453896.000000
1454826.000000
1455713.000000
1456662.000000
1457635.000000
1458653.000000
1459672.000000
1460656.000000
1461607.000000
1462550.000000
1463508.000000
1464517.000000
1465550.000000
1466558.000000
1467522.000000
1468513.000000
1469508.000000
1470494.000000
1471454.000000
1472418.000000
1473378.000000
1474284.000000
1475145.000000
1476018.000000
1476947.000000
1477889.000000
1478865.000000
1479849.000000
1480793.000000
1481721.000000
1482679.000000
1483648.000000
1484629.000000
1485615.000000
1486585.000000
1487492.000000
1488384.000000
1489300.000000
1490247.000000
1491133.000000
1491990.000000
1492883.000000
1493782.000000
1494654.000000
1495562.000000
1496517.000000
1497456.000000
1498331.000000
1499244.000000
1500199.000000
1501165.000000
1502149.000000
1503146.000000
1504106.000000
1505013.000000
1505936.000000
1506899.000000
1507888.000000
1508868.000000
1509791.000000
1510692.000000
1511619.000000
1512574.000000
1513551.000000
1514508.000000
1515418.000000
1516288.000000
1517149.000000
1518070.000000
1519037.000000
1520014.000000
1520975.000000
1521899.000000
1522801.000000
1523709.000000
1524636.000000
1525568.000000
1526529.000000
1527494.000000
1528402.000000
1529260.000000
1530114.000000
1530993.000000
1531908.000000
1532903.000000
1533893.000000
1534890.000000
1535877.000000
1536826.000000
1537709.000000
1538587.000000
1539483.000000
1540389.000000
1541332.000000
1542269.000000
1543182.000000
1544134.000000
1545110.000000
1546096.000000
1547086.000000
1548069.000000
1549049.000000
1550020.000000
1550990.000000
1551931.000000
1552806.000000
1553654.000000
1554475.000000
1555328.000000
1556263.000000
1557249.000000
1558264.000000
1559279.000000
1560231.000000
1561168.000000
1562079.000000
1562996.000000
1563896.000000
1564817.000000
1565672.000000
1566491.000000
1567344.000000
1568213.000000
1569084.000000
1569933.000000
1570778.000000
1571675.000000
1572612.000000
1573581.000000
1574559.000000
1575537.000000
1576511.000000
1577469.000000
1578368.000000
1579193.000000
1579990.000000
1580806.000000
1581667.000000
1582580.000000
1583531.000000
1584474.000000
1585391.000000
1586270.000000
1587167.000000
1588105.000000
1589061.000000
1590042.000000
1591021.000000
1591986.000000
1592902.000000
1593772.000000
1594641.000000
1595547.000000
1596489.000000
1597456.000000
1598419.000000
1599377.000000
1600324.000000
1601276.000000
1602225.000000
1603174.000000
1604102.000000
1605021.000000
1605926.000000
1606784.000000
1607625.000000
1608508.000000
1609442.000000
1610424.000000
1611425.000000
1612424.000000
1613414.000000
1614392.000000
1615334.000000
1616218.000000
1617057.000000
1617896.000000
1618782.000000
1619777.000000
1620793.000000
1621783.000000
1622747.000000
1623620.000000
1624522.000000
1625439.000000
1626374.000000
1627331.000000
1628292.000000
1629264.000000
1630221.000000
1631113.000000
1631964.000000
1632788.000000
1633582.000000
1634368.000000
1635202.000000
1636099.000000
1637039.000000
1638007.000000
1638958.000000
1639879.000000
1640721.000000
1641532.000000
1642371.000000
1643257.000000
1644199.000000
1645171.000000
1646125.000000
1647046.000000
1647915.000000
1648803.000000
1649709.000000
1650631.000000
1651523.000000
1652398.000000
1653302.000000
1654248.000000
1655134.000000
1656032.000000
1656983.000000
1657950.000000
1658891.000000
1659869.000000
1660880.000000
1661892.000000
1662902.000000
1663878.000000
1664794.000000
1665647.000000
1666500.000000
1667410.000000
1668368.000000
1669394.000000
1670416.000000
1671434.000000
1672437.000000
1673399.000000
1674311.000000
1675173.000000
1676076.000000
1677004.000000
1677942.000000
1678895.000000
1679859.000000
1680827.000000
1681795.000000
1682763.000000
1683719.000000
1684683.000000
1685650.000000
1686623.000000
1687515.000000
1688425.000000
1689372.000000
1690345.000000
1691328.000000
1692300.000000
1693213.000000
1694128.000000
1695071.000000
1696026.000000
1696981.000000
1697878.000000
1698729.000000
1699604.000000
1700539.000000
1701505.000000
1702492.000000
1703442.000000
1704349.000000
1705262.000000
1706197.000000
1707127.000000
1708071.000000
1708980.000000
1709845.000000
1710693.000000
1711590.000000
1712557.000000
1713569.000000
1714583.000000
1715583.000000
1716550.000000
1717491.000000
1718409.000000
1719310.000000
1720194.000000
1721047.000000
1721882.000000
1722775.000000
1723710.000000
1724663.000000
1725620.000000
1726570.000000
1727503.000000
1728418.000000
1729350.000000
1730286.000000
1731220.000000
1732163.000000
1733082.000000
1733953.000000
1734820.000000
1735725.000000
1736663.000000
1737615.000000
1738565.000000
1739483.000000
1740357.000000
1741250.000000
1742162.000000
1743095.000000
1744037.000000
1744954.000000
1745848.000000
1746772.000000
1747710.000000
1748631.000000
1749460.000000
1750322.000000
1751211.000000
1752074.000000
1752922.000000
1753806.000000
1754723.000000
1755653.000000
1756582.000000
1757502.000000
1758385.000000
1759242.000000
1760131.000000
1761035.000000
1761970.000000
1762943.000000
1763903.000000
1764823.000000
1765738.000000
1766661.000000
1767599.000000
1768563.000000
1769528.000000
1770470.000000
1771433.000000
1772401.000000
1773374.000000
1774323.000000
1775213.000000
1776067.000000
1776939.000000
1777862.000000
1778833.000000
1779811.000000
1780795.000000
1781808.000000
1782843.000000
1783880.000000
1784887.000000
1785834.000000
1786758.000000
1787667.000000
1788591.000000
1789536.000000
1790505.000000
1791439.000000
1792326.000000
1793169.000000
1793999.000000
1794793.000000
1795644.000000
1796558.000000
1797505.000000
1798472.000000
1799452.000000
1800425.000000
1801393.000000
1802356.000000
1803324.000000
1804240.000000
1805101.000000
1805931.000000
1806771.000000
1807658.000000
1808595.000000
1809567.000000
1810532.000000
1811493.000000
1812446.000000
1813384.000000
1814263.000000
1815083.000000
1815897.000000
1816773.000000
1817743.000000
1818788.000000
1819831.000000
1820827.000000
1821786.000000
1822689.000000
1823573.000000
1824469.000000
1825401.000000
1826356.000000
1827330.000000
1828325.000000
1829309.000000
1830300.000000
1831286.000000
1832229.000000
1833119.000000
1833958.000000
1834825.000000
1835754.000000
1836768.000000
1837801.000000
1838840.000000
1839795.000000
1840750.000000
1841741.000000
1842746.000000
1843745.000000
1844762.000000
1845770.000000
1846705.000000
1847606.000000
1848533.000000
1849467.000000
1850450.000000
1851411.000000
1852327.000000
1853197.000000
1854104.000000
1855038.000000
1855991.000000
1856970.000000
1857961.000000
1858968.000000
1859970.000000
1860948.000000
1861886.000000
1862769.000000
1863664.000000
1864596.000000
1865568.000000
1866536.000000
1867508.000000
1868437.000000
1869345.000000
1870183.000000
1871026.000000
1871889.000000
1872707.000000
1873554.000000
1874472.000000
1875393.000000
1876306.000000
1877260.000000
1878238.000000
1879233.000000
1880228.000000
1881206.000000
1882172.000000
1883105.000000
1883980.000000
1884818.000000
1885679.000000
1886630.000000
1887605.000000
1888603.000000
1889609.000000
1890613.000000
1891622.000000
1892600.000000
1893532.000000
1894424.000000
1895350.000000
1896324.000000
1897342.000000
1898360.000000
1899403.000000
1900451.000000
1901493.000000
1902506.000000
1903502.000000
1904480.000000
1905394.000000
1906242.000000
1907109.000000
1908033.000000
1908977.000000
1909902.000000
1910866.000000
1911847.000000
1912827.000000
1913799.000000
1914735.000000
1915614.000000
1916496.000000
1917399.000000
1918306.000000
1919244.000000
1920198.000000
1921120.000000
