ECG (ms)
1530.000000
2441.000000
3295.000000
4116.000000
4908.000000
5673.000000
6412.000000
7149.000000
7933.000000
8844.000000
9854.000000
10823.000000
11775.000000
12758.000000
13683.000000
14587.000000
15511.000000
16462.000000
17384.000000
18294.000000
19200.000000
20117.000000
21022.000000
21956.000000
22826.000000
23725.000000
24639.000000
25534.000000
26406.000000
27204.000000
27975.000000
28776.000000
29598.000000
30433.000000
31251.000000
32134.000000
32635.000000
33471.000000
34436.000000
35431.000000
36397.000000
37302.000000
38119.000000
38909.000000
39680.000000
40465.000000
41310.000000
42150.000000
42979.000000
43784.000000
44607.000000
45469.000000
46147.000000
47415.000000
48233.000000
48836.000000
49463.000000
50240.000000
51012.000000
51880.000000
52774.000000
53637.000000
54510.000000
55427.000000
56340.000000
56871.000000
57784.000000
58690.000000
59522.000000
60378.000000
61239.000000
62057.000000
62891.000000
63703.000000
64490.000000
65304.000000
66114.000000
66903.000000
67706.000000
68495.000000
69257.000000
69994.000000
70748.000000
71511.000000
72269.000000
73035.000000
73813.000000
74308.000000
75692.000000
76462.000000
77215.000000
77957.000000
78694.000000
79447.000000
80273.000000
81179.000000
82064.000000
82951.000000
83867.000000
84773.000000
85655.000000
86537.000000
87471.000000
88353.000000
89197.000000
90046.000000
90914.000000
91771.000000
92600.000000
93431.000000
94296.000000
95186.000000
96038.000000
96852.000000
97663.000000
98500.000000
99329.000000
100147.000000
100968.000000
101823.000000
102700.000000
103543.000000
104412.000000
105313.000000
106178.000000
107023.000000
107865.000000
108736.000000
109615.000000
110455.000000
111278.000000
112132.000000
112968.000000
113778.000000
114596.000000
115417.000000
116257.000000
117094.000000
117960.000000
118805.000000
119682.000000
120573.000000
121457.000000
122311.000000
123145.000000
123989.000000
124870.000000
125721.000000
126546.000000
127394.000000
128228.000000
129053.000000
129885.000000
130719.000000
131581.000000
132448.000000
133300.000000
134130.000000
134981.000000
135829.000000
136664.000000
137493.000000
138322.000000
139138.000000
139942.000000
140743.000000
141572.000000
142419.000000
143258.000000
144100.000000
144966.000000
145828.000000
146663.000000
147508.000000
148323.000000
149150.000000
149988.000000
150860.000000
151754.000000
152655.000000
153546.000000
154390.000000
155220.000000
156051.000000
156859.000000
157665.000000
158456.000000
159275.000000
160069.000000
160862.000000
161680.000000
162457.000000
163193.000000
163937.000000
164687.000000
165437.000000
166200.000000
167021.000000
167877.000000
168745.000000
169599.000000
170472.000000
171869.000000
172751.000000
173292.000000
174121.000000
175003.000000
175826.000000
176695.000000
177264.000000
178072.000000
178991.000000
179866.000000
180744.000000
181638.000000
182532.000000
183403.000000
184277.000000
185690.000000
186549.000000
187337.000000
188130.000000
188942.000000
189803.000000
191218.000000
192171.000000
193026.000000
193886.000000
194755.000000
195644.000000
196583.000000
197970.000000
198995.000000
199927.000000
200784.000000
201620.000000
202483.000000
203359.000000
204283.000000
205264.000000
206253.000000
207201.000000
208163.000000
209067.000000
209926.000000
210793.000000
211372.000000
212136.000000
213040.000000
213959.000000
214857.000000
215776.000000
216699.000000
217557.000000
218434.000000
219830.000000
220695.000000
221530.000000
222335.000000
223169.000000
224093.000000
225038.000000
226080.000000
227105.000000
228115.000000
229105.000000
230051.000000
230977.000000
231843.000000
232682.000000
233540.000000
234421.000000
235281.000000
236116.000000
236956.000000
237827.000000
238680.000000
239570.000000
240455.000000
241333.000000
242198.000000
243059.000000
243891.000000
244732.000000
245571.000000
246386.000000
247222.000000
248062.000000
248878.000000
249693.000000
250513.000000
251323.000000
252119.000000
252911.000000
253731.000000
254548.000000
255358.000000
256193.000000
257030.000000
257869.000000
258728.000000
259587.000000
260444.000000
261272.000000
262106.000000
262942.000000
263756.000000
264573.000000
265455.000000
266339.000000
267269.000000
268198.000000
269114.000000
270002.000000
270869.000000
271754.000000
272634.000000
273471.000000
274288.000000
275121.000000
275942.000000
276779.000000
277605.000000
278444.000000
279269.000000
280080.000000
280880.000000
281678.000000
282468.000000
283250.000000
284019.000000
284774.000000
285524.000000
286242.000000
286955.000000
287669.000000
288378.000000
289133.000000
289882.000000
290638.000000
291426.000000
292199.000000
292992.000000
293778.000000
294562.000000
295353.000000
296147.000000
296948.000000
297764.000000
298588.000000
299394.000000
300186.000000
300983.000000
301809.000000
302626.000000
303419.000000
304220.000000
304997.000000
305780.000000
306572.000000
307365.000000
308188.000000
309039.000000
309695.000000
310368.000000
311236.000000
312084.000000
312899.000000
313713.000000
314544.000000
315354.000000
316147.000000
316929.000000
317720.000000
318511.000000
319332.000000
320145.000000
320916.000000
321623.000000
322350.000000
323067.000000
323828.000000
324632.000000
325448.000000
326283.000000
327108.000000
327933.000000
328717.000000
329494.000000
330255.000000
331036.000000
331819.000000
332616.000000
333464.000000
334313.000000
335147.000000
335968.000000
336759.000000
337498.000000
338239.000000
339009.000000
339852.000000
340679.000000
341503.000000
342339.000000
343146.000000
343946.000000
344777.000000
346158.000000
346976.000000
347758.000000
348498.000000
349251.000000
350094.000000
351038.000000
352035.000000
353100.000000
354078.000000
355075.000000
355997.000000
356911.000000
357828.000000
358539.000000
359591.000000
360512.000000
361421.000000
362278.000000
363106.000000
363957.000000
364834.000000
365721.000000
366579.000000
367462.000000
368872.000000
369738.000000
370563.000000
371363.000000
372162.000000
373004.000000
373874.000000
374794.000000
375762.000000
376711.000000
377580.000000
378386.000000
379189.000000
379993.000000
380786.000000
381627.000000
382500.000000
383350.000000
384187.000000
385050.000000
385877.000000
386686.000000
387506.000000
388311.000000
389123.000000
389975.000000
390820.000000
391652.000000
392472.000000
393295.000000
394111.000000
394921.000000
395753.000000
396597.000000
397418.000000
398247.000000
399078.000000
399890.000000
400716.000000
401553.000000
402380.000000
403247.000000
404132.000000
405023.000000
405877.000000
406749.000000
408140.000000
408997.000000
409539.000000
410333.000000
411222.000000
412115.000000
413094.000000
414115.000000
415098.000000
416079.000000
417047.000000
417957.000000
418848.000000
419694.000000
420536.000000
421372.000000
422196.000000
423052.000000
423935.000000
424811.000000
425719.000000
426624.000000
427476.000000
428335.000000
429218.000000
430071.000000
430946.000000
431819.000000
433142.000000
433940.000000
434692.000000
435397.000000
436158.000000
436999.000000
437973.000000
438890.000000
439835.000000
441284.000000
442159.000000
442971.000000
443791.000000
444622.000000
445483.000000
446401.000000
447354.000000
448309.000000
449219.000000
450126.000000
451019.000000
451895.000000
452766.000000
453635.000000
454498.000000
455334.000000
456180.000000
457028.000000
457853.000000
458694.000000
459530.000000
460360.000000
461170.000000
461966.000000
462763.000000
463558.000000
464366.000000
465205.000000
465738.000000
467152.000000
467967.000000
468561.000000
469242.000000
470035.000000
470881.000000
471876.000000
472887.000000
473879.000000
474838.000000
475716.000000
476596.000000
477492.000000
478380.000000
479320.000000
480255.000000
481680.000000
482576.000000
483472.000000
484345.000000
485220.000000
486133.000000
487007.000000
487896.000000
488799.000000
489666.000000
490523.000000
491430.000000
492348.000000
493239.000000
494133.000000
495066.000000
495998.000000
497485.000000
498377.000000
499685.000000
500472.000000
501215.000000
501972.000000
502792.000000
503701.000000
504677.000000
505683.000000
506725.000000
507694.000000
508674.000000
509653.000000
510571.000000
511449.000000
512315.000000
513771.000000
514567.000000
515286.000000
516056.000000
516840.000000
517725.000000
518614.000000
519535.000000
520499.000000
521493.000000
522468.000000
523368.000000
524298.000000
525208.000000
526107.000000
526983.000000
527829.000000
528638.000000
529449.000000
530266.000000
531095.000000
531927.000000
532770.000000
533642.000000
534527.000000
535367.000000
536200.000000
537056.000000
537902.000000
538721.000000
539570.000000
540406.000000
541253.000000
542055.000000
542812.000000
543547.000000
544287.000000
545036.000000
545821.000000
546653.000000
547513.000000
548373.000000
549265.000000
550185.000000
551055.000000
551899.000000
552746.000000
553582.000000
554127.000000
554899.000000
555735.000000
556546.000000
557351.000000
558143.000000
558960.000000
559851.000000
560776.000000
561680.000000
562563.000000
563416.000000
564237.000000
565051.000000
565845.000000
566635.000000
567435.000000
568260.000000
569097.000000
569955.000000
570836.000000
571720.000000
572594.000000
573441.000000
574261.000000
575081.000000
575888.000000
576685.000000
577492.000000
578324.000000
579730.000000
580607.000000
581416.000000
582231.000000
583050.000000
583911.000000
584812.000000
585791.000000
586768.000000
587749.000000
588672.000000
589529.000000
590337.000000
591099.000000
591857.000000
592664.000000
593524.000000
594410.000000
595327.000000
596230.000000
596885.000000
597638.000000
598546.000000
599438.000000
600353.000000
601261.000000
602757.000000
603660.000000
604492.000000
605323.000000
606155.000000
607024.000000
608004.000000
609057.000000
610101.000000
611132.000000
612125.000000
613061.000000
613955.000000
614817.000000
615667.000000
616511.000000
617449.000000
618422.000000
619386.000000
620377.000000
621342.000000
622282.000000
623259.000000
624168.000000
625050.000000
625944.000000
626828.000000
627691.000000
628580.000000
629478.000000
630354.000000
631228.000000
632093.000000
632949.000000
633839.000000
634726.000000
636096.000000
636885.000000
637645.000000
638463.000000
639260.000000
640051.000000
640861.000000
641745.000000
642639.000000
643517.000000
644383.000000
645284.000000
646182.000000
647074.000000
647979.000000
648823.000000
649631.000000
650415.000000
651175.000000
651908.000000
652611.000000
653356.000000
654142.000000
654928.000000
655723.000000
656557.000000
657425.000000
658271.000000
659125.000000
659977.000000
660674.000000
661387.000000
662378.000000
663379.000000
664378.000000
665363.000000
666310.000000
667181.000000
668008.000000
668809.000000
669603.000000
670442.000000
671303.000000
672202.000000
673173.000000
674122.000000
675579.000000
676466.000000
677277.000000
678103.000000
678949.000000
679856.000000
680910.000000
681991.000000
683044.000000
684043.000000
685029.000000
685589.000000
686807.000000
687875.000000
688846.000000
689787.000000
690698.000000
691595.000000
692508.000000
693449.000000
694378.000000
695285.000000
696213.000000
696891.000000
697589.000000
698501.000000
699446.000000
700376.000000
701330.000000
702756.000000
703632.000000
704431.000000
705234.000000
706042.000000
706886.000000
707813.000000
708789.000000
709786.000000
710800.000000
711787.000000
713224.000000
714121.000000
714989.000000
715841.000000
716682.000000
717496.000000
718302.000000
719142.000000
719700.000000
720554.000000
721504.000000
722447.000000
723371.000000
724279.000000
725164.000000
726028.000000
726888.000000
727720.000000
728557.000000
729381.000000
730182.000000
730991.000000
731819.000000
732646.000000
733476.000000
734286.000000
735087.000000
735900.000000
736723.000000
737556.000000
738351.000000
739127.000000
739898.000000
740661.000000
741423.000000
742189.000000
742963.000000
743709.000000
744455.000000
745218.000000
745970.000000
746734.000000
747515.000000
748275.000000
749042.000000
749822.000000
750593.000000
751363.000000
752151.000000
752938.000000
753721.000000
754521.000000
755303.000000
756066.000000
756843.000000
757598.000000
758363.000000
759109.000000
759865.000000
760621.000000
761379.000000
762125.000000
762876.000000
763650.000000
764459.000000
765269.000000
766069.000000
766873.000000
767717.000000
768545.000000
769374.000000
770231.000000
771125.000000
772021.000000
772902.000000
773770.000000
774635.000000
775487.000000
776317.000000
777105.000000
777895.000000
778672.000000
779460.000000
780242.000000
781013.000000
781802.000000
782635.000000
783450.000000
784243.000000
785037.000000
785801.000000
786531.000000
787226.000000
787935.000000
788678.000000
789410.000000
790240.000000
791082.000000
791926.000000
792785.000000
793654.000000
794492.000000
795310.000000
796120.000000
796949.000000
797783.000000
798604.000000
799430.000000
800295.000000
801149.000000
802012.000000
802860.000000
803752.000000
804695.000000
805605.000000
806493.000000
807392.000000
808291.000000
809167.000000
810021.000000
810888.000000
811726.000000
812586.000000
813486.000000
814389.000000
815290.000000
816209.000000
817090.000000
817973.000000
818831.000000
819665.000000
820504.000000
821432.000000
822029.000000
823033.000000
824018.000000
825022.000000
825968.000000
826857.000000
827698.000000
828538.000000
829426.000000
830362.000000
831296.000000
832318.000000
833308.000000
834288.000000
835257.000000
836166.000000
837055.000000
837944.000000
838836.000000
839712.000000
840538.000000
841374.000000
842203.000000
843046.000000
843924.000000
844814.000000
845662.000000
846492.000000
847315.000000
848152.000000
848989.000000
849801.000000
850575.000000
851347.000000
852161.000000
853588.000000
854479.000000
855335.000000
856192.000000
857030.000000
857827.000000
858579.000000
859350.000000
860131.000000
860914.000000
861710.000000
862506.000000
863303.000000
864128.000000
864773.000000
865445.000000
866226.000000
866998.000000
867705.000000
868426.000000
869151.000000
869890.000000
870685.000000
871532.000000
872364.000000
873199.000000
874013.000000
874808.000000
875613.000000
876140.000000
876931.000000
877688.000000
878457.000000
879217.000000
879984.000000
880753.000000
881521.000000
882284.000000
883066.000000
883865.000000
884663.000000
885455.000000
886255.000000
887061.000000
887854.000000
888625.000000
889399.000000
890186.000000
890978.000000
891776.000000
892571.000000
893363.000000
894150.000000
894930.000000
895699.000000
896461.000000
897218.000000
897957.000000
898721.000000
899489.000000
900247.000000
901055.000000
901846.000000
902632.000000
903429.000000
904248.000000
905035.000000
905820.000000
906639.000000
907473.000000
908301.000000
909101.000000
909886.000000
910704.000000
911542.000000
912396.000000
913212.000000
914039.000000
914871.000000
915717.000000
916549.000000
917396.000000
918230.000000
919035.000000
