ECG (ms)
448.000000
1389.000000
2376.000000
3365.000000
4292.000000
5176.000000
6099.000000
7058.000000
7995.000000
8894.000000
9829.000000
10837.000000
11790.000000
12693.000000
13630.000000
14604.000000
15547.000000
16447.000000
17384.000000
18347.000000
19306.000000
20213.000000
21110.000000
22052.000000
23022.000000
24009.000000
24952.000000
25831.000000
26771.000000
27734.000000
28634.000000
29522.000000
30472.000000
31362.000000
32234.000000
33157.000000
34110.000000
35019.000000
35912.000000
36852.000000
37812.000000
38732.000000
39612.000000
40514.000000
41462.000000
42397.000000
43278.000000
44115.000000
45004.000000
45961.000000
46890.000000
47821.000000
48706.000000
49572.000000
50457.000000
51392.000000
52319.000000
53202.000000
54092.000000
55039.000000
56001.000000
56940.000000
57827.000000
58710.000000
59661.000000
60621.000000
61508.000000
62374.000000
63280.000000
64208.000000
65152.000000
66045.000000
66936.000000
67854.000000
68782.000000
69693.000000
70563.000000
71441.000000
72349.000000
73270.000000
74172.000000
75052.000000
75959.000000
76891.000000
77824.000000
78735.000000
79604.000000
80477.000000
81384.000000
82320.000000
83231.000000
84077.000000
84951.000000
85862.000000
86770.000000
87677.000000
88555.000000
89394.000000
90305.000000
91222.000000
92131.000000
93045.000000
93912.000000
94790.000000
95711.000000
96632.000000
97548.000000
98422.000000
99332.000000
100279.000000
101207.000000
102112.000000
102975.000000
103884.000000
104805.000000
105697.000000
106550.000000
107445.000000
108363.000000
109263.000000
110112.000000
110957.000000
111855.000000
112759.000000
113608.000000
114444.000000
115324.000000
116224.000000
117121.000000
118005.000000
118849.000000
119743.000000
120697.000000
121642.000000
122558.000000
123444.000000
124386.000000
125359.000000
126325.000000
127293.000000
128194.000000
129095.000000
130044.000000
131005.000000
131946.000000
132835.000000
133736.000000
134680.000000
135627.000000
136534.000000
137423.000000
138346.000000
139302.000000
140238.000000
141129.000000
142050.000000
143019.000000
143979.000000
144901.000000
145764.000000
146665.000000
147622.000000
148590.000000
149494.000000
150380.000000
151324.000000
152305.000000
153257.000000
154128.000000
155018.000000
155954.000000
156881.000000
157764.000000
158637.000000
159580.000000
160563.000000
161449.000000
162281.000000
163164.000000
164085.000000
165005.000000
165882.000000
166764.000000
167689.000000
168629.000000
169577.000000
170469.000000
171348.000000
172272.000000
173242.000000
174218.000000
175126.000000
176014.000000
176956.000000
177939.000000
178904.000000
179817.000000
180713.000000
181676.000000
182646.000000
183594.000000
184493.000000
185399.000000
186344.000000
187289.000000
188184.000000
189085.000000
190015.000000
190961.000000
191868.000000
192761.000000
193680.000000
194644.000000
195592.000000
196488.000000
197346.000000
198230.000000
199146.000000
200071.000000
200955.000000
201795.000000
202683.000000
203621.000000
204512.000000
205352.000000
206211.000000
207133.000000
208058.000000
208929.000000
209777.000000
210673.000000
211615.000000
212542.000000
213414.000000
214280.000000
215204.000000
216150.000000
217037.000000
217886.000000
218769.000000
219701.000000
220623.000000
221495.000000
222344.000000
223219.000000
224133.000000
225054.000000
225913.000000
226747.000000
227606.000000
228510.000000
229408.000000
230254.000000
231082.000000
231981.000000
232890.000000
233768.000000
234604.000000
235461.000000
236348.000000
237226.000000
238058.000000
238870.000000
239733.000000
240631.000000
241527.000000
242379.000000
243192.000000
244043.000000
244958.000000
245910.000000
246801.000000
247613.000000
248455.000000
249363.000000
250273.000000
251143.000000
251977.000000
252842.000000
253748.000000
254656.000000
255506.000000
256317.000000
257154.000000
258038.000000
258938.000000
259791.000000
260590.000000
261440.000000
262335.000000
263212.000000
264030.000000
264860.000000
265714.000000
266593.000000
267414.000000
268223.000000
269073.000000
269974.000000
270850.000000
271678.000000
272553.000000
273468.000000
274384.000000
275231.000000
276073.000000
276938.000000
277834.000000
278689.000000
279494.000000
280317.000000
281206.000000
282082.000000
282892.000000
283721.000000
284606.000000
285494.000000
286331.000000
287145.000000
288002.000000
288900.000000
289769.000000
290599.000000
291439.000000
292328.000000
293216.000000
294075.000000
294891.000000
295742.000000
296630.000000
297518.000000
298368.000000
299197.000000
300061.000000
300946.000000
301828.000000
302689.000000
303509.000000
304343.000000
305221.000000
306131.000000
307007.000000
307841.000000
308705.000000
309648.000000
310576.000000
311451.000000
312307.000000
313186.000000
314025.000000
314856.000000
315741.000000
316601.000000
317416.000000
318250.000000
319126.000000
320004.000000
320891.000000
321746.000000
322552.000000
323379.000000
324287.000000
325207.000000
326098.000000
326924.000000
327816.000000
328748.000000
329680.000000
330550.000000
331380.000000
332243.000000
333150.000000
334108.000000
335006.000000
335856.000000
336753.000000
337724.000000
338693.000000
339592.000000
340461.000000
341354.000000
342307.000000
343252.000000
344161.000000
345036.000000
345972.000000
346936.000000
347879.000000
348770.000000
349652.000000
350594.000000
351563.000000
352497.000000
353396.000000
354330.000000
355274.000000
356199.000000
357074.000000
357929.000000
358817.000000
359749.000000
360663.000000
361545.000000
362388.000000
363302.000000
364246.000000
365156.000000
366020.000000
366880.000000
367774.000000
368691.000000
369558.000000
370392.000000
371259.000000
372183.000000
373112.000000
373975.000000
374826.000000
375747.000000
376686.000000
377562.000000
378401.000000
379289.000000
380220.000000
381142.000000
382016.000000
382886.000000
383816.000000
384751.000000
385655.000000
386500.000000
387390.000000
388310.000000
389234.000000
390101.000000
390976.000000
391885.000000
392818.000000
393696.000000
394539.000000
395413.000000
396340.000000
397269.000000
398155.000000
399021.000000
399928.000000
400853.000000
401733.000000
402587.000000
403501.000000
404421.000000
405315.000000
406175.000000
407060.000000
407990.000000
408924.000000
409799.000000
410641.000000
411528.000000
412436.000000
413345.000000
414220.000000
415046.000000
415905.000000
416822.000000
417746.000000
418657.000000
419503.000000
420364.000000
421292.000000
422205.000000
423064.000000
423931.000000
424874.000000
425830.000000
426714.000000
427589.000000
428523.000000
429477.000000
430382.000000
431249.000000
432159.000000
433101.000000
434035.000000
434908.000000
435785.000000
436716.000000
437664.000000
438590.000000
439454.000000
440336.000000
441269.000000
442230.000000
443187.000000
444078.000000
444947.000000
445860.000000
446827.000000
447782.000000
448693.000000
449572.000000
450497.000000
451484.000000
452475.000000
453441.000000
454367.000000
455290.000000
456249.000000
457205.000000
458156.000000
459065.000000
459935.000000
460836.000000
461794.000000
462754.000000
463705.000000
464578.000000
465474.000000
466413.000000
467362.000000
468300.000000
469208.000000
470069.000000
470939.000000
471847.000000
472804.000000
473729.000000
474560.000000
475349.000000
476166.000000
477025.000000
477883.000000
478686.000000
479539.000000
480460.000000
481339.000000
482170.000000
483040.000000
483953.000000
484883.000000
485787.000000
486649.000000
487501.000000
488387.000000
489326.000000
490259.000000
491173.000000
492054.000000
492925.000000
493833.000000
494778.000000
495708.000000
496586.000000
497439.000000
498322.000000
499234.000000
500150.000000
501023.000000
501859.000000
502726.000000
503630.000000
504530.000000
505420.000000
506268.000000
507127.000000
508016.000000
508916.000000
509785.000000
510635.000000
511516.000000
512429.000000
513352.000000
514266.000000
515146.000000
516022.000000
516921.000000
517835.000000
518739.000000
519600.000000
520454.000000
521341.000000
522249.000000
523175.000000
524082.000000
524940.000000
525844.000000
526784.000000
527725.000000
528641.000000
529524.000000
530410.000000
531326.000000
532264.000000
533190.000000
534078.000000
534939.000000
535824.000000
536728.000000
537662.000000
538566.000000
539425.000000
540284.000000
541160.000000
542069.000000
542960.000000
543796.000000
544633.000000
545523.000000
546449.000000
547356.000000
548207.000000
549045.000000
549931.000000
550874.000000
551799.000000
552660.000000
553518.000000
554412.000000
555318.000000
556205.000000
557050.000000
557910.000000
558836.000000
559763.000000
560649.000000
561502.000000
562423.000000
563399.000000
564304.000000
565179.000000
566104.000000
567071.000000
568037.000000
568972.000000
569861.000000
570771.000000
571742.000000
572772.000000
573746.000000
574714.000000
575726.000000
576752.000000
577743.000000
578689.000000
579675.000000
580701.000000
581704.000000
582652.000000
583561.000000
584490.000000
585436.000000
586384.000000
587294.000000
588163.000000
589055.000000
589967.000000
590899.000000
591828.000000
592716.000000
593605.000000
594529.000000
595469.000000
596409.000000
597313.000000
598212.000000
599143.000000
600135.000000
601116.000000
602042.000000
602933.000000
603886.000000
604871.000000
605839.000000
606760.000000
607645.000000
608568.000000
609503.000000
610413.000000
611272.000000
612144.000000
613043.000000
613949.000000
614814.000000
615633.000000
616496.000000
617436.000000
618355.000000
619212.000000
620089.000000
621017.000000
621963.000000
622844.000000
623677.000000
624576.000000
625487.000000
626389.000000
627287.000000
628138.000000
628972.000000
629825.000000
630687.000000
631557.000000
632424.000000
633258.000000
634087.000000
634972.000000
635870.000000
636760.000000
637613.000000
638448.000000
639325.000000
640253.000000
641173.000000
642027.000000
642862.000000
643741.000000
644656.000000
645584.000000
646450.000000
647285.000000
648158.000000
648980.000000
649795.000000
650651.000000
651518.000000
652345.000000
653139.000000
653976.000000
654862.000000
655781.000000
656652.000000
657479.000000
658305.000000
659192.000000
660134.000000
661023.000000
661864.000000
662704.000000
663582.000000
664479.000000
665369.000000
666214.000000
667064.000000
667970.000000
668915.000000
669824.000000
670685.000000
671552.000000
672468.000000
673420.000000
674363.000000
675277.000000
676154.000000
677054.000000
677973.000000
678880.000000
679755.000000
680617.000000
681514.000000
682418.000000
683347.000000
684233.000000
685087.000000
685974.000000
686890.000000
687810.000000
688700.000000
689551.000000
690428.000000
691351.000000
692287.000000
693196.000000
694054.000000
694900.000000
695785.000000
696714.000000
697652.000000
698573.000000
699459.000000
700332.000000
701254.000000
702192.000000
703157.000000
704096.000000
704960.000000
705870.000000
706819.000000
707776.000000
708698.000000
709576.000000
710453.000000
711360.000000
712279.000000
713200.000000
714101.000000
714961.000000
715836.000000
716757.000000
717686.000000
718586.000000
719454.000000
720324.000000
721229.000000
722150.000000
723072.000000
723941.000000
724807.000000
725710.000000
726649.000000
727569.000000
728405.000000
729267.000000
730170.000000
731104.000000
732010.000000
732878.000000
733749.000000
734656.000000
735563.000000
736434.000000
737263.000000
738095.000000
738954.000000
739831.000000
740716.000000
741565.000000
742398.000000
743280.000000
744212.000000
745122.000000
745997.000000
746869.000000
747782.000000
748723.000000
749660.000000
750546.000000
751410.000000
752295.000000
753195.000000
754094.000000
754955.000000
755837.000000
756761.000000
757705.000000
758641.000000
759532.000000
760407.000000
761320.000000
762255.000000
763210.000000
764136.000000
765010.000000
765902.000000
766841.000000
767780.000000
768673.000000
769534.000000
770380.000000
771261.000000
772152.000000
773046.000000
773909.000000
774723.000000
775565.000000
776452.000000
777351.000000
778248.000000
779075.000000
779921.000000
780854.000000
781758.000000
782642.000000
783472.000000
784340.000000
785251.000000
786144.000000
787033.000000
787882.000000
788728.000000
789600.000000
790478.000000
791331.000000
792151.000000
792992.000000
793872.000000
794773.000000
795657.000000
796483.000000
797322.000000
798209.000000
799145.000000
800080.000000
800964.000000
801819.000000
802698.000000
803611.000000
804545.000000
805474.000000
806356.000000
807218.000000
808113.000000
809037.000000
809955.000000
810844.000000
811703.000000
812581.000000
813505.000000
814432.000000
815333.000000
816215.000000
817144.000000
818089.000000
819012.000000
819899.000000
820765.000000
821677.000000
822632.000000
823578.000000
824481.000000
825365.000000
826294.000000
827258.000000
828191.000000
829103.000000
830006.000000
830957.000000
831919.000000
832836.000000
833719.000000
834599.000000
835494.000000
836442.000000
837325.000000
838176.000000
839022.000000
839915.000000
840871.000000
841826.000000
842715.000000
843548.000000
844421.000000
845340.000000
846262.000000
847155.000000
848033.000000
848937.000000
849869.000000
850788.000000
851665.000000
852523.000000
853409.000000
854340.000000
855238.000000
856091.000000
856929.000000
857815.000000
858733.000000
859617.000000
860464.000000
861314.000000
862201.000000
863107.000000
864012.000000
864875.000000
865711.000000
866572.000000
867458.000000
868372.000000
869236.000000
870061.000000
870912.000000
871785.000000
872657.000000
873509.000000
874329.000000
875191.000000
876076.000000
876969.000000
877836.000000
878668.000000
879521.000000
880396.000000
881277.000000
882123.000000
882965.000000
883880.000000
884799.000000
885699.000000
886571.000000
887423.000000
888299.000000
889203.000000
890112.000000
890990.000000
891837.000000
892714.000000
893639.000000
894560.000000
895457.000000
896303.000000
897161.000000
898052.000000
898966.000000
899887.000000
900784.000000
901636.000000
902514.000000
903428.000000
904373.000000
905290.000000
906151.000000
907046.000000
907986.000000
908926.000000
909838.000000
910705.000000
911581.000000
912492.000000
913403.000000
914302.000000
915169.000000
916034.000000
916936.000000
917850.000000
918738.000000
919584.000000
920455.000000
921361.000000
922258.000000
923125.000000
923963.000000
924826.000000
925725.000000
926646.000000
927533.000000
928361.000000
929223.000000
930116.000000
931029.000000
931920.000000
932767.000000
933615.000000
934497.000000
935396.000000
936272.000000
937104.000000
937936.000000
938789.000000
939653.000000
940518.000000
941359.000000
942189.000000
943039.000000
943923.000000
944796.000000
945626.000000
946435.000000
947234.000000
948010.000000
948800.000000
949631.000000
950446.000000
951235.000000
952003.000000
952828.000000
953693.000000
954533.000000
955345.000000
956143.000000
956972.000000
957836.000000
958701.000000
959522.000000
960308.000000
961117.000000
961966.000000
962839.000000
963697.000000
964528.000000
965346.000000
966195.000000
967067.000000
967947.000000
968801.000000
969631.000000
970466.000000
971327.000000
972215.000000
973054.000000
973861.000000
974629.000000
975403.000000
976219.000000
977095.000000
978006.000000
978919.000000
979812.000000
980716.000000
981626.000000
982542.000000
983492.000000
984438.000000
985385.000000
986311.000000
987202.000000
988103.000000
989032.000000
989965.000000
990887.000000
991793.000000
992667.000000
993532.000000
994428.000000
995344.000000
996248.000000
997138.000000
997995.000000
998878.000000
999796.000000
1000709.000000
1001597.000000
1002459.000000
1003359.000000
1004285.000000
1005210.000000
1006103.000000
1006955.000000
1007819.000000
1008724.000000
1009658.000000
1010558.000000
1011439.000000
1012318.000000
1013226.000000
1014173.000000
1015122.000000
1016054.000000
1016971.000000
1017853.000000
1018749.000000
1019654.000000
1020570.000000
1021474.000000
1022332.000000
1023209.000000
1024118.000000
1025024.000000
1025910.000000
1026751.000000
1027605.000000
1028498.000000
1029395.000000
1030270.000000
1031116.000000
1031980.000000
1032870.000000
1033779.000000
1034656.000000
1035503.000000
1036366.000000
1037260.000000
1038164.000000
1039040.000000
1039899.000000
1040785.000000
1041684.000000
1042570.000000
1043420.000000
1044259.000000
1045118.000000
1045986.000000
1046834.000000
1047659.000000
1048504.000000
1049391.000000
1050290.000000
1051144.000000
1051970.000000
1052829.000000
1053718.000000
1054596.000000
1055446.000000
1056292.000000
1057175.000000
1058082.000000
1058963.000000
1059792.000000
1060644.000000
1061555.000000
1062474.000000
1063349.000000
1064204.000000
1065089.000000
1066004.000000
1066918.000000
1067806.000000
1068668.000000
1069561.000000
1070456.000000
1071329.000000
1072169.000000
1073022.000000
1073899.000000
1074795.000000
1075655.000000
1076488.000000
1077350.000000
1078234.000000
1079120.000000
1079988.000000
1080837.000000
1081716.000000
1082623.000000
1083503.000000
1084344.000000
1085201.000000
1086091.000000
1086988.000000
1087901.000000
1088791.000000
1089655.000000
1090544.000000
1091483.000000
1092402.000000
1093284.000000
1094175.000000
1095097.000000
1096035.000000
1096944.000000
1097813.000000
1098691.000000
1099594.000000
1100496.000000
1101380.000000
1102229.000000
1103081.000000
1103952.000000
1104831.000000
1105714.000000
1106563.000000
1107429.000000
1108360.000000
1109293.000000
1110226.000000
1111141.000000
1112005.000000
1112926.000000
1113905.000000
1114896.000000
1115841.000000
1116739.000000
1117646.000000
1118587.000000
1119550.000000
1120457.000000
1121326.000000
1122173.000000
1123090.000000
1124014.000000
1124938.000000
1125828.000000
1126689.000000
1127575.000000
1128487.000000
1129394.000000
1130277.000000
1131129.000000
1132005.000000
1132922.000000
1133824.000000
1134686.000000
1135546.000000
1136437.000000
1137343.000000
1138241.000000
1139099.000000
1139947.000000
1140828.000000
1141739.000000
1142620.000000
1143435.000000
1144273.000000
1145155.000000
1146037.000000
1146888.000000
1147712.000000
1148564.000000
1149447.000000
1150340.000000
1151195.000000
1152022.000000
1152881.000000
1153771.000000
1154665.000000
1155543.000000
1156388.000000
1157267.000000
1158192.000000
1159104.000000
1159995.000000
1160893.000000
1161834.000000
1162778.000000
1163696.000000
1164604.000000
1165540.000000
1166508.000000
1167487.000000
1168420.000000
1169324.000000
1170244.000000
1171184.000000
1172133.000000
1173083.000000
1174003.000000
1174894.000000
1175814.000000
1176748.000000
1177682.000000
1178620.000000
1179526.000000
1180408.000000
1181316.000000
1182251.000000
1183197.000000
1184106.000000
1184968.000000
1185871.000000
1186851.000000
1187829.000000
1188777.000000
1189669.000000
1190591.000000
1191558.000000
1192530.000000
1193463.000000
1194361.000000
1195297.000000
1196273.000000
1197266.000000
1198248.000000
1199197.000000
1200117.000000
1201084.000000
1202074.000000
1203058.000000
1204002.000000
1204903.000000
1205853.000000
1206857.000000
1207846.000000
1208822.000000
1209763.000000
1210663.000000
1211610.000000
1212603.000000
1213588.000000
1214554.000000
1215462.000000
1216375.000000
1217378.000000
1218373.000000
1219339.000000
1220262.000000
1221137.000000
1222066.000000
1223059.000000
1224061.000000
1224996.000000
1225903.000000
1226844.000000
1227847.000000
1228844.000000
1229798.000000
1230696.000000
1231656.000000
1232649.000000
1233651.000000
1234602.000000
1235525.000000
1236495.000000
1237485.000000
1238494.000000
1239478.000000
1240427.000000
