ECG (ms)
230.000000
1011.000000
1778.000000
2576.000000
3373.000000
4136.000000
4916.000000
5714.000000
6474.000000
7226.000000
7995.000000
8756.000000
9495.000000
10246.000000
11035.000000
11783.000000
12478.000000
13185.000000
13933.000000
14668.000000
15378.000000
16137.000000
17040.000000
17821.000000
18559.000000
19335.000000
20101.000000
20844.000000
21601.000000
22340.000000
23052.000000
23747.000000
24463.000000
25232.000000
25956.000000
26710.000000
27474.000000
28181.000000
28907.000000
29692.000000
30420.000000
31158.000000
31957.000000
32721.000000
33434.000000
34222.000000
35057.000000
35794.000000
36552.000000
37374.000000
38144.000000
38867.000000
39642.000000
40424.000000
41154.000000
41930.000000
42753.000000
43490.000000
44238.000000
45094.000000
45878.000000
46610.000000
47379.000000
48162.000000
48878.000000
49612.000000
50391.000000
51147.000000
51889.000000
52673.000000
53493.000000
54232.000000
54970.000000
55761.000000
56614.000000
57413.000000
58165.000000
58900.000000
59670.000000
60414.000000
61151.000000
62034.000000
62807.000000
63548.000000
64367.000000
65294.000000
66090.000000
66843.000000
67617.000000
68474.000000
69343.000000
70135.000000
70878.000000
71810.000000
72820.000000
73641.000000
74415.000000
75277.000000
76103.000000
76868.000000
77744.000000
78599.000000
79443.000000
80272.000000
81119.000000
81953.000000
82714.000000
83559.000000
84374.000000
85198.000000
85997.000000
86806.000000
87636.000000
88459.000000
89219.000000
90072.000000
90894.000000
91732.000000
92534.000000
93291.000000
94154.000000
94982.000000
95735.000000
96583.000000
97401.000000
98220.000000
99038.000000
99796.000000
100592.000000
101457.000000
102290.000000
103118.000000
103937.000000
104753.000000
105501.000000
106284.000000
107079.000000
107900.000000
108792.000000
109636.000000
110467.000000
111240.000000
112106.000000
112944.000000
113764.000000
114520.000000
115324.000000
116183.000000
117005.000000
117826.000000
118586.000000
119393.000000
120246.000000
121053.000000
121856.000000
122636.000000
123420.000000
124207.000000
124987.000000
125698.000000
126402.000000
127106.000000
127804.000000
128555.000000
129357.000000
130152.000000
130948.000000
131661.000000
132363.000000
133076.000000
133856.000000
134627.000000
135377.000000
136088.000000
136800.000000
137573.000000
138364.000000
139094.000000
139800.000000
140537.000000
141325.000000
142131.000000
142975.000000
143737.000000
144461.000000
145191.000000
145991.000000
146821.000000
147616.000000
148431.000000
149151.000000
149858.000000
150589.000000
151458.000000
152274.000000
153036.000000
153806.000000
154570.000000
155297.000000
156056.000000
156771.000000
157474.000000
158233.000000
159190.000000
160165.000000
160980.000000
161761.000000
162542.000000
163299.000000
164013.000000
164703.000000
165396.000000
166213.000000
167236.000000
168080.000000
168879.000000
169685.000000
170462.000000
171222.000000
172160.000000
173028.000000
173879.000000
174724.000000
175594.000000
176458.000000
177294.000000
178093.000000
178969.000000
179805.000000
180626.000000
181443.000000
182258.000000
183066.000000
183856.000000
184608.000000
185444.000000
186239.000000
187042.000000
187848.000000
188632.000000
189435.000000
190238.000000
191049.000000
191846.000000
192620.000000
193357.000000
194181.000000
194973.000000
195781.000000
196578.000000
197369.000000
198117.000000
198957.000000
199768.000000
200576.000000
201380.000000
202163.000000
202905.000000
203743.000000
204548.000000
205361.000000
206176.000000
206971.000000
207724.000000
208569.000000
209376.000000
210191.000000
210980.000000
211729.000000
212565.000000
213369.000000
214173.000000
214962.000000
215712.000000
216555.000000
217376.000000
218189.000000
218982.000000
219743.000000
220576.000000
221372.000000
222147.000000
222859.000000
223608.000000
224389.000000
225143.000000
225854.000000
226584.000000
227350.000000
228122.000000
228852.000000
229562.000000
230291.000000
231057.000000
231815.000000
232552.000000
233276.000000
234020.000000
234763.000000
235499.000000
236221.000000
236921.000000
237622.000000
238338.000000
239073.000000
239772.000000
240452.000000
241141.000000
241819.000000
242495.000000
243186.000000
243927.000000
244706.000000
245464.000000
246180.000000
246877.000000
247582.000000
248334.000000
249141.000000
249924.000000
250671.000000
251393.000000
252115.000000
252910.000000
253759.000000
254583.000000
255340.000000
256074.000000
256797.000000
257566.000000
258405.000000
259231.000000
259993.000000
260756.000000
261521.000000
262397.000000
263398.000000
264226.000000
264991.000000
265737.000000
266500.000000
267317.000000
268163.000000
268944.000000
269697.000000
270489.000000
271335.000000
272115.000000
272853.000000
273585.000000
274395.000000
275234.000000
276010.000000
276742.000000
277484.000000
278271.000000
279061.000000
279795.000000
280511.000000
281224.000000
281949.000000
282720.000000
283453.000000
284167.000000
284860.000000
285615.000000
286412.000000
287252.000000
288021.000000
288742.000000
289438.000000
290135.000000
290861.000000
291584.000000
292290.000000
292977.000000
293667.000000
294365.000000
295047.000000
295741.000000
296490.000000
297262.000000
298069.000000
298806.000000
299534.000000
300318.000000
301201.000000
302127.000000
302935.000000
303721.000000
304546.000000
305494.000000
306290.000000
307040.000000
307793.000000
308577.000000
309313.000000
310039.000000
310765.000000
311524.000000
312287.000000
313010.000000
313731.000000
314469.000000
315221.000000
315962.000000
316681.000000
317379.000000
318086.000000
318831.000000
319569.000000
320329.000000
321051.000000
321768.000000
322505.000000
323352.000000
324156.000000
324974.000000
325844.000000
326861.000000
327726.000000
328494.000000
329251.000000
330081.000000
330913.000000
331698.000000
332432.000000
333179.000000
333976.000000
334813.000000
335558.000000
336306.000000
337120.000000
337956.000000
338752.000000
339488.000000
340238.000000
341073.000000
341907.000000
342676.000000
343431.000000
344311.000000
345228.000000
346024.000000
346789.000000
347597.000000
348401.000000
349198.000000
349923.000000
350649.000000
351410.000000
352243.000000
353051.000000
353783.000000
354528.000000
355350.000000
356160.000000
356897.000000
357625.000000
358437.000000
359293.000000
360055.000000
360782.000000
361517.000000
362278.000000
363054.000000
363788.000000
364499.000000
365218.000000
365955.000000
366699.000000
367401.000000
368120.000000
368898.000000
369677.000000
370417.000000
371137.000000
371875.000000
372632.000000
373383.000000
374104.000000
374808.000000
375538.000000
376279.000000
377027.000000
377732.000000
378415.000000
379116.000000
379813.000000
380513.000000
381273.000000
382098.000000
382889.000000
383626.000000
384334.000000
385013.000000
385712.000000
386489.000000
387509.000000
388366.000000
389201.000000
390018.000000
390848.000000
391689.000000
392528.000000
393354.000000
394147.000000
395015.000000
395861.000000
396695.000000
397518.000000
398376.000000
399237.000000
400081.000000
400875.000000
401758.000000
402586.000000
403396.000000
404214.000000
405044.000000
405863.000000
406673.000000
407467.000000
408261.000000
409055.000000
409803.000000
410521.000000
411255.000000
411970.000000
412744.000000
413619.000000
414450.000000
415187.000000
415932.000000
416804.000000
417643.000000
418400.000000
419131.000000
419931.000000
420728.000000
421458.000000
422180.000000
422990.000000
423821.000000
424573.000000
425303.000000
426090.000000
426910.000000
427671.000000
428411.000000
429193.000000
430037.000000
430769.000000
431484.000000
432211.000000
433005.000000
433833.000000
434607.000000
435346.000000
436169.000000
437011.000000
437749.000000
438471.000000
439213.000000
439999.000000
440841.000000
441601.000000
442344.000000
443150.000000
444003.000000
444795.000000
445535.000000
446256.000000
447022.000000
447865.000000
448636.000000
449357.000000
450117.000000
450931.000000
451726.000000
452467.000000
453183.000000
453919.000000
454762.000000
455569.000000
456328.000000
457043.000000
457769.000000
458558.000000
459371.000000
460132.000000
460857.000000
461617.000000
462404.000000
463201.000000
463930.000000
464653.000000
465424.000000
466264.000000
467079.000000
467818.000000
468596.000000
469450.000000
470235.000000
470966.000000
471678.000000
472403.000000
473169.000000
473960.000000
474696.000000
475437.000000
476283.000000
477205.000000
478016.000000
478765.000000
479491.000000
480184.000000
480880.000000
481586.000000
482278.000000
482974.000000
483730.000000
484520.000000
485267.000000
486001.000000
486790.000000
487582.000000
488321.000000
489040.000000
489785.000000
490562.000000
491290.000000
492024.000000
492783.000000
493577.000000
494335.000000
495063.000000
495812.000000
496589.000000
497309.000000
498015.000000
498753.000000
499609.000000
500487.000000
501282.000000
502042.000000
502863.000000
503698.000000
504476.000000
505211.000000
506023.000000
506884.000000
507671.000000
508399.000000
509137.000000
509946.000000
510772.000000
511536.000000
512269.000000
513021.000000
513825.000000
514673.000000
515485.000000
516229.000000
517019.000000
517868.000000
518623.000000
519391.000000
520288.000000
521137.000000
521919.000000
522674.000000
523486.000000
524330.000000
525081.000000
525843.000000
526631.000000
527422.000000
528161.000000
528913.000000
529757.000000
530766.000000
531611.000000
532441.000000
533284.000000
534059.000000
534781.000000
535519.000000
536337.000000
537152.000000
537930.000000
538659.000000
539389.000000
540147.000000
540952.000000
541730.000000
542448.000000
543159.000000
543897.000000
544789.000000
545606.000000
546366.000000
547098.000000
547841.000000
548644.000000
549433.000000
550182.000000
550932.000000
551737.000000
552548.000000
553275.000000
553974.000000
554682.000000
555372.000000
556061.000000
556777.000000
557553.000000
558276.000000
558985.000000
559699.000000
560432.000000
561212.000000
561933.000000
562631.000000
563344.000000
564092.000000
564863.000000
565595.000000
566309.000000
567034.000000
567833.000000
568740.000000
569552.000000
570302.000000
571073.000000
571879.000000
572676.000000
573403.000000
574153.000000
574996.000000
575836.000000
576606.000000
577342.000000
578121.000000
578941.000000
579758.000000
580517.000000
581308.000000
582225.000000
583068.000000
583827.000000
584569.000000
585376.000000
586164.000000
586913.000000
587635.000000
588363.000000
589144.000000
590021.000000
590828.000000
591572.000000
592293.000000
593028.000000
593782.000000
594575.000000
595344.000000
596083.000000
596802.000000
597537.000000
598322.000000
599190.000000
599964.000000
600683.000000
601437.000000
602256.000000
603011.000000
603728.000000
604457.000000
605233.000000
605998.000000
606718.000000
607440.000000
608173.000000
608912.000000
609614.000000
610326.000000
611040.000000
611739.000000
612448.000000
613190.000000
613938.000000
614638.000000
615335.000000
616069.000000
616900.000000
617684.000000
618411.000000
619158.000000
619991.000000
620823.000000
621583.000000
622316.000000
623096.000000
623889.000000
624685.000000
625414.000000
626158.000000
626947.000000
627753.000000
628492.000000
629232.000000
630096.000000
630940.000000
631693.000000
632424.000000
633186.000000
633974.000000
634734.000000
635456.000000
636191.000000
636986.000000
637779.000000
638513.000000
639225.000000
639927.000000
640672.000000
641528.000000
642399.000000
643251.000000
644015.000000
644744.000000
645500.000000
646351.000000
647119.000000
647843.000000
648631.000000
649545.000000
650399.000000
651172.000000
651947.000000
652771.000000
653614.000000
654387.000000
655126.000000
655856.000000
656658.000000
657493.000000
658263.000000
658993.000000
659858.000000
660738.000000
661575.000000
662329.000000
663037.000000
663766.000000
664577.000000
665433.000000
666256.000000
667013.000000
667795.000000
668655.000000
669495.000000
670256.000000
670977.000000
671727.000000
672549.000000
673402.000000
674186.000000
674915.000000
675663.000000
676486.000000
677307.000000
678043.000000
678761.000000
679494.000000
680275.000000
681037.000000
681778.000000
682520.000000
683300.000000
684076.000000
684789.000000
685484.000000
686179.000000
686858.000000
687546.000000
688281.000000
689069.000000
689790.000000
690508.000000
691280.000000
692052.000000
692780.000000
693499.000000
694257.000000
695027.000000
695746.000000
696462.000000
697200.000000
697968.000000
698681.000000
699408.000000
700194.000000
701035.000000
701790.000000
702531.000000
703280.000000
704045.000000
704769.000000
705480.000000
706215.000000
707010.000000
707752.000000
708498.000000
709392.000000
710209.000000
710951.000000
711664.000000
712394.000000
713105.000000
713797.000000
714480.000000
715239.000000
716020.000000
716773.000000
717592.000000
718430.000000
719168.000000
719927.000000
720756.000000
721494.000000
722221.000000
722993.000000
723793.000000
724561.000000
725407.000000
726228.000000
726979.000000
727823.000000
728600.000000
729345.000000
730098.000000
730846.000000
731546.000000
732237.000000
733013.000000
733773.000000
734509.000000
735347.000000
736212.000000
737046.000000
737787.000000
738528.000000
739376.000000
740220.000000
740984.000000
741734.000000
742595.000000
743569.000000
744386.000000
745156.000000
745970.000000
746859.000000
747651.000000
748430.000000
749272.000000
750250.000000
751055.000000
751835.000000
752652.000000
753544.000000
754325.000000
755067.000000
755840.000000
756894.000000
757770.000000
758550.000000
759420.000000
760257.000000
761075.000000
761832.000000
762663.000000
763488.000000
764270.000000
765057.000000
765879.000000
766671.000000
767446.000000
768265.000000
769132.000000
769936.000000
770736.000000
771564.000000
772411.000000
773232.000000
774055.000000
774847.000000
775655.000000
776476.000000
777257.000000
778053.000000
778877.000000
779687.000000
780508.000000
781302.000000
782112.000000
782890.000000
783672.000000
784471.000000
785239.000000
785995.000000
786768.000000
787532.000000
788292.000000
789072.000000
789869.000000
790647.000000
791453.000000
792278.000000
793073.000000
793901.000000
794752.000000
795566.000000
796387.000000
797237.000000
798116.000000
798925.000000
799719.000000
800535.000000
801352.000000
802135.000000
802943.000000
803774.000000
804573.000000
805359.000000
806176.000000
807008.000000
807817.000000
808598.000000
809392.000000
810199.000000
810977.000000
811758.000000
812564.000000
813385.000000
814155.000000
814929.000000
815705.000000
816463.000000
817209.000000
817986.000000
818771.000000
819550.000000
820309.000000
821061.000000
821836.000000
822591.000000
823302.000000
824017.000000
824751.000000
825483.000000
826176.000000
826867.000000
827547.000000
828239.000000
828978.000000
829756.000000
830481.000000
831181.000000
831885.000000
832593.000000
833282.000000
833952.000000
834640.000000
835401.000000
836161.000000
836894.000000
837688.000000
838531.000000
839344.000000
840081.000000
840840.000000
841644.000000
842403.000000
843136.000000
843901.000000
844705.000000
845442.000000
846201.000000
847020.000000
847779.000000
848516.000000
849332.000000
850207.000000
850957.000000
851712.000000
852528.000000
853348.000000
854105.000000
854924.000000
855774.000000
856548.000000
857313.000000
858116.000000
858889.000000
859627.000000
860412.000000
861293.000000
862044.000000
862817.000000
863711.000000
864525.000000
865355.000000
866297.000000
867175.000000
867957.000000
868740.000000
869568.000000
870477.000000
871313.000000
872117.000000
872913.000000
873766.000000
874678.000000
875488.000000
876248.000000
876999.000000
877759.000000
878483.000000
879204.000000
880002.000000
880744.000000
881492.000000
882349.000000
883177.000000
883971.000000
884708.000000
885445.000000
886221.000000
887028.000000
887767.000000
888484.000000
889216.000000
889992.000000
890845.000000
891595.000000
892343.000000
893126.000000
893975.000000
894767.000000
895511.000000
896271.000000
897151.000000
897951.000000
898703.000000
899449.000000
900261.000000
901222.000000
902121.000000
902920.000000
903670.000000
904430.000000
905271.000000
906212.000000
907092.000000
907888.000000
908697.000000
909745.000000
910649.000000
911444.000000
912333.000000
913184.000000
914006.000000
914779.000000
915577.000000
916394.000000
917170.000000
917913.000000
918669.000000
919414.000000
920186.000000
921004.000000
921827.000000
922602.000000
923390.000000
924192.000000
924985.000000
925752.000000
926536.000000
927356.000000
928185.000000
928982.000000
929756.000000
930539.000000
931360.000000
932188.000000
933053.000000
933877.000000
934662.000000
935447.000000
936286.000000
937146.000000
938004.000000
938805.000000
939602.000000
940412.000000
941282.000000
942173.000000
943060.000000
943889.000000
944675.000000
945478.000000
946318.000000
947166.000000
947970.000000
948775.000000
949621.000000
950457.000000
951236.000000
952007.000000
952802.000000
953636.000000
954482.000000
955291.000000
956091.000000
956917.000000
957782.000000
958654.000000
959463.000000
960267.000000
961101.000000
961960.000000
962766.000000
963555.000000
964370.000000
965199.000000
966015.000000
966796.000000
967582.000000
968395.000000
969242.000000
970033.000000
970822.000000
971654.000000
972482.000000
973273.000000
974068.000000
974878.000000
975675.000000
976440.000000
977210.000000
977996.000000
978791.000000
979559.000000
980317.000000
981092.000000
981891.000000
982656.000000
983406.000000
984175.000000
984938.000000
985674.000000
986438.000000
987257.000000
988024.000000
988764.000000
989533.000000
990352.000000
991253.000000
992080.000000
992855.000000
993697.000000
994620.000000
995488.000000
996273.000000
997082.000000
997885.000000
998638.000000
999385.000000
1000319.000000
1001346.000000
1002227.000000
1003132.000000
1004007.000000
1004843.000000
1005687.000000
1006557.000000
1007433.000000
1008278.000000
1009096.000000
1010018.000000
1010912.000000
1011792.000000
1012648.000000
1013476.000000
1014357.000000
1015272.000000
1016203.000000
1017183.000000
1018106.000000
1019022.000000
1019884.000000
1020705.000000
1021627.000000
1022527.000000
1023420.000000
1024306.000000
1025174.000000
1026011.000000
1026917.000000
1027862.000000
1028770.000000
1029682.000000
1030592.000000
1031462.000000
1032304.000000
1033195.000000
1034109.000000
1035026.000000
1035990.000000
1036904.000000
1037795.000000
1038649.000000
1039467.000000
1040370.000000
1041245.000000
1042126.000000
1043003.000000
1043857.000000
1044662.000000
1045523.000000
1046458.000000
1047371.000000
1048255.000000
1049117.000000
1049982.000000
1050865.000000
1051759.000000
1052633.000000
1053488.000000
1054351.000000
1055228.000000
1056103.000000
1056967.000000
1057774.000000
1058682.000000
1059550.000000
1060428.000000
1061298.000000
1062138.000000
1062947.000000
1063847.000000
1064716.000000
1065610.000000
1066503.000000
1067384.000000
1068289.000000
1069246.000000
1070188.000000
1071084.000000
1071975.000000
1072896.000000
1073819.000000
1074715.000000
1075577.000000
1076465.000000
1077343.000000
1078223.000000
1079072.000000
1079922.000000
1080803.000000
1081694.000000
1082556.000000
1083396.000000
1084249.000000
1085109.000000
1085959.000000
1086784.000000
1087567.000000
1088448.000000
1089330.000000
1090231.000000
1091116.000000
1091970.000000
1092825.000000
1093690.000000
1094543.000000
1095358.000000
1096176.000000
1097017.000000
1097856.000000
1098675.000000
1099510.000000
1100375.000000
1101226.000000
1102064.000000
1102926.000000
1103757.000000
1104594.000000
1105441.000000
1106223.000000
1107084.000000
1107921.000000
1108768.000000
1109599.000000
1110373.000000
1111246.000000
1112096.000000
1112950.000000
1113791.000000
1114569.000000
1115445.000000
1116280.000000
1117111.000000
1117926.000000
1118703.000000
1119591.000000
1120471.000000
1121357.000000
1122225.000000
1123133.000000
1124079.000000
1124996.000000
1125899.000000
1126807.000000
1127694.000000
1128503.000000
1129418.000000
1130313.000000
1131173.000000
1132030.000000
1132923.000000
1133823.000000
1134668.000000
1135531.000000
1136420.000000
1137311.000000
1138176.000000
1138978.000000
1139877.000000
1140746.000000
1141632.000000
1142522.000000
1143375.000000
1144170.000000
1145065.000000
1145941.000000
1146828.000000
1147664.000000
1148500.000000
1149345.000000
1150190.000000
1151015.000000
1151789.000000
1152671.000000
1153527.000000
1154383.000000
1155225.000000
1156001.000000
1156873.000000
1157719.000000
1158563.000000
1159375.000000
1160143.000000
1161007.000000
1161856.000000
1162720.000000
1163573.000000
1164411.000000
1165275.000000
1166141.000000
1166987.000000
1167819.000000
1168674.000000
1169537.000000
1170369.000000
1171200.000000
1172059.000000
1172935.000000
1173769.000000
1174562.000000
1175459.000000
1176332.000000
1177203.000000
1178032.000000
1178878.000000
1179733.000000
1180597.000000
1181431.000000
1182274.000000
1183139.000000
1184000.000000
1184839.000000
1185689.000000
1186574.000000
1187439.000000
1188302.000000
1189094.000000
1189987.000000
1190842.000000
1191700.000000
1192553.000000
1193380.000000
1194215.000000
1195063.000000
1195909.000000
1196736.000000
1197555.000000
1198365.000000
1199076.000000
1199795.000000
1200513.000000
1201220.000000
1201968.000000
1202973.000000
1203835.000000
1204596.000000
1205328.000000
1206122.000000
1206955.000000
1207744.000000
1208646.000000
1209469.000000
1210227.000000
1210987.000000
1211838.000000
1212629.000000
1213406.000000
1214271.000000
1215069.000000
1215795.000000
1216514.000000
1217343.000000
1218244.000000
1219030.000000
