ECG (ms)
265.000000
1212.000000
2125.000000
3101.000000
4122.000000
5123.000000
6023.000000
6861.000000
7688.000000
8589.000000
9630.000000
10677.000000
11629.000000
12465.000000
13277.000000
14202.000000
15225.000000
16295.000000
17310.000000
18254.000000
19131.000000
20040.000000
21100.000000
22216.000000
23284.000000
24352.000000
25409.000000
26449.000000
27467.000000
28450.000000
29402.000000
30299.000000
31230.000000
32281.000000
33367.000000
34425.000000
35456.000000
36461.000000
37422.000000
38352.000000
39231.000000
40087.000000
40987.000000
42060.000000
43111.000000
44136.000000
45149.000000
46157.000000
47150.000000
48129.000000
49088.000000
50009.000000
50863.000000
51702.000000
52529.000000
53456.000000
54504.000000
55528.000000
56571.000000
57579.000000
58522.000000
59405.000000
60274.000000
61155.000000
62073.000000
63047.000000
64079.000000
65116.000000
66144.000000
67158.000000
68153.000000
69131.000000
70104.000000
71050.000000
71944.000000
72786.000000
73598.000000
74462.000000
75468.000000
76482.000000
77513.000000
78539.000000
79532.000000
80500.000000
81471.000000
82432.000000
83370.000000
84295.000000
85213.000000
86139.000000
87065.000000
87962.000000
88853.000000
89782.000000
90756.000000
91760.000000
92781.000000
93792.000000
94808.000000
95805.000000
96791.000000
97766.000000
98697.000000
99582.000000
100423.000000
101222.000000
102024.000000
102870.000000
103871.000000
104913.000000
105966.000000
106996.000000
107988.000000
108957.000000
109912.000000
110861.000000
111812.000000
112765.000000
113690.000000
114573.000000
115441.000000
116322.000000
117253.000000
118239.000000
119230.000000
120224.000000
121225.000000
122219.000000
123199.000000
124158.000000
125106.000000
126058.000000
127029.000000
128021.000000
128985.000000
129879.000000
130758.000000
131662.000000
132601.000000
133583.000000
134575.000000
135568.000000
136536.000000
137491.000000
138446.000000
139392.000000
140331.000000
141215.000000
142054.000000
142829.000000
143655.000000
144651.000000
145977.000000
147173.000000
148358.000000
149515.000000
150636.000000
151679.000000
152613.000000
153502.000000
154429.000000
155498.000000
156557.000000
157573.000000
158581.000000
159579.000000
160562.000000
161527.000000
162454.000000
163335.000000
164209.000000
165095.000000
166015.000000
166974.000000
167942.000000
168918.000000
169919.000000
170918.000000
171925.000000
172871.000000
173771.000000
174672.000000
175616.000000
176602.000000
177576.000000
178546.000000
179514.000000
180483.000000
181446.000000
182347.000000
183205.000000
184054.000000
184899.000000
185817.000000
186784.000000
187803.000000
188829.000000
189872.000000
190906.000000
191878.000000
192761.000000
193612.000000
194460.000000
195306.000000
196273.000000
197322.000000
198435.000000
199533.000000
200628.000000
201720.000000
202737.000000
203659.000000
204536.000000
205375.000000
206203.000000
207103.000000
208094.000000
209110.000000
210150.000000
211195.000000
212235.000000
213282.000000
214257.000000
215156.000000
216022.000000
216882.000000
217790.000000
218797.000000
219817.000000
220874.000000
221917.000000
222949.000000
223933.000000
224868.000000
225741.000000
226548.000000
227341.000000
228147.000000
229064.000000
230086.000000
231130.000000
232162.000000
233185.000000
234163.000000
235086.000000
235958.000000
236794.000000
237600.000000
238408.000000
239276.000000
240252.000000
241258.000000
242133.000000
242971.000000
243858.000000
244784.000000
245698.000000
246562.000000
247394.000000
248223.000000
249099.000000
250008.000000
250946.000000
251880.000000
252831.000000
253778.000000
254713.000000
255623.000000
256552.000000
257490.000000
258424.000000
259320.000000
260173.000000
261053.000000
262033.000000
263063.000000
264050.000000
265026.000000
266012.000000
266971.000000
267903.000000
268813.000000
269680.000000
270520.000000
271354.000000
272240.000000
273285.000000
274375.000000
275459.000000
276500.000000
277522.000000
278526.000000
279526.000000
280537.000000
281493.000000
282387.000000
283218.000000
284024.000000
284853.000000
285777.000000
286850.000000
287941.000000
289007.000000
290049.000000
291055.000000
292027.000000
292997.000000
293920.000000
294772.000000
295588.000000
296414.000000
297331.000000
298380.000000
299445.000000
300502.000000
301551.000000
302528.000000
303412.000000
304229.000000
305028.000000
305818.000000
306704.000000
307912.000000
309135.000000
310291.000000
311398.000000
312490.000000
313535.000000
314553.000000
315517.000000
316421.000000
317272.000000
318104.000000
318964.000000
319934.000000
320965.000000
321936.000000
322912.000000
323906.000000
324889.000000
325845.000000
326765.000000
327657.000000
328533.000000
329403.000000
330301.000000
331249.000000
332227.000000
333216.000000
334205.000000
335188.000000
336171.000000
337146.000000
338101.000000
339020.000000
339916.000000
340789.000000
341703.000000
342679.000000
343682.000000
344697.000000
345709.000000
346734.000000
347740.000000
348718.000000
349662.000000
350562.000000
351428.000000
352278.000000
353120.000000
354060.000000
355022.000000
355980.000000
356962.000000
357939.000000
358917.000000
359884.000000
360843.000000
361773.000000
362661.000000
363514.000000
364321.000000
365136.000000
366095.000000
367070.000000
368072.000000
369083.000000
370077.000000
371079.000000
372075.000000
373069.000000
374010.000000
374907.000000
375769.000000
376624.000000
377568.000000
378576.000000
379562.000000
380546.000000
381537.000000
382527.000000
383481.000000
384408.000000
385275.000000
386126.000000
386985.000000
387933.000000
388915.000000
389945.000000
390954.000000
391936.000000
392908.000000
393877.000000
394849.000000
395810.000000
396748.000000
397647.000000
398500.000000
399360.000000
400352.000000
401408.000000
402424.000000
403428.000000
404469.000000
405497.000000
406492.000000
407462.000000
408390.000000
409270.000000
410156.000000
411067.000000
412063.000000
413073.000000
414065.000000
415045.000000
416000.000000
416941.000000
417877.000000
418809.000000
419754.000000
420665.000000
421539.000000
422394.000000
423267.000000
424184.000000
425131.000000
426065.000000
426996.000000
427909.000000
428831.000000
429762.000000
430685.000000
431590.000000
432469.000000
433374.000000
434364.000000
435358.000000
436335.000000
437305.000000
438277.000000
439221.000000
440129.000000
440999.000000
441884.000000
442814.000000
443766.000000
444750.000000
445735.000000
446698.000000
447616.000000
448490.000000
449341.000000
450231.000000
451193.000000
452181.000000
453166.000000
454134.000000
455059.000000
455951.000000
456828.000000
457736.000000
458672.000000
459614.000000
460550.000000
461508.000000
462472.000000
463384.000000
464260.000000
465167.000000
466092.000000
467012.000000
467931.000000
468823.000000
469696.000000
470624.000000
471583.000000
472534.000000
473482.000000
474440.000000
475361.000000
476237.000000
477143.000000
478074.000000
479036.000000
479968.000000
480870.000000
481741.000000
482616.000000
483521.000000
484465.000000
485402.000000
486353.000000
487313.000000
488258.000000
489182.000000
490067.000000
490925.000000
491790.000000
492700.000000
493694.000000
494706.000000
495710.000000
496704.000000
497668.000000
498615.000000
499556.000000
500476.000000
501354.000000
502215.000000
503111.000000
504067.000000
505054.000000
506043.000000
507019.000000
507978.000000
508937.000000
509896.000000
510836.000000
511733.000000
512602.000000
513509.000000
514485.000000
515481.000000
516514.000000
517489.000000
518390.000000
519235.000000
520083.000000
520999.000000
521987.000000
523029.000000
524072.000000
525111.000000
526071.000000
526994.000000
527966.000000
528978.000000
529991.000000
531009.000000
532029.000000
533035.000000
534015.000000
534958.000000
535858.000000
536793.000000
537771.000000
538783.000000
539788.000000
540780.000000
541748.000000
542659.000000
543537.000000
544433.000000
545368.000000
546375.000000
547404.000000
548437.000000
549428.000000
550364.000000
551297.000000
552288.000000
553314.000000
554348.000000
555383.000000
556403.000000
557372.000000
558286.000000
559162.000000
560081.000000
561084.000000
562112.000000
563149.000000
564181.000000
565196.000000
566144.000000
567026.000000
567870.000000
568710.000000
569546.000000
570512.000000
571513.000000
572489.000000
573497.000000
574516.000000
575512.000000
576497.000000
577452.000000
578342.000000
579203.000000
580094.000000
581016.000000
581961.000000
582920.000000
583869.000000
584802.000000
585715.000000
586599.000000
587506.000000
588450.000000
589417.000000
590412.000000
591413.000000
592384.000000
593309.000000
594172.000000
595026.000000
595910.000000
596861.000000
597840.000000
598838.000000
599855.000000
600857.000000
601810.000000
602712.000000
603654.000000
604637.000000
605647.000000
606643.000000
607633.000000
608576.000000
609467.000000
610427.000000
611424.000000
612372.000000
613363.000000
614358.000000
615335.000000
616264.000000
617207.000000
618170.000000
619125.000000
620082.000000
621056.000000
622047.000000
622994.000000
623878.000000
624725.000000
625601.000000
626564.000000
627577.000000
628574.000000
629567.000000
630535.000000
631448.000000
632324.000000
633215.000000
634143.000000
635109.000000
636060.000000
637015.000000
637933.000000
638828.000000
639759.000000
640725.000000
641725.000000
642742.000000
643731.000000
644683.000000
645592.000000
646480.000000
647404.000000
648380.000000
649415.000000
650441.000000
651445.000000
652396.000000
653324.000000
654295.000000
655317.000000
656348.000000
657389.000000
658354.000000
659280.000000
660253.000000
661261.000000
662294.000000
663284.000000
664222.000000
665202.000000
666195.000000
667200.000000
668198.000000
669165.000000
670078.000000
671047.000000
672048.000000
673044.000000
674008.000000
674925.000000
675794.000000
676666.000000
677599.000000
678593.000000
679605.000000
680653.000000
681684.000000
682629.000000
683584.000000
684559.000000
685526.000000
686481.000000
687457.000000
688437.000000
689423.000000
690381.000000
691289.000000
692202.000000
693173.000000
694200.000000
695226.000000
696192.000000
697187.000000
698178.000000
699181.000000
700178.000000
701094.000000
701962.000000
702856.000000
703848.000000
704886.000000
705906.000000
706878.000000
707770.000000
708633.000000
709504.000000
710438.000000
711435.000000
712439.000000
713469.000000
714430.000000
715357.000000
716343.000000
717340.000000
718351.000000
719313.000000
720230.000000
721119.000000
722040.000000
723010.000000
723981.000000
724929.000000
725881.000000
726865.000000
727875.000000
728866.000000
729805.000000
730694.000000
731611.000000
732566.000000
733562.000000
734523.000000
735420.000000
736280.000000
737140.000000
738039.000000
738971.000000
739895.000000
740807.000000
741670.000000
742512.000000
743380.000000
744272.000000
745191.000000
746112.000000
747050.000000
747963.000000
748835.000000
749680.000000
750510.000000
751356.000000
752240.000000
753198.000000
754149.000000
755105.000000
756048.000000
757006.000000
757942.000000
758844.000000
759747.000000
760690.000000
761672.000000
762629.000000
763588.000000
764534.000000
765463.000000
766378.000000
767332.000000
768347.000000
769362.000000
770430.000000
771486.000000
772467.000000
773447.000000
774439.000000
775427.000000
776432.000000
777468.000000
778421.000000
779339.000000
780309.000000
781350.000000
782379.000000
783337.000000
784238.000000
785185.000000
786174.000000
787161.000000
788059.000000
788986.000000
789956.000000
790927.000000
791841.000000
792705.000000
793577.000000
794497.000000
795471.000000
796456.000000
797418.000000
798331.000000
799280.000000
800296.000000
801344.000000
802387.000000
803376.000000
804287.000000
805213.000000
806198.000000
807222.000000
808246.000000
809218.000000
810237.000000
811289.000000
812312.000000
813277.000000
814256.000000
815241.000000
816227.000000
817185.000000
818114.000000
819116.000000
820155.000000
821232.000000
822223.000000
823124.000000
824030.000000
824975.000000
825942.000000
826898.000000
827823.000000
828702.000000
829569.000000
830468.000000
831446.000000
832470.000000
833504.000000
834481.000000
835370.000000
836233.000000
837134.000000
838115.000000
839141.000000
840194.000000
841209.000000
842278.000000
843331.000000
844333.000000
845305.000000
846201.000000
847129.000000
848159.000000
849217.000000
850203.000000
851221.000000
852301.000000
853396.000000
854414.000000
855381.000000
856315.000000
857285.000000
858306.000000
859354.000000
860352.000000
861290.000000
862246.000000
863272.000000
864353.000000
865417.000000
866423.000000
867457.000000
868503.000000
869544.000000
870533.000000
871466.000000
872435.000000
873438.000000
874425.000000
875386.000000
876420.000000
877469.000000
878456.000000
879400.000000
880433.000000
881428.000000
882424.000000
883359.000000
884276.000000
885303.000000
886355.000000
887367.000000
888310.000000
889293.000000
890306.000000
891296.000000
892267.000000
893262.000000
894282.000000
895239.000000
896181.000000
897171.000000
898173.000000
899134.000000
