ECG (ms)
815.000000
1860.000000
2929.000000
4008.000000
5154.000000
6306.000000
7430.000000
8555.000000
9634.000000
10688.000000
11794.000000
12911.000000
14010.000000
15124.000000
16207.000000
17258.000000
18284.000000
19265.000000
20259.000000
21273.000000
22309.000000
23253.000000
24235.000000
25279.000000
26372.000000
27476.000000
28552.000000
29602.000000
30681.000000
31784.000000
32845.000000
33909.000000
34967.000000
35951.000000
36955.000000
38052.000000
39226.000000
40456.000000
41630.000000
42716.000000
43781.000000
44796.000000
45768.000000
46712.000000
47582.000000
48557.000000
49758.000000
50944.000000
52085.000000
53168.000000
54250.000000
55283.000000
56273.000000
57222.000000
58142.000000
59087.000000
60068.000000
61131.000000
62213.000000
63281.000000
64350.000000
65362.000000
66300.000000
67211.000000
68194.000000
69226.000000
70256.000000
71344.000000
72459.000000
73544.000000
74560.000000
75554.000000
76478.000000
77365.000000
78254.000000
79160.000000
79999.000000
80832.000000
81702.000000
82607.000000
83582.000000
84604.000000
85569.000000
86505.000000
87453.000000
88411.000000
89352.000000
90304.000000
91322.000000
92356.000000
93347.000000
94395.000000
95403.000000
96332.000000
97262.000000
98219.000000
99177.000000
100151.000000
101214.000000
102348.000000
103460.000000
104582.000000
105660.000000
106640.000000
107606.000000
108565.000000
109508.000000
110489.000000
111511.000000
112681.000000
113803.000000
114875.000000
115961.000000
116985.000000
117949.000000
118894.000000
119837.000000
120754.000000
121702.000000
122935.000000
124138.000000
125298.000000
126427.000000
127454.000000
128462.000000
129479.000000
130508.000000
131669.000000
132923.000000
134104.000000
135279.000000
136418.000000
137446.000000
138424.000000
139355.000000
140313.000000
141521.000000
142737.000000
143886.000000
144994.000000
146104.000000
147176.000000
148160.000000
149067.000000
150035.000000
151255.000000
152486.000000
153697.000000
154842.000000
155879.000000
156865.000000
157839.000000
158788.000000
159686.000000
160666.000000
161787.000000
162910.000000
164000.000000
165075.000000
166056.000000
166995.000000
167961.000000
168967.000000
169971.000000
171008.000000
172072.000000
173140.000000
174168.000000
175171.000000
176186.000000
177192.000000
178108.000000
179028.000000
180051.000000
181203.000000
182268.000000
183389.000000
184477.000000
185487.000000
186534.000000
187593.000000
188559.000000
189569.000000
190677.000000
191794.000000
192843.000000
193863.000000
194743.000000
195575.000000
196398.000000
197226.000000
198077.000000
198984.000000
199961.000000
200913.000000
201925.000000
203012.000000
204025.000000
204944.000000
205843.000000
206793.000000
207836.000000
208903.000000
210030.000000
211163.000000
212235.000000
213242.000000
214230.000000
215214.000000
216187.000000
217179.000000
218203.000000
219225.000000
220235.000000
221145.000000
221998.000000
222879.000000
223785.000000
224754.000000
225750.000000
226841.000000
227940.000000
228994.000000
230061.000000
231110.000000
232163.000000
233161.000000
234152.000000
235166.000000
236113.000000
237011.000000
237951.000000
239011.000000
240130.000000
241235.000000
242257.000000
243289.000000
244330.000000
245348.000000
246405.000000
247473.000000
248527.000000
249507.000000
250464.000000
251477.000000
252531.000000
253573.000000
254686.000000
255807.000000
256930.000000
258005.000000
259077.000000
260115.000000
261063.000000
262090.000000
263199.000000
264300.000000
265491.000000
266656.000000
267775.000000
268913.000000
269975.000000
270970.000000
272021.000000
273124.000000
274227.000000
275315.000000
276454.000000
277577.000000
278664.000000
279736.000000
280795.000000
281863.000000
282975.000000
284006.000000
284941.000000
286046.000000
287225.000000
288247.000000
289319.000000
290383.000000
291352.000000
292342.000000
293422.000000
294554.000000
295682.000000
296640.000000
297500.000000
298363.000000
299237.000000
300134.000000
301100.000000
302086.000000
303014.000000
303975.000000
304965.000000
305935.000000
306934.000000
307970.000000
309021.000000
310012.000000
311007.000000
312045.000000
313089.000000
314164.000000
315235.000000
316288.000000
317294.000000
318249.000000
319222.000000
320236.000000
321330.000000
322475.000000
323589.000000
324665.000000
325707.000000
326762.000000
327880.000000
328994.000000
330053.000000
331127.000000
332147.000000
333053.000000
333956.000000
334936.000000
336124.000000
337225.000000
338406.000000
339580.000000
340613.000000
341619.000000
342693.000000
343759.000000
344755.000000
345847.000000
346981.000000
348084.000000
349291.000000
350382.000000
351295.000000
352180.000000
353084.000000
353966.000000
354904.000000
355887.000000
356816.000000
357669.000000
358528.000000
359397.000000
360296.000000
361258.000000
362376.000000
363534.000000
364644.000000
365718.000000
366800.000000
367867.000000
368898.000000
369911.000000
370914.000000
371952.000000
373054.000000
374197.000000
375358.000000
376470.000000
377531.000000
378542.000000
379516.000000
380448.000000
381507.000000
382807.000000
384029.000000
385097.000000
386182.000000
387299.000000
388390.000000
389371.000000
390380.000000
391524.000000
392679.000000
393832.000000
394989.000000
396092.000000
397175.000000
398286.000000
399399.000000
400499.000000
401611.000000
402743.000000
403843.000000
404930.000000
405959.000000
407007.000000
408123.000000
409223.000000
410285.000000
411388.000000
412483.000000
413499.000000
414511.000000
415394.000000
416244.000000
417141.000000
418056.000000
419088.000000
420292.000000
421491.000000
422592.000000
423692.000000
424788.000000
425869.000000
426992.000000
428114.000000
429228.000000
430365.000000
431509.000000
432660.000000
433735.000000
434835.000000
435987.000000
437137.000000
438246.000000
439359.000000
440491.000000
441609.000000
442624.000000
443725.000000
444906.000000
446052.000000
447238.000000
448380.000000
449407.000000
450444.000000
451552.000000
452657.000000
453762.000000
454910.000000
456003.000000
456985.000000
457959.000000
459056.000000
460286.000000
461527.000000
462754.000000
463914.000000
465101.000000
466231.000000
467313.000000
468416.000000
469523.000000
470611.000000
471666.000000
472823.000000
473945.000000
475022.000000
476074.000000
477124.000000
478140.000000
479219.000000
480389.000000
481481.000000
482596.000000
483675.000000
484694.000000
485707.000000
486730.000000
487710.000000
488737.000000
489836.000000
490922.000000
492069.000000
493170.000000
494155.000000
495121.000000
496087.000000
497096.000000
498346.000000
499542.000000
500677.000000
501812.000000
502945.000000
504060.000000
505201.000000
506340.000000
507479.000000
508599.000000
509852.000000
511062.000000
512231.000000
513319.000000
514453.000000
515544.000000
516647.000000
517841.000000
519025.000000
520184.000000
521294.000000
522353.000000
523402.000000
524571.000000
525782.000000
526942.000000
528125.000000
529274.000000
530306.000000
531354.000000
532393.000000
533431.000000
534585.000000
535819.000000
536983.000000
538114.000000
539216.000000
540257.000000
541309.000000
542442.000000
543598.000000
544703.000000
545802.000000
546904.000000
547966.000000
549043.000000
550192.000000
551384.000000
552442.000000
553435.000000
554463.000000
555490.000000
556503.000000
557676.000000
558771.000000
559715.000000
560603.000000
561527.000000
562445.000000
563469.000000
564513.000000
565512.000000
566544.000000
567577.000000
568567.000000
569583.000000
570637.000000
571700.000000
572714.000000
573760.000000
574851.000000
575890.000000
576976.000000
578114.000000
579238.000000
580280.000000
581378.000000
582505.000000
583630.000000
584771.000000
585936.000000
587100.000000
588226.000000
589397.000000
590553.000000
591652.000000
592754.000000
593847.000000
594929.000000
595991.000000
597084.000000
598251.000000
599339.000000
600403.000000
601446.000000
602422.000000
603390.000000
604422.000000
605577.000000
606677.000000
607818.000000
608939.000000
609985.000000
611042.000000
612129.000000
613225.000000
614329.000000
615468.000000
616573.000000
617652.000000
618719.000000
619819.000000
620901.000000
622178.000000
623443.000000
624627.000000
625809.000000
626949.000000
628012.000000
629092.000000
630171.000000
631248.000000
632178.000000
633159.000000
634241.000000
635152.000000
636019.000000
636888.000000
637809.000000
638798.000000
639799.000000
640782.000000
641842.000000
642873.000000
643813.000000
644733.000000
645652.000000
646540.000000
647415.000000
648353.000000
649361.000000
650352.000000
651416.000000
652512.000000
653529.000000
654528.000000
655522.000000
656479.000000
657513.000000
658697.000000
659865.000000
661024.000000
662180.000000
663348.000000
664503.000000
665672.000000
666793.000000
667908.000000
669031.000000
670208.000000
671385.000000
672499.000000
673593.000000
674662.000000
675698.000000
676727.000000
677894.000000
679079.000000
680162.000000
681284.000000
682413.000000
683422.000000
684391.000000
685522.000000
686685.000000
687736.000000
688927.000000
690082.000000
691176.000000
692350.000000
693508.000000
694622.000000
695757.000000
696878.000000
697966.000000
699140.000000
700344.000000
701512.000000
702598.000000
703708.000000
704854.000000
705997.000000
707122.000000
708343.000000
709561.000000
710674.000000
711808.000000
712955.000000
713986.000000
715028.000000
716217.000000
717289.000000
718379.000000
719611.000000
720709.000000
721809.000000
722931.000000
724009.000000
725123.000000
726234.000000
727347.000000
728467.000000
729590.000000
730709.000000
731813.000000
732923.000000
734060.000000
735210.000000
736327.000000
737486.000000
738647.000000
739803.000000
740983.000000
742186.000000
743329.000000
744550.000000
745764.000000
746905.000000
748032.000000
749154.000000
750233.000000
751383.000000
752535.000000
753610.000000
754736.000000
755892.000000
756950.000000
758002.000000
759054.000000
760116.000000
761196.000000
762293.000000
763573.000000
764862.000000
766004.000000
767131.000000
768054.000000
768930.000000
769799.000000
770694.000000
771620.000000
772547.000000
773461.000000
774442.000000
775417.000000
776395.000000
777452.000000
778557.000000
779655.000000
780782.000000
781923.000000
783072.000000
784185.000000
785321.000000
786469.000000
787650.000000
788826.000000
789985.000000
791128.000000
792226.000000
793344.000000
794547.000000
795685.000000
796752.000000
797902.000000
799072.000000
800165.000000
801320.000000
802482.000000
803559.000000
804648.000000
805799.000000
806924.000000
808059.000000
809228.000000
810384.000000
811542.000000
812850.000000
814112.000000
815326.000000
816566.000000
817809.000000
819062.000000
820250.000000
821463.000000
822708.000000
823945.000000
825221.000000
826446.000000
827624.000000
828774.000000
829868.000000
830990.000000
832163.000000
833284.000000
834434.000000
835599.000000
836710.000000
837778.000000
838850.000000
839875.000000
841042.000000
842247.000000
843343.000000
844533.000000
845717.000000
846792.000000
847884.000000
848977.000000
850081.000000
851138.000000
852267.000000
853407.000000
854518.000000
855606.000000
856712.000000
857824.000000
858889.000000
860183.000000
861457.000000
862722.000000
863979.000000
865181.000000
866387.000000
867556.000000
868617.000000
869673.000000
870740.000000
871754.000000
872813.000000
873911.000000
874992.000000
876063.000000
877141.000000
878126.000000
879084.000000
880029.000000
880957.000000
881995.000000
883156.000000
884315.000000
885463.000000
886582.000000
887621.000000
888568.000000
889557.000000
890659.000000
891796.000000
892901.000000
894036.000000
895159.000000
896305.000000
897485.000000
898663.000000
899733.000000
900773.000000
901833.000000
902911.000000
903927.000000
905084.000000
906298.000000
907503.000000
908744.000000
909891.000000
911005.000000
912098.000000
913166.000000
914172.000000
915260.000000
916653.000000
917922.000000
919223.000000
920467.000000
921637.000000
922802.000000
923999.000000
925251.000000
926439.000000
927470.000000
928591.000000
929972.000000
931252.000000
932620.000000
933860.000000
935095.000000
936381.000000
937588.000000
938713.000000
939830.000000
940883.000000
941870.000000
942939.000000
944175.000000
945334.000000
946388.000000
947474.000000
948563.000000
949578.000000
950534.000000
951404.000000
952269.000000
953114.000000
953997.000000
954960.000000
955994.000000
957072.000000
958192.000000
959275.000000
960291.000000
961305.000000
962340.000000
963400.000000
964433.000000
965495.000000
966625.000000
967748.000000
968893.000000
970000.000000
971137.000000
972262.000000
973369.000000
974543.000000
975727.000000
976920.000000
978121.000000
979306.000000
980452.000000
981466.000000
982579.000000
983935.000000
985212.000000
986523.000000
987711.000000
988907.000000
990021.000000
991049.000000
992061.000000
993097.000000
994171.000000
995407.000000
996657.000000
997836.000000
998866.000000
999928.000000
1001049.000000
1002178.000000
1003388.000000
1004556.000000
1005668.000000
1006860.000000
1008103.000000
1009345.000000
1010575.000000
1011807.000000
1013027.000000
1014279.000000
1015530.000000
1016735.000000
1017905.000000
1019090.000000
1020270.000000
1021416.000000
1022600.000000
1023747.000000
1024763.000000
1025754.000000
1027036.000000
1028257.000000
1029446.000000
1030654.000000
1031797.000000
1032887.000000
1033952.000000
1034940.000000
1035879.000000
1036877.000000
1038062.000000
1039162.000000
1040340.000000
1041537.000000
1042703.000000
1043880.000000
1045056.000000
1046154.000000
1047246.000000
1048347.000000
1049425.000000
1050579.000000
1051764.000000
1052953.000000
1054099.000000
1055233.000000
1056359.000000
1057462.000000
1058542.000000
1059698.000000
1060883.000000
1062029.000000
1063203.000000
1064355.000000
1065426.000000
1066521.000000
1067623.000000
1068708.000000
1069947.000000
1071188.000000
1072348.000000
1073502.000000
1074668.000000
1075777.000000
1077017.000000
1078209.000000
1079352.000000
1080474.000000
1081647.000000
1082829.000000
1083931.000000
1085049.000000
1086161.000000
1087278.000000
1088440.000000
1089758.000000
1091013.000000
1092226.000000
1093450.000000
1094661.000000
1095850.000000
1096978.000000
1098087.000000
1099196.000000
1100258.000000
1101298.000000
1102416.000000
1103445.000000
1104379.000000
1105484.000000
1106803.000000
1107956.000000
1109177.000000
1110307.000000
1111451.000000
1112595.000000
1113688.000000
1114763.000000
1115823.000000
1116794.000000
1117749.000000
1118746.000000
1119825.000000
1120924.000000
1122100.000000
1123289.000000
1124415.000000
1125549.000000
1126675.000000
1127759.000000
1128878.000000
1130027.000000
1131144.000000
1132220.000000
1133437.000000
1134703.000000
1135886.000000
1137108.000000
1138335.000000
1139481.000000
1140588.000000
1141717.000000
1142872.000000
1144233.000000
1145450.000000
1146514.000000
1147554.000000
1148685.000000
1149805.000000
1150974.000000
1152169.000000
1153345.000000
1154453.000000
1155624.000000
1156803.000000
1157903.000000
1158986.000000
1160043.000000
1161065.000000
1162325.000000
1163588.000000
1164820.000000
1166019.000000
1167168.000000
1168231.000000
1169293.000000
1170327.000000
1171300.000000
1172255.000000
1173221.000000
1174120.000000
1174980.000000
1175844.000000
1176799.000000
1177915.000000
1179008.000000
1180171.000000
1181313.000000
1182383.000000
1183391.000000
1184383.000000
1185351.000000
1186288.000000
1187245.000000
1188260.000000
1189284.000000
1190343.000000
1191510.000000
1192685.000000
1193804.000000
1194950.000000
1196094.000000
1197137.000000
1198207.000000
1199263.000000
1200263.000000
1201261.000000
1202304.000000
1203365.000000
1204411.000000
1205478.000000
1206473.000000
1207424.000000
1208366.000000
1209291.000000
1210292.000000
1211439.000000
1212554.000000
1213670.000000
1214752.000000
1215785.000000
1216837.000000
1217843.000000
1218799.000000
1219768.000000
1220793.000000
1221793.000000
1222767.000000
1223753.000000
1224734.000000
1225687.000000
1226689.000000
1227669.000000
1228549.000000
1229386.000000
1230224.000000
1231082.000000
1231991.000000
1232944.000000
1233878.000000
1234797.000000
1235751.000000
1236710.000000
1237626.000000
1238537.000000
1239470.000000
1240419.000000
1241343.000000
1242238.000000
1243165.000000
1244105.000000
1245050.000000
1246090.000000
1247210.000000
1248338.000000
1249457.000000
1250569.000000
1251634.000000
1252660.000000
1253672.000000
1254701.000000
1255786.000000
1256861.000000
1258003.000000
1259138.000000
1260211.000000
1261206.000000
1262260.000000
1263399.000000
1264526.000000
1265701.000000
1266878.000000
1268021.000000
1269119.000000
1270201.000000
1271352.000000
1272493.000000
1273650.000000
1274852.000000
1276001.000000
1277082.000000
1278205.000000
1279382.000000
1280504.000000
1281641.000000
1282712.000000
1283721.000000
1284783.000000
1285993.000000
1287188.000000
1288363.000000
1289564.000000
1290729.000000
1291883.000000
1293062.000000
1294213.000000
1295279.000000
1296376.000000
1297466.000000
1298553.000000
1299522.000000
1300506.000000
1301591.000000
1302698.000000
1303842.000000
1304982.000000
1306060.000000
1307213.000000
1308346.000000
1309389.000000
1310428.000000
1311499.000000
1312568.000000
1313643.000000
1314832.000000
1316068.000000
1317265.000000
1318360.000000
1319468.000000
1320515.000000
1321576.000000
1322761.000000
1323897.000000
1324992.000000
1326085.000000
1327130.000000
1328173.000000
1329235.000000
1330318.000000
1331349.000000
1332455.000000
1333548.000000
1334595.000000
1335599.000000
1336694.000000
1337871.000000
1339052.000000
1340216.000000
1341352.000000
1342450.000000
1343479.000000
1344531.000000
1345658.000000
1346811.000000
1347969.000000
1349177.000000
1350362.000000
1351515.000000
1352687.000000
1353833.000000
1354959.000000
1356105.000000
1357250.000000
1358328.000000
1359421.000000
1360529.000000
1361585.000000
1362771.000000
1364024.000000
1365195.000000
1366287.000000
1367434.000000
1368559.000000
1369637.000000
1370711.000000
1371816.000000
1372865.000000
1373899.000000
1375032.000000
1376201.000000
1377378.000000
1378613.000000
1379793.000000
1380920.000000
1382029.000000
1383097.000000
1384127.000000
1385215.000000
1386367.000000
1387542.000000
1388703.000000
1389873.000000
1390995.000000
1392103.000000
1393263.000000
1394489.000000
1395675.000000
1396872.000000
1398062.000000
1399223.000000
1400473.000000
1401686.000000
1402874.000000
1403986.000000
1405172.000000
1406425.000000
1407679.000000
1408884.000000
1410117.000000
1411323.000000
1412424.000000
1413435.000000
1414457.000000
1415671.000000
1416823.000000
1418117.000000
1419393.000000
1420558.000000
1421647.000000
1422743.000000
1423834.000000
1424869.000000
1425953.000000
1427155.000000
1428355.000000
1429513.000000
1430736.000000
1431890.000000
1432971.000000
1434068.000000
1435146.000000
1436182.000000
1437295.000000
1438488.000000
1439627.000000
1440724.000000
1441865.000000
1442996.000000
1444079.000000
1445138.000000
1446195.000000
1447184.000000
1448199.000000
1449320.000000
1450626.000000
1451924.000000
1453236.000000
1454477.000000
1455585.000000
1456680.000000
1457747.000000
1458793.000000
1459856.000000
1461055.000000
1462291.000000
1463475.000000
1464671.000000
1465814.000000
1466931.000000
1468139.000000
1469345.000000
1470527.000000
1471753.000000
1472991.000000
1474181.000000
1475352.000000
1476502.000000
1477599.000000
1478799.000000
1479977.000000
1481081.000000
1482243.000000
1483394.000000
1484444.000000
1485398.000000
1486258.000000
1487092.000000
1487968.000000
1488845.000000
1489740.000000
1490710.000000
1491740.000000
1492687.000000
1493580.000000
1494506.000000
1495433.000000
1496342.000000
1497230.000000
1498198.000000
1499326.000000
1500380.000000
1501518.000000
1502605.000000
1503578.000000
1504614.000000
1505659.000000
1506726.000000
1507810.000000
1508951.000000
1510106.000000
1511193.000000
1512302.000000
1513428.000000
1514512.000000
1515495.000000
1516447.000000
1517451.000000
1518503.000000
1519583.000000
1520757.000000
1521905.000000
1522978.000000
1524020.000000
1525116.000000
1526184.000000
1527164.000000
1528144.000000
1529181.000000
1530193.000000
1531135.000000
1532108.000000
1532990.000000
1533842.000000
1534743.000000
1535652.000000
1536527.000000
1537395.000000
1538218.000000
1539016.000000
1539824.000000
1540648.000000
1541501.000000
1542449.000000
1543454.000000
1544460.000000
1545520.000000
1546630.000000
1547688.000000
1548707.000000
1549726.000000
1550725.000000
1551658.000000
1552617.000000
1553617.000000
1554616.000000
1555653.000000
1556734.000000
1557794.000000
1558891.000000
1559957.000000
1560931.000000
1561881.000000
1563062.000000
1564322.000000
1565551.000000
1566784.000000
1567880.000000
1568957.000000
1569917.000000
1570766.000000
1571577.000000
1572403.000000
1573293.000000
1574545.000000
1575714.000000
1576905.000000
1578036.000000
1579106.000000
1580200.000000
1581288.000000
1582297.000000
1583343.000000
1584431.000000
1585494.000000
1586623.000000
1587737.000000
1588799.000000
1589861.000000
1590978.000000
1592054.000000
1593166.000000
1594302.000000
1595371.000000
1596417.000000
1597479.000000
1598517.000000
1599540.000000
1600648.000000
1601788.000000
1602851.000000
1603922.000000
1605022.000000
1606183.000000
1607304.000000
1608476.000000
1609675.000000
1610891.000000
1612045.000000
1613197.000000
1614327.000000
1615402.000000
1616516.000000
1617573.000000
1618538.000000
1619533.000000
1620606.000000
1621671.000000
1622837.000000
1624012.000000
1625117.000000
1626259.000000
1627353.000000
1628446.000000
1629545.000000
1630575.000000
1631581.000000
1632593.000000
1633602.000000
1634553.000000
1635569.000000
1636702.000000
1637868.000000
1639089.000000
1640254.000000
1641389.000000
1642514.000000
1643587.000000
1644658.000000
1645677.000000
1646672.000000
1647736.000000
1648859.000000
1649972.000000
1651117.000000
1652281.000000
1653369.000000
1654489.000000
1655609.000000
1656722.000000
1657863.000000
1659026.000000
1660187.000000
1661298.000000
1662351.000000
1663391.000000
1664410.000000
1665440.000000
1666626.000000
1667792.000000
1668937.000000
1670093.000000
1671221.000000
1672264.000000
1673284.000000
1674326.000000
1675355.000000
1676403.000000
1677553.000000
1678721.000000
1679788.000000
1680862.000000
1681989.000000
1683140.000000
1684258.000000
1685394.000000
1686498.000000
1687562.000000
1688624.000000
1689688.000000
1690737.000000
1691777.000000
1692894.000000
1694083.000000
1695277.000000
1696368.000000
1697443.000000
1698479.000000
1699470.000000
1700447.000000
1701576.000000
1702723.000000
1703768.000000
1704891.000000
1705975.000000
1706969.000000
1707953.000000
1708940.000000
1709883.000000
1710860.000000
1711875.000000
1712948.000000
1713969.000000
1715003.000000
1716018.000000
1716977.000000
1717969.000000
1718965.000000
1719983.000000
1721023.000000
1722130.000000
1723242.000000
1724304.000000
1725372.000000
1726396.000000
1727329.000000
1728263.000000
1729198.000000
1730119.000000
1731058.000000
1732079.000000
1733161.000000
1734234.000000
1735274.000000
1736280.000000
1737254.000000
1738195.000000
1739145.000000
1740101.000000
1741047.000000
1742013.000000
1743079.000000
1744183.000000
1745251.000000
1746202.000000
1747075.000000
1747890.000000
1748694.000000
1749543.000000
1750436.000000
1751522.000000
1752676.000000
1753803.000000
1754995.000000
1756105.000000
1757205.000000
1758300.000000
1759330.000000
1760351.000000
1761402.000000
1762455.000000
1763472.000000
1764482.000000
1765525.000000
1766616.000000
1767655.000000
1768724.000000
1769781.000000
1770767.000000
1771813.000000
1772999.000000
1774130.000000
1775257.000000
1776385.000000
1777460.000000
1778471.000000
1779468.000000
1780524.000000
1781544.000000
1782624.000000
1783732.000000
1784843.000000
1785921.000000
1787007.000000
1788134.000000
1789226.000000
1790310.000000
1791398.000000
1792460.000000
1793437.000000
1794426.000000
1795467.000000
1796510.000000
1797524.000000
1798626.000000
1799802.000000
