ECG (ms)
-6.000000
713.000000
1516.000000
2246.000000
2900.000000
3629.000000
4441.000000
5223.000000
6064.000000
6917.000000
7679.000000
8427.000000
9237.000000
10048.000000
10820.000000
11518.000000
12160.000000
12754.000000
13330.000000
13942.000000
14953.000000
15931.000000
16855.000000
17743.000000
18507.000000
19170.000000
19812.000000
20574.000000
21431.000000
22302.000000
23103.000000
23856.000000
24642.000000
25473.000000
26352.000000
27227.000000
28137.000000
29053.000000
29901.000000
30754.000000
31598.000000
32414.000000
33178.000000
33926.000000
34767.000000
35600.000000
36426.000000
37250.000000
38054.000000
38788.000000
39497.000000
40240.000000
41120.000000
41979.000000
42792.000000
43625.000000
44447.000000
45211.000000
45989.000000
46856.000000
47732.000000
48545.000000
49337.000000
50166.000000
51028.000000
51847.000000
52647.000000
53463.000000
54299.000000
55096.000000
55856.000000
56668.000000
57524.000000
58338.000000
59083.000000
59859.000000
60690.000000
61494.000000
62234.000000
62977.000000
63771.000000
64572.000000
65339.000000
66099.000000
66920.000000
67741.000000
68497.000000
69219.000000
69960.000000
70772.000000
71574.000000
72329.000000
73052.000000
73827.000000
74689.000000
75486.000000
76236.000000
76990.000000
77778.000000
78568.000000
79303.000000
80039.000000
80813.000000
81590.000000
82349.000000
83124.000000
83914.000000
84735.000000
85498.000000
86254.000000
87055.000000
87881.000000
88655.000000
89385.000000
90119.000000
90902.000000
91678.000000
92431.000000
93166.000000
93959.000000
94792.000000
95573.000000
96301.000000
97043.000000
97841.000000
98632.000000
99360.000000
100060.000000
100774.000000
101552.000000
102315.000000
103059.000000
103792.000000
104548.000000
105407.000000
106265.000000
107044.000000
107793.000000
108570.000000
109326.000000
110047.000000
110765.000000
111530.000000
112319.000000
113106.000000
113836.000000
114565.000000
115346.000000
116144.000000
116887.000000
117592.000000
118300.000000
119057.000000
119817.000000
120537.000000
121226.000000
121935.000000
122665.000000
123311.000000
123953.000000
124672.000000
125370.000000
126057.000000
126821.000000
127655.000000
128430.000000
129127.000000
129789.000000
130488.000000
131246.000000
132022.000000
132722.000000
133421.000000
134204.000000
135063.000000
135853.000000
136554.000000
137215.000000
137925.000000
138688.000000
139461.000000
140178.000000
140872.000000
141613.000000
142403.000000
143177.000000
143896.000000
144635.000000
145431.000000
146231.000000
146974.000000
147683.000000
148421.000000
149188.000000
149964.000000
150692.000000
151362.000000
152033.000000
152767.000000
153537.000000
154306.000000
155063.000000
155841.000000
156656.000000
157467.000000
158240.000000
158998.000000
159785.000000
160589.000000
161366.000000
162122.000000
162867.000000
163648.000000
164461.000000
165266.000000
166043.000000
166851.000000
167695.000000
168506.000000
169261.000000
170018.000000
170784.000000
171558.000000
172316.000000
173046.000000
173780.000000
174562.000000
175387.000000
176236.000000
177019.000000
177792.000000
178583.000000
179390.000000
180171.000000
180919.000000
181710.000000
182535.000000
183374.000000
184169.000000
184925.000000
185702.000000
186529.000000
187374.000000
188153.000000
188896.000000
189665.000000
190466.000000
191251.000000
192013.000000
192741.000000
193519.000000
194347.000000
195183.000000
195992.000000
196784.000000
197626.000000
198472.000000
199304.000000
200079.000000
200828.000000
201607.000000
202402.000000
203207.000000
203977.000000
204762.000000
205573.000000
206384.000000
207148.000000
207897.000000
208652.000000
209434.000000
210246.000000
211033.000000
211791.000000
212539.000000
213315.000000
214160.000000
215028.000000
215863.000000
216619.000000
217362.000000
218160.000000
218998.000000
219855.000000
220633.000000
221373.000000
222110.000000
222832.000000
223515.000000
224198.000000
224924.000000
225785.000000
226601.000000
227339.000000
228061.000000
228819.000000
229647.000000
230418.000000
231143.000000
231880.000000
232684.000000
233557.000000
234386.000000
235168.000000
235996.000000
236881.000000
237732.000000
238512.000000
239349.000000
240253.000000
241127.000000
241903.000000
242634.000000
243391.000000
244175.000000
245002.000000
245826.000000
246728.000000
247676.000000
248554.000000
249321.000000
250071.000000
250835.000000
251626.000000
252385.000000
253091.000000
253781.000000
254425.000000
255084.000000
256001.000000
256828.000000
257595.000000
258412.000000
259259.000000
260054.000000
260785.000000
261488.000000
262222.000000
263005.000000
263815.000000
264585.000000
265319.000000
266100.000000
266956.000000
267863.000000
268705.000000
269483.000000
270276.000000
271110.000000
271975.000000
272803.000000
273560.000000
274319.000000
275128.000000
275971.000000
276776.000000
277525.000000
278304.000000
279219.000000
280118.000000
280943.000000
281722.000000
282485.000000
283286.000000
284138.000000
284953.000000
285703.000000
286481.000000
287315.000000
288169.000000
288935.000000
289647.000000
290357.000000
291148.000000
291985.000000
292768.000000
293497.000000
294192.000000
294962.000000
295784.000000
296559.000000
297298.000000
298052.000000
298816.000000
299601.000000
300346.000000
301030.000000
301698.000000
302400.000000
303212.000000
304040.000000
304812.000000
305560.000000
306337.000000
307125.000000
307887.000000
308615.000000
309289.000000
309926.000000
310547.000000
311210.000000
312316.000000
313318.000000
314261.000000
315123.000000
315902.000000
316671.000000
317464.000000
318265.000000
319047.000000
319805.000000
320555.000000
321328.000000
322122.000000
322930.000000
323720.000000
324480.000000
325253.000000
326040.000000
326826.000000
327572.000000
328300.000000
329002.000000
329667.000000
330323.000000
331023.000000
331712.000000
332387.000000
333152.000000
333990.000000
334813.000000
335554.000000
336255.000000
336950.000000
337696.000000
338390.000000
339046.000000
339675.000000
340323.000000
341039.000000
341794.000000
342519.000000
343225.000000
343965.000000
344744.000000
345527.000000
346232.000000
346960.000000
347727.000000
348498.000000
349213.000000
349880.000000
350549.000000
351288.000000
352144.000000
352954.000000
353705.000000
354406.000000
355137.000000
355966.000000
356826.000000
357704.000000
358496.000000
359239.000000
359998.000000
360811.000000
361705.000000
362544.000000
363338.000000
364150.000000
364988.000000
365909.000000
366748.000000
367534.000000
368319.000000
369159.000000
370040.000000
370867.000000
371610.000000
372298.000000
372939.000000
373636.000000
374540.000000
375518.000000
376433.000000
377265.000000
378019.000000
378769.000000
379547.000000
380367.000000
381166.000000
381913.000000
382634.000000
383374.000000
384140.000000
384896.000000
385601.000000
386321.000000
387086.000000
387914.000000
388666.000000
389356.000000
390025.000000
390801.000000
391603.000000
392361.000000
393073.000000
393792.000000
394548.000000
395339.000000
396046.000000
396721.000000
397395.000000
398154.000000
398930.000000
399662.000000
400367.000000
401078.000000
401808.000000
402546.000000
403261.000000
403936.000000
404612.000000
405280.000000
405941.000000
406567.000000
407206.000000
407916.000000
408610.000000
409272.000000
409960.000000
410758.000000
411589.000000
412375.000000
413125.000000
413896.000000
414700.000000
415496.000000
416234.000000
416926.000000
417562.000000
418182.000000
418858.000000
419687.000000
420650.000000
421607.000000
422471.000000
423247.000000
423990.000000
424718.000000
425506.000000
426274.000000
426983.000000
427693.000000
428468.000000
429228.000000
429941.000000
430625.000000
431334.000000
432132.000000
432945.000000
433703.000000
434428.000000
435176.000000
435953.000000
436742.000000
437501.000000
438264.000000
439122.000000
440039.000000
440850.000000
441595.000000
442360.000000
443154.000000
443931.000000
444658.000000
445361.000000
446106.000000
446926.000000
447797.000000
448586.000000
449380.000000
450208.000000
451053.000000
451777.000000
452449.000000
453139.000000
453841.000000
454608.000000
455449.000000
456326.000000
457156.000000
457926.000000
458713.000000
459544.000000
460338.000000
461094.000000
461848.000000
462667.000000
463524.000000
464350.000000
465099.000000
465845.000000
466595.000000
467350.000000
468052.000000
468723.000000
469374.000000
470067.000000
470799.000000
471617.000000
472426.000000
473137.000000
473805.000000
474514.000000
475199.000000
475888.000000
476628.000000
477369.000000
478146.000000
478859.000000
479540.000000
480240.000000
481020.000000
481837.000000
482577.000000
483298.000000
484065.000000
484915.000000
485792.000000
486581.000000
487331.000000
488096.000000
488925.000000
489795.000000
490705.000000
491551.000000
492392.000000
493261.000000
494164.000000
495006.000000
495774.000000
496546.000000
497353.000000
498241.000000
499123.000000
499925.000000
500766.000000
501648.000000
502557.000000
503363.000000
504108.000000
504862.000000
505674.000000
506514.000000
507307.000000
508071.000000
508893.000000
509794.000000
510643.000000
511409.000000
512159.000000
512944.000000
513780.000000
514608.000000
515382.000000
516164.000000
516989.000000
517846.000000
518656.000000
519421.000000
520223.000000
521099.000000
522006.000000
522824.000000
523575.000000
524358.000000
525263.000000
526226.000000
527120.000000
527951.000000
528819.000000
529692.000000
530532.000000
531310.000000
532038.000000
532768.000000
533558.000000
534415.000000
535257.000000
536056.000000
536895.000000
537795.000000
538638.000000
539475.000000
540347.000000
541212.000000
542022.000000
542843.000000
543695.000000
544563.000000
545350.000000
546109.000000
546906.000000
547773.000000
548634.000000
549438.000000
550235.000000
551074.000000
551955.000000
552779.000000
553551.000000
554340.000000
555197.000000
556084.000000
556917.000000
557681.000000
558451.000000
559270.000000
560154.000000
560954.000000
561687.000000
562392.000000
563126.000000
563827.000000
564474.000000
565174.000000
565944.000000
566693.000000
567482.000000
568310.000000
569149.000000
569907.000000
570595.000000
571274.000000
572040.000000
572879.000000
573716.000000
574483.000000
575246.000000
576033.000000
576844.000000
577627.000000
578369.000000
579125.000000
579974.000000
580837.000000
581620.000000
582361.000000
583098.000000
583875.000000
584647.000000
585424.000000
586297.000000
587315.000000
588239.000000
589082.000000
589960.000000
590885.000000
591774.000000
592546.000000
593276.000000
594023.000000
594848.000000
595687.000000
596504.000000
597298.000000
598142.000000
599048.000000
599929.000000
600699.000000
601461.000000
602261.000000
603093.000000
603890.000000
604648.000000
605480.000000
606380.000000
607271.000000
608052.000000
608771.000000
609470.000000
610262.000000
611154.000000
612017.000000
612793.000000
613585.000000
614411.000000
615229.000000
615983.000000
616752.000000
617612.000000
618524.000000
619385.000000
620175.000000
620996.000000
621866.000000
622774.000000
623646.000000
624464.000000
625339.000000
626248.000000
627160.000000
628001.000000
628793.000000
629629.000000
630514.000000
631418.000000
632276.000000
633090.000000
633952.000000
634898.000000
635837.000000
636727.000000
637565.000000
638421.000000
639334.000000
640236.000000
641035.000000
641769.000000
642523.000000
643394.000000
644310.000000
645162.000000
645968.000000
646835.000000
647770.000000
648646.000000
649441.000000
650206.000000
650974.000000
651787.000000
652630.000000
653419.000000
654185.000000
654990.000000
655845.000000
656708.000000
657495.000000
658268.000000
659041.000000
659833.000000
660593.000000
661324.000000
662068.000000
662859.000000
663671.000000
664428.000000
665202.000000
666032.000000
666890.000000
667698.000000
668470.000000
669268.000000
670070.000000
670857.000000
671612.000000
672387.000000
673177.000000
673997.000000
674791.000000
675531.000000
676276.000000
677037.000000
677873.000000
678681.000000
679435.000000
680193.000000
680981.000000
681782.000000
682575.000000
683333.000000
684115.000000
684929.000000
685777.000000
686561.000000
687310.000000
688062.000000
688844.000000
689628.000000
690390.000000
691114.000000
691810.000000
692507.000000
693199.000000
693844.000000
694634.000000
695437.000000
696162.000000
696849.000000
697679.000000
698640.000000
699581.000000
700398.000000
701150.000000
701927.000000
702760.000000
703583.000000
704352.000000
705132.000000
705956.000000
706846.000000
707681.000000
708451.000000
709167.000000
709837.000000
710601.000000
711483.000000
712383.000000
713242.000000
714021.000000
714823.000000
715649.000000
716518.000000
717343.000000
718115.000000
718901.000000
719738.000000
720563.000000
721331.000000
722111.000000
722978.000000
723904.000000
724808.000000
725613.000000
726381.000000
727161.000000
728031.000000
728879.000000
729663.000000
730462.000000
731324.000000
732199.000000
732992.000000
733772.000000
734589.000000
735476.000000
736349.000000
737139.000000
737929.000000
738748.000000
739590.000000
740408.000000
741188.000000
741970.000000
742806.000000
743667.000000
744471.000000
745251.000000
746089.000000
746981.000000
747826.000000
748590.000000
749369.000000
750153.000000
750974.000000
751785.000000
752539.000000
753357.000000
754233.000000
755123.000000
755946.000000
756755.000000
757630.000000
758507.000000
759319.000000
760082.000000
760850.000000
761642.000000
762490.000000
763319.000000
764101.000000
764920.000000
765762.000000
766537.000000
767263.000000
767962.000000
768749.000000
769603.000000
770432.000000
771177.000000
771947.000000
772812.000000
773770.000000
774654.000000
775439.000000
776224.000000
777013.000000
777809.000000
778559.000000
779260.000000
780004.000000
780845.000000
781753.000000
782591.000000
783344.000000
784086.000000
784894.000000
785730.000000
786540.000000
787316.000000
788141.000000
789008.000000
789855.000000
790648.000000
791420.000000
792221.000000
793116.000000
793968.000000
794748.000000
795564.000000
796388.000000
797243.000000
798024.000000
798757.000000
799494.000000
800291.000000
801136.000000
801945.000000
802714.000000
803513.000000
804324.000000
805149.000000
805928.000000
806687.000000
807457.000000
808208.000000
808884.000000
809555.000000
810328.000000
811082.000000
811853.000000
812649.000000
813445.000000
814194.000000
814893.000000
815574.000000
816308.000000
817081.000000
817834.000000
818542.000000
819274.000000
820106.000000
820953.000000
821727.000000
822441.000000
823175.000000
823945.000000
824762.000000
825520.000000
826226.000000
826976.000000
827816.000000
828724.000000
829561.000000
830315.000000
831084.000000
831890.000000
832790.000000
833633.000000
834429.000000
835285.000000
836180.000000
837094.000000
837911.000000
838671.000000
839439.000000
840247.000000
841097.000000
841934.000000
842711.000000
843516.000000
844334.000000
845154.000000
845927.000000
846667.000000
847435.000000
848313.000000
849137.000000
849904.000000
850661.000000
851468.000000
852336.000000
853146.000000
853902.000000
854648.000000
855486.000000
856365.000000
857199.000000
857971.000000
858768.000000
859627.000000
860552.000000
861396.000000
862159.000000
862951.000000
863800.000000
864725.000000
865585.000000
866354.000000
867145.000000
868045.000000
868978.000000
869856.000000
870667.000000
871538.000000
872428.000000
873286.000000
874079.000000
874847.000000
875654.000000
876569.000000
877427.000000
878191.000000
878935.000000
879708.000000
880530.000000
881358.000000
882146.000000
883027.000000
883984.000000
884950.000000
885775.000000
886531.000000
887301.000000
888102.000000
888944.000000
889758.000000
890551.000000
891412.000000
892336.000000
893251.000000
894054.000000
894868.000000
895734.000000
896611.000000
897421.000000
898189.000000
899012.000000
899910.000000
900812.000000
901614.000000
902394.000000
903186.000000
904034.000000
904844.000000
905625.000000
906454.000000
907322.000000
908174.000000
908966.000000
909756.000000
910612.000000
911443.000000
912213.000000
912967.000000
913761.000000
914590.000000
915355.000000
916102.000000
916794.000000
917465.000000
918418.000000
919279.000000
920062.000000
920888.000000
921773.000000
922637.000000
923402.000000
924148.000000
924906.000000
925740.000000
926566.000000
927321.000000
928043.000000
928820.000000
929689.000000
930565.000000
931339.000000
932114.000000
932935.000000
933817.000000
934635.000000
935395.000000
936226.000000
937186.000000
938130.000000
938961.000000
939796.000000
940675.000000
941541.000000
942336.000000
943081.000000
943828.000000
944668.000000
945626.000000
946518.000000
947326.000000
948196.000000
949137.000000
950020.000000
950824.000000
951640.000000
952444.000000
953245.000000
953991.000000
954687.000000
955333.000000
955967.000000
956771.000000
957773.000000
958752.000000
959684.000000
960619.000000
961481.000000
962239.000000
962989.000000
963755.000000
964559.000000
965430.000000
966290.000000
967154.000000
968043.000000
968914.000000
969734.000000
970503.000000
971313.000000
972172.000000
973076.000000
973896.000000
974703.000000
975518.000000
976344.000000
977163.000000
978010.000000
978835.000000
979583.000000
980280.000000
981018.000000
981893.000000
982795.000000
983606.000000
984389.000000
985222.000000
986076.000000
986896.000000
987642.000000
988365.000000
989126.000000
989966.000000
990849.000000
991635.000000
992432.000000
993280.000000
994104.000000
994892.000000
995641.000000
996448.000000
997291.000000
998128.000000
998914.000000
999688.000000
1000496.000000
1001351.000000
1002151.000000
1002905.000000
1003725.000000
1004563.000000
1005389.000000
1006156.000000
1006927.000000
1007733.000000
1008599.000000
1009421.000000
1010167.000000
1010919.000000
1011721.000000
1012594.000000
1013460.000000
1014285.000000
1015150.000000
1016046.000000
1016932.000000
1017737.000000
1018535.000000
1019345.000000
1020179.000000
1021009.000000
1021803.000000
1022674.000000
1023636.000000
1024575.000000
1025413.000000
1026226.000000
1027078.000000
1028005.000000
1028879.000000
1029677.000000
1030476.000000
1031308.000000
1032161.000000
1032972.000000
1033762.000000
1034678.000000
1035672.000000
1036596.000000
1037415.000000
1038161.000000
1038904.000000
1039722.000000
1040629.000000
1041480.000000
1042281.000000
1043135.000000
1044045.000000
1044905.000000
1045702.000000
1046496.000000
1047350.000000
1048206.000000
1049029.000000
1049796.000000
1050598.000000
1051443.000000
1052241.000000
1052989.000000
1053734.000000
1054562.000000
1055508.000000
1056378.000000
1057179.000000
1058005.000000
1058864.000000
1059670.000000
1060429.000000
1061221.000000
1062092.000000
1062989.000000
1063785.000000
1064535.000000
1065303.000000
1066089.000000
1066932.000000
1067748.000000
1068588.000000
1069515.000000
1070438.000000
1071213.000000
1071921.000000
1072574.000000
1073276.000000
1074130.000000
1074937.000000
1075719.000000
1076648.000000
1077631.000000
1078470.000000
1079264.000000
1080133.000000
1081061.000000
1081895.000000
1082650.000000
1083433.000000
1084339.000000
1085343.000000
1086257.000000
1087112.000000
1088029.000000
1088972.000000
1089914.000000
1090753.000000
1091499.000000
1092240.000000
1093224.000000
1094314.000000
1095300.000000
1096200.000000
1097156.000000
1098194.000000
1099171.000000
1100021.000000
1100789.000000
1101559.000000
1102384.000000
1103264.000000
1104086.000000
1104875.000000
1105745.000000
1106803.000000
1107705.000000
1108520.000000
1109404.000000
1110432.000000
1111391.000000
1112213.000000
1112968.000000
1113725.000000
1114575.000000
1115432.000000
1116221.000000
1117069.000000
1118027.000000
1118958.000000
1119770.000000
1120529.000000
1121293.000000
1122128.000000
1122942.000000
1123709.000000
1124489.000000
1125289.000000
1126051.000000
1126875.000000
1127852.000000
1128722.000000
1129503.000000
1130300.000000
1131155.000000
1132010.000000
1132791.000000
1133571.000000
1134396.000000
1135278.000000
1136083.000000
1136845.000000
1137624.000000
1138413.000000
1139188.000000
1139928.000000
1140736.000000
1141653.000000
1142568.000000
1143363.000000
1144157.000000
1144972.000000
1145838.000000
1146637.000000
1147387.000000
1148171.000000
1149042.000000
1149927.000000
1150729.000000
1151576.000000
1152468.000000
1153283.000000
1154053.000000
1154821.000000
1155641.000000
1156436.000000
1157180.000000
1157960.000000
1158806.000000
1159652.000000
1160437.000000
1161258.000000
1162137.000000
1163046.000000
1163864.000000
1164671.000000
1165470.000000
1166264.000000
1167021.000000
1167751.000000
1168545.000000
1169434.000000
1170238.000000
1171023.000000
1171903.000000
1172700.000000
1173407.000000
1174116.000000
1174915.000000
1175642.000000
1176395.000000
1177254.000000
1178077.000000
1178826.000000
1179520.000000
1180247.000000
1181061.000000
1181862.000000
1182607.000000
1183403.000000
1184234.000000
1185024.000000
1185778.000000
1186612.000000
1187542.000000
1188443.000000
1189251.000000
1190063.000000
1190896.000000
1191734.000000
1192535.000000
1193332.000000
1194176.000000
1195115.000000
1196028.000000
1196814.000000
1197608.000000
1198435.000000
1199255.000000
1200030.000000
1200863.000000
1201771.000000
1202713.000000
1203556.000000
1204377.000000
1205246.000000
1206072.000000
1206845.000000
1207605.000000
1208440.000000
1209326.000000
1210125.000000
1210879.000000
1211661.000000
1212519.000000
1213373.000000
1214176.000000
1215082.000000
1216073.000000
1216992.000000
1217792.000000
1218615.000000
1219486.000000
1220392.000000
1221227.000000
1222021.000000
1222857.000000
1223775.000000
1224622.000000
1225397.000000
1226238.000000
1227201.000000
1228170.000000
1229003.000000
1229846.000000
1230754.000000
1231752.000000
1232595.000000
1233409.000000
1234262.000000
1235164.000000
1235998.000000
1236788.000000
1237672.000000
1238672.000000
1239545.000000
1240345.000000
1241207.000000
1242152.000000
1243040.000000
1243830.000000
1244618.000000
1245490.000000
1246339.000000
1247258.000000
