ECG (ms)
21.000000
1118.000000
2104.000000
3017.000000
4032.000000
4993.000000
6311.000000
7479.000000
8683.000000
9620.000000
10597.000000
11477.000000
12467.000000
13460.000000
14832.000000
16147.000000
17343.000000
18331.000000
19602.000000
20468.000000
21464.000000
22392.000000
23311.000000
24504.000000
25590.000000
26742.000000
27841.000000
28880.000000
29867.000000
30970.000000
31912.000000
32980.000000
33907.000000
34924.000000
35935.000000
36992.000000
38087.000000
39121.000000
40236.000000
41227.000000
42418.000000
43254.000000
44120.000000
45018.000000
46098.000000
47075.000000
48197.000000
49163.000000
50089.000000
51075.000000
51980.000000
53017.000000
53938.000000
55119.000000
56097.000000
57193.000000
58147.000000
59156.000000
60241.000000
61516.000000
62634.000000
63646.000000
64657.000000
65600.000000
66878.000000
67858.000000
68881.000000
69789.000000
70825.000000
71854.000000
72892.000000
74009.000000
74968.000000
75932.000000
76810.000000
77725.000000
78566.000000
79323.000000
80224.000000
81148.000000
82232.000000
83251.000000
84313.000000
85284.000000
86272.000000
87293.000000
88167.000000
89126.000000
89996.000000
90948.000000
91997.000000
93026.000000
94244.000000
95215.000000
96304.000000
97259.000000
98552.000000
99615.000000
100538.000000
101570.000000
102452.000000
103742.000000
104860.000000
106021.000000
106905.000000
107882.000000
108827.000000
109776.000000
110708.000000
111552.000000
112477.000000
113742.000000
114928.000000
115918.000000
116968.000000
117834.000000
118807.000000
119807.000000
120753.000000
121853.000000
122788.000000
124052.000000
125045.000000
126126.000000
127070.000000
127988.000000
128912.000000
129813.000000
130905.000000
131853.000000
132982.000000
133946.000000
134959.000000
135998.000000
136977.000000
138070.000000
139026.000000
140057.000000
140984.000000
142048.000000
143069.000000
144109.000000
145304.000000
146312.000000
147273.000000
148130.000000
149148.000000
150066.000000
151056.000000
152188.000000
153236.000000
154147.000000
154989.000000
156084.000000
157027.000000
158105.000000
158976.000000
159851.000000
160900.000000
161786.000000
162851.000000
163939.000000
164823.000000
165736.000000
166814.000000
167745.000000
168724.000000
169917.000000
170823.000000
171692.000000
172668.000000
173618.000000
174491.000000
175822.000000
176981.000000
177898.000000
179130.000000
180121.000000
181118.000000
182158.000000
183085.000000
184385.000000
185429.000000
186399.000000
187478.000000
188395.000000
189533.000000
190470.000000
191395.000000
192336.000000
193242.000000
194272.000000
195201.000000
196120.000000
197005.000000
197783.000000
198653.000000
199561.000000
200698.000000
201593.000000
202543.000000
203403.000000
204240.000000
205248.000000
206087.000000
207084.000000
207983.000000
208898.000000
210156.000000
211133.000000
212186.000000
213071.000000
214081.000000
215000.000000
216058.000000
216936.000000
217984.000000
219181.000000
220135.000000
221273.000000
222179.000000
223056.000000
224070.000000
224948.000000
226001.000000
226917.000000
227985.000000
229079.000000
230086.000000
231095.000000
231984.000000
232954.000000
233905.000000
234822.000000
235811.000000
236714.000000
237774.000000
238752.000000
239730.000000
240876.000000
241815.000000
242752.000000
243632.000000
244523.000000
245498.000000
246410.000000
247233.000000
248163.000000
249218.000000
250288.000000
251378.000000
252317.000000
253362.000000
254229.000000
255176.000000
256100.000000
257000.000000
258191.000000
259148.000000
260160.000000
261238.000000
262501.000000
263737.000000
264899.000000
265849.000000
267030.000000
268053.000000
269071.000000
270164.000000
271125.000000
272214.000000
273154.000000
274183.000000
275162.000000
276144.000000
277320.000000
278300.000000
279519.000000
280441.000000
281433.000000
282334.000000
283348.000000
284324.000000
285243.000000
286560.000000
287517.000000
288489.000000
289367.000000
290273.000000
291372.000000
292559.000000
293725.000000
294658.000000
295846.000000
296795.000000
297826.000000
298748.000000
299696.000000
300748.000000
301696.000000
302845.000000
303911.000000
304989.000000
306065.000000
307005.000000
308022.000000
308994.000000
309976.000000
310937.000000
311764.000000
312563.000000
313538.000000
314419.000000
315428.000000
316368.000000
317286.000000
318292.000000
319161.000000
320112.000000
320985.000000
321817.000000
322756.000000
323581.000000
324515.000000
325436.000000
326256.000000
327205.000000
328086.000000
329005.000000
329912.000000
330752.000000
331737.000000
332612.000000
333616.000000
334581.000000
335485.000000
336487.000000
337374.000000
338412.000000
339456.000000
340409.000000
341394.000000
342257.000000
343220.000000
344133.000000
344999.000000
346033.000000
346917.000000
347852.000000
348743.000000
349625.000000
350498.000000
351347.000000
352327.000000
353181.000000
354144.000000
354950.000000
355809.000000
356734.000000
357774.000000
358628.000000
359513.000000
360442.000000
361297.000000
362387.000000
363269.000000
364199.000000
365198.000000
366064.000000
367000.000000
367899.000000
368795.000000
369709.000000
370558.000000
371756.000000
372667.000000
373633.000000
374554.000000
375559.000000
376569.000000
377547.000000
378592.000000
379532.000000
380516.000000
381465.000000
382619.000000
383565.000000
384526.000000
385504.000000
386400.000000
387395.000000
388317.000000
389282.000000
390282.000000
391157.000000
392084.000000
392959.000000
393822.000000
394803.000000
395721.000000
396764.000000
397787.000000
398862.000000
399833.000000
400845.000000
401889.000000
402820.000000
403837.000000
404713.000000
405649.000000
406485.000000
407288.000000
408207.000000
409442.000000
410446.000000
411517.000000
412483.000000
413619.000000
414510.000000
415473.000000
416375.000000
417266.000000
418603.000000
419668.000000
420698.000000
421614.000000
422637.000000
423584.000000
424538.000000
425558.000000
426473.000000
427536.000000
428470.000000
429479.000000
430423.000000
431333.000000
432303.000000
433181.000000
434179.000000
435094.000000
436004.000000
437205.000000
438133.000000
439127.000000
440016.000000
440982.000000
441891.000000
442817.000000
443881.000000
444780.000000
445865.000000
446883.000000
447836.000000
448683.000000
449474.000000
450347.000000
451221.000000
452273.000000
453265.000000
454235.000000
455257.000000
456136.000000
457067.000000
457967.000000
458819.000000
459891.000000
460796.000000
461806.000000
462779.000000
463678.000000
464675.000000
465547.000000
466485.000000
467414.000000
468283.000000
469325.000000
470234.000000
471189.000000
472427.000000
473394.000000
474370.000000
475241.000000
476176.000000
477192.000000
478081.000000
479162.000000
480151.000000
481135.000000
482186.000000
483104.000000
484122.000000
485027.000000
485947.000000
486812.000000
487628.000000
488514.000000
489522.000000
490490.000000
491388.000000
492365.000000
493208.000000
494172.000000
495157.000000
495993.000000
496986.000000
497849.000000
498799.000000
499836.000000
500749.000000
501822.000000
502729.000000
503634.000000
504642.000000
505553.000000
506563.000000
507472.000000
508460.000000
509550.000000
510492.000000
511660.000000
512633.000000
513622.000000
514661.000000
515611.000000
516710.000000
517668.000000
518669.000000
519700.000000
520622.000000
521651.000000
522514.000000
523435.000000
524273.000000
525060.000000
525938.000000
526967.000000
527981.000000
528961.000000
530038.000000
530987.000000
532002.000000
532891.000000
533874.000000
534802.000000
535748.000000
536856.000000
537812.000000
538920.000000
539897.000000
540970.000000
542061.000000
542912.000000
543842.000000
544721.000000
545660.000000
546855.000000
547761.000000
548831.000000
549975.000000
551027.000000
552095.000000
553029.000000
554161.000000
555045.000000
556026.000000
556944.000000
557891.000000
558897.000000
559876.000000
561206.000000
562137.000000
563136.000000
564055.000000
564966.000000
565978.000000
566881.000000
567894.000000
568746.000000
569514.000000
570350.000000
571261.000000
572271.000000
573145.000000
574152.000000
575199.000000
576108.000000
577192.000000
578113.000000
579041.000000
580090.000000
581000.000000
582017.000000
582914.000000
583831.000000
584890.000000
585813.000000
586891.000000
587785.000000
588673.000000
589729.000000
590643.000000
591743.000000
592673.000000
593547.000000
594603.000000
595637.000000
596579.000000
597627.000000
598531.000000
599604.000000
600679.000000
601608.000000
602582.000000
603539.000000
604534.000000
605705.000000
606627.000000
607605.000000
608609.000000
609576.000000
610648.000000
611574.000000
612586.000000
613620.000000
614520.000000
615558.000000
616444.000000
617436.000000
618433.000000
619374.000000
620382.000000
621246.000000
622231.000000
623086.000000
623907.000000
624819.000000
625938.000000
626896.000000
627899.000000
628935.000000
629827.000000
630801.000000
631741.000000
632676.000000
633786.000000
634740.000000
635943.000000
637069.000000
638086.000000
639196.000000
640212.000000
641288.000000
642228.000000
643341.000000
644348.000000
645360.000000
646526.000000
647479.000000
648566.000000
649562.000000
650431.000000
651519.000000
652463.000000
653631.000000
654710.000000
655752.000000
656833.000000
657794.000000
658852.000000
659744.000000
660664.000000
661649.000000
662501.000000
663420.000000
664406.000000
665288.000000
666281.000000
667339.000000
668285.000000
669134.000000
670072.000000
670946.000000
672014.000000
672998.000000
673949.000000
675004.000000
675887.000000
676833.000000
677759.000000
678653.000000
679645.000000
680567.000000
681477.000000
682488.000000
683349.000000
684378.000000
685568.000000
686496.000000
687496.000000
688490.000000
689387.000000
690344.000000
691195.000000
692103.000000
693096.000000
693961.000000
695039.000000
696057.000000
697083.000000
698134.000000
699054.000000
700018.000000
700976.000000
701901.000000
703042.000000
703964.000000
704894.000000
705837.000000
706725.000000
707800.000000
708741.000000
709659.000000
710467.000000
711308.000000
712200.000000
713205.000000
714120.000000
715067.000000
716022.000000
716893.000000
717869.000000
718744.000000
719557.000000
720651.000000
721632.000000
722601.000000
723594.000000
724484.000000
725515.000000
726502.000000
727529.000000
728470.000000
729356.000000
730345.000000
731260.000000
732244.000000
733191.000000
734178.000000
735307.000000
736305.000000
737428.000000
738353.000000
739334.000000
740216.000000
741047.000000
742037.000000
742985.000000
743915.000000
745178.000000
746167.000000
747338.000000
748233.000000
749047.000000
749821.000000
750931.000000
751925.000000
752961.000000
753916.000000
754970.000000
755892.000000
756909.000000
757820.000000
758773.000000
759767.000000
760680.000000
761761.000000
762646.000000
763783.000000
764717.000000
765662.000000
766722.000000
767682.000000
768776.000000
769682.000000
770698.000000
771682.000000
772680.000000
773905.000000
774867.000000
775970.000000
776893.000000
777902.000000
778947.000000
779925.000000
781030.000000
781923.000000
782964.000000
783882.000000
784798.000000
785915.000000
786839.000000
787873.000000
788774.000000
789734.000000
790660.000000
791496.000000
792412.000000
793333.000000
794343.000000
795365.000000
796245.000000
797205.000000
798046.000000
798824.000000
799613.000000
800420.000000
801285.000000
802155.000000
803123.000000
804096.000000
805054.000000
806032.000000
806893.000000
807777.000000
808652.000000
809460.000000
810378.000000
811301.000000
812213.000000
813274.000000
814158.000000
815154.000000
816054.000000
817002.000000
818082.000000
818988.000000
820026.000000
820974.000000
821988.000000
823073.000000
824054.000000
825132.000000
826054.000000
827078.000000
828067.000000
829041.000000
830090.000000
831041.000000
832097.000000
832995.000000
834033.000000
835030.000000
835990.000000
837074.000000
837976.000000
839045.000000
839917.000000
840887.000000
841944.000000
842861.000000
844152.000000
845268.000000
846361.000000
847407.000000
848413.000000
849332.000000
850156.000000
851119.000000
851975.000000
852955.000000
853962.000000
854978.000000
856145.000000
857124.000000
858215.000000
859121.000000
860090.000000
861072.000000
862010.000000
863287.000000
864243.000000
865217.000000
866168.000000
867110.000000
868493.000000
869598.000000
870623.000000
871527.000000
872600.000000
873596.000000
874586.000000
875821.000000
876868.000000
877976.000000
878894.000000
879833.000000
880801.000000
881771.000000
882937.000000
883840.000000
884762.000000
885580.000000
886365.000000
887276.000000
888327.000000
889276.000000
890201.000000
891215.000000
892082.000000
893052.000000
894012.000000
894916.000000
895870.000000
896700.000000
897586.000000
898553.000000
899450.000000
900446.000000
901300.000000
902200.000000
903079.000000
903905.000000
904860.000000
905780.000000
906700.000000
907689.000000
908572.000000
909567.000000
910465.000000
911331.000000
912318.000000
913179.000000
914128.000000
915070.000000
916015.000000
916974.000000
917853.000000
918842.000000
919774.000000
920738.000000
921760.000000
922664.000000
923678.000000
924681.000000
925619.000000
926685.000000
927586.000000
928462.000000
929776.000000
930783.000000
931833.000000
932775.000000
933833.000000
934812.000000
935846.000000
936918.000000
937925.000000
939037.000000
939978.000000
940991.000000
941911.000000
942800.000000
943624.000000
944427.000000
945753.000000
946952.000000
948059.000000
948949.000000
949942.000000
950880.000000
951820.000000
952912.000000
953784.000000
954714.000000
955666.000000
956529.000000
957559.000000
958559.000000
959537.000000
960623.000000
961557.000000
962488.000000
963492.000000
964401.000000
965424.000000
966329.000000
967244.000000
968246.000000
969092.000000
969910.000000
970850.000000
972064.000000
972943.000000
973806.000000
974942.000000
976171.000000
977084.000000
977981.000000
979286.000000
980432.000000
981287.000000
982283.000000
983422.000000
984291.000000
985112.000000
986193.000000
987089.000000
988059.000000
988989.000000
989811.000000
990748.000000
991987.000000
992862.000000
993833.000000
994790.000000
995634.000000
996585.000000
997503.000000
998369.000000
999359.000000
1000248.000000
1001136.000000
1002244.000000
1003212.000000
1004114.000000
1005039.000000
1005874.000000
1006832.000000
1007853.000000
1008758.000000
1009742.000000
1010682.000000
1011647.000000
1012716.000000
1013616.000000
1014617.000000
1015579.000000
1016504.000000
1017446.000000
1018308.000000
1019268.000000
1020322.000000
1021314.000000
1022351.000000
1023265.000000
1024211.000000
1025279.000000
1026180.000000
1027138.000000
1028081.000000
1029020.000000
1030028.000000
1030911.000000
1031796.000000
1032617.000000
1033553.000000
1034576.000000
1035686.000000
1036657.000000
1037581.000000
1038628.000000
1039520.000000
1040464.000000
1041400.000000
1042252.000000
1043225.000000
1044157.000000
1045080.000000
1046086.000000
1046962.000000
1047902.000000
1048819.000000
1049682.000000
1050625.000000
1051552.000000
1052529.000000
1053693.000000
1054624.000000
1055589.000000
1056480.000000
1057358.000000
1058295.000000
1059234.000000
1060320.000000
1061338.000000
1062360.000000
1063417.000000
1064343.000000
1065331.000000
1066247.000000
1067159.000000
1068175.000000
1069092.000000
1070131.000000
1071102.000000
1072165.000000
1073380.000000
1074376.000000
1075344.000000
1076218.000000
1077154.000000
1078057.000000
1078879.000000
1079748.000000
1080564.000000
1081884.000000
1082887.000000
1084012.000000
1084964.000000
1085956.000000
1086973.000000
1087894.000000
1088937.000000
1089930.000000
1090915.000000
1092053.000000
1093016.000000
1094116.000000
1095113.000000
1096153.000000
1097315.000000
1098263.000000
1099334.000000
1100306.000000
1101386.000000
1102609.000000
1103652.000000
1104939.000000
1105975.000000
1107052.000000
1108082.000000
1109083.000000
1110220.000000
1111133.000000
1112240.000000
1113203.000000
1114302.000000
1115380.000000
1116376.000000
1117582.000000
1118524.000000
1119475.000000
1120572.000000
1121532.000000
1122496.000000
1123588.000000
1124544.000000
1125694.000000
1126746.000000
1127732.000000
1128626.000000
1129460.000000
1130370.000000
1131180.000000
1132027.000000
1132897.000000
1133850.000000
1134819.000000
1135727.000000
1136734.000000
1137609.000000
1138553.000000
1139452.000000
1140308.000000
1141348.000000
1142255.000000
1143179.000000
1144166.000000
1145032.000000
1146119.000000
1147062.000000
1147965.000000
1149123.000000
1150082.000000
1151151.000000
1152114.000000
1153019.000000
1154095.000000
1155020.000000
1156195.000000
1157188.000000
1158118.000000
1159138.000000
1160034.000000
1160990.000000
1162118.000000
1163185.000000
1164231.000000
1165137.000000
1166185.000000
1167133.000000
1168059.000000
1169051.000000
1169983.000000
1171222.000000
1172212.000000
1173163.000000
1174248.000000
1175159.000000
1176152.000000
1177080.000000
1177882.000000
1178654.000000
1179586.000000
1180466.000000
1181545.000000
1182513.000000
1183511.000000
1184566.000000
1185470.000000
1186462.000000
1187355.000000
1188210.000000
1189249.000000
1190127.000000
1191067.000000
1192007.000000
1192938.000000
1194037.000000
