ECG (ms)
658.000000
1930.000000
3040.000000
4000.000000
5073.000000
6014.000000
6997.000000
7871.000000
8853.000000
10153.000000
11046.000000
11872.000000
12758.000000
14000.000000
15147.000000
16368.000000
17338.000000
18256.000000
19602.000000
20780.000000
21722.000000
22722.000000
23789.000000
24779.000000
25743.000000
26966.000000
28118.000000
29186.000000
30313.000000
31342.000000
32267.000000
33145.000000
34193.000000
35209.000000
36208.000000
37272.000000
38259.000000
39142.000000
40051.000000
41377.000000
42386.000000
43245.000000
44170.000000
45215.000000
46100.000000
47069.000000
48306.000000
49174.000000
50071.000000
51040.000000
52316.000000
53306.000000
54257.000000
55137.000000
56069.000000
57406.000000
58472.000000
59387.000000
60711.000000
61820.000000
62853.000000
64186.000000
65448.000000
66610.000000
67931.000000
69197.000000
70444.000000
71716.000000
72836.000000
74143.000000
75443.000000
76444.000000
77739.000000
78907.000000
80041.000000
81326.000000
82568.000000
83699.000000
84916.000000
86020.000000
86964.000000
87837.000000
89266.000000
90625.000000
91870.000000
92877.000000
94174.000000
95448.000000
96676.000000
97695.000000
98541.000000
99348.000000
100207.000000
101049.000000
102454.000000
103702.000000
104691.000000
105525.000000
106461.000000
107797.000000
109009.000000
110072.000000
111005.000000
111865.000000
112866.000000
114242.000000
115541.000000
116670.000000
117584.000000
118459.000000
119793.000000
121018.000000
122126.000000
123015.000000
123856.000000
125190.000000
126436.000000
127331.000000
128343.000000
129622.000000
130542.000000
131483.000000
132792.000000
133824.000000
134849.000000
136072.000000
137044.000000
137968.000000
139116.000000
140191.000000
141121.000000
142094.000000
143139.000000
144013.000000
144945.000000
145965.000000
146831.000000
147685.000000
148652.000000
149619.000000
150484.000000
151392.000000
152418.000000
153344.000000
154294.000000
155326.000000
156295.000000
157225.000000
158247.000000
159260.000000
160204.000000
161196.000000
162230.000000
163268.000000
164387.000000
165570.000000
166555.000000
167829.000000
169008.000000
170143.000000
171450.000000
172496.000000
173517.000000
174897.000000
176109.000000
177329.000000
178644.000000
179611.000000
180452.000000
181884.000000
183262.000000
184654.000000
185926.000000
187216.000000
188285.000000
189149.000000
190550.000000
191802.000000
192855.000000
193782.000000
194715.000000
196085.000000
197391.000000
198509.000000
199382.000000
200361.000000
201660.000000
202757.000000
203954.000000
205228.000000
206304.000000
207194.000000
208030.000000
208970.000000
210372.000000
211609.000000
212594.000000
213492.000000
214418.000000
215597.000000
216468.000000
217271.000000
218102.000000
218991.000000
219839.000000
221197.000000
222463.000000
223633.000000
224552.000000
225390.000000
226371.000000
227712.000000
228945.000000
230003.000000
231147.000000
232322.000000
233286.000000
234598.000000
235852.000000
237030.000000
238292.000000
239483.000000
240476.000000
241697.000000
242991.000000
244228.000000
245318.000000
246328.000000
247611.000000
248951.000000
250150.000000
251118.000000
252215.000000
253543.000000
254804.000000
255826.000000
256819.000000
258142.000000
259340.000000
260343.000000
261291.000000
262332.000000
263698.000000
264973.000000
266126.000000
267114.000000
268291.000000
269244.000000
270126.000000
271100.000000
272355.000000
273357.000000
274516.000000
275628.000000
276554.000000
277457.000000
278765.000000
279992.000000
280989.000000
281854.000000
282780.000000
284163.000000
285510.000000
286573.000000
287731.000000
288940.000000
289922.000000
290923.000000
291942.000000
292921.000000
293896.000000
295224.000000
296467.000000
297492.000000
298748.000000
299876.000000
300893.000000
301964.000000
303104.000000
304103.000000
305313.000000
306387.000000
307338.000000
308149.000000
309022.000000
310355.000000
311313.000000
312412.000000
313522.000000
314494.000000
315530.000000
316463.000000
317337.000000
318316.000000
319227.000000
320080.000000
320938.000000
321801.000000
322642.000000
323471.000000
324445.000000
325380.000000
326279.000000
327269.000000
328284.000000
329141.000000
329986.000000
330838.000000
331652.000000
332482.000000
333342.000000
334254.000000
335087.000000
336035.000000
337025.000000
337995.000000
338908.000000
339861.000000
341118.000000
342131.000000
343068.000000
343931.000000
344852.000000
346040.000000
346963.000000
347814.000000
348611.000000
349400.000000
350290.000000
351096.000000
352392.000000
353680.000000
354816.000000
355721.000000
356548.000000
357447.000000
358749.000000
359764.000000
360668.000000
361644.000000
362926.000000
363955.000000
364866.000000
365845.000000
367104.000000
368204.000000
369466.000000
370667.000000
371641.000000
372794.000000
374057.000000
375135.000000
376424.000000
377654.000000
378704.000000
379867.000000
381042.000000
382005.000000
383106.000000
384470.000000
385522.000000
386543.000000
387971.000000
389225.000000
390513.000000
391859.000000
392875.000000
394001.000000
395402.000000
396431.000000
397849.000000
399155.000000
400259.000000
401599.000000
402787.000000
403787.000000
405136.000000
406459.000000
407510.000000
408836.000000
410095.000000
411090.000000
412136.000000
413488.000000
414760.000000
416062.000000
417213.000000
418265.000000
419637.000000
420724.000000
422080.000000
423360.000000
424474.000000
425807.000000
427118.000000
428158.000000
429574.000000
430852.000000
431956.000000
433375.000000
434640.000000
435656.000000
436857.000000
438229.000000
439371.000000
440495.000000
441657.000000
442828.000000
444062.000000
445451.000000
446535.000000
447504.000000
448866.000000
450047.000000
451125.000000
452463.000000
453597.000000
454504.000000
455433.000000
456931.000000
458264.000000
459353.000000
460710.000000
461908.000000
462946.000000
464173.000000
465354.000000
466375.000000
467686.000000
468899.000000
469901.000000
470968.000000
472013.000000
473055.000000
473980.000000
474935.000000
476003.000000
476980.000000
477879.000000
478727.000000
479669.000000
480642.000000
481532.000000
482410.000000
483339.000000
484352.000000
485236.000000
486156.000000
487114.000000
488124.000000
489056.000000
490077.000000
491108.000000
492029.000000
492968.000000
493940.000000
494888.000000
495837.000000
497090.000000
498103.000000
498987.000000
499888.000000
501089.000000
502049.000000
503158.000000
504173.000000
505055.000000
506067.000000
507122.000000
508016.000000
509122.000000
510181.000000
511069.000000
512003.000000
513025.000000
513941.000000
514847.000000
515850.000000
516966.000000
517865.000000
519061.000000
520231.000000
521205.000000
522471.000000
523703.000000
524707.000000
526047.000000
527281.000000
528250.000000
529184.000000
530596.000000
531927.000000
533016.000000
533970.000000
535376.000000
536504.000000
537487.000000
538865.000000
539929.000000
540999.000000
542133.000000
543223.000000
544254.000000
545522.000000
546579.000000
547440.000000
548434.000000
549806.000000
550912.000000
551818.000000
552736.000000
553955.000000
554886.000000
556194.000000
557549.000000
558819.000000
559799.000000
560710.000000
562108.000000
563188.000000
564144.000000
565556.000000
566776.000000
567924.000000
569201.000000
570447.000000
571676.000000
572957.000000
573955.000000
574858.000000
576238.000000
577552.000000
578622.000000
579502.000000
580425.000000
581841.000000
583080.000000
584376.000000
585658.000000
586799.000000
588069.000000
589120.000000
590255.000000
591526.000000
592626.000000
593825.000000
595044.000000
596151.000000
597453.000000
598543.000000
599489.000000
600436.000000
601858.000000
602947.000000
603901.000000
605264.000000
606429.000000
607641.000000
608862.000000
609897.000000
611020.000000
612188.000000
613199.000000
614556.000000
615687.000000
616598.000000
617514.000000
618838.000000
619852.000000
620988.000000
622298.000000
623342.000000
624310.000000
625674.000000
626699.000000
627708.000000
628936.000000
630046.000000
631088.000000
632199.000000
633175.000000
634140.000000
635430.000000
636434.000000
637376.000000
638666.000000
639887.000000
640962.000000
642198.000000
643463.000000
644518.000000
645620.000000
646917.000000
648044.000000
649051.000000
650260.000000
651426.000000
652430.000000
653692.000000
654891.000000
655971.000000
657155.000000
658397.000000
659491.000000
660504.000000
661520.000000
662710.000000
663650.000000
664793.000000
665788.000000
666748.000000
667827.000000
668964.000000
669996.000000
671089.000000
672306.000000
673328.000000
674343.000000
675440.000000
676393.000000
677518.000000
678668.000000
679662.000000
680836.000000
682039.000000
683081.000000
684404.000000
685543.000000
686678.000000
687826.000000
688937.000000
690115.000000
691412.000000
692521.000000
693595.000000
694716.000000
695747.000000
696695.000000
697971.000000
699264.000000
700242.000000
701301.000000
702455.000000
703633.000000
704859.000000
706032.000000
707009.000000
708033.000000
709159.000000
710162.000000
711465.000000
712638.000000
713681.000000
714846.000000
715849.000000
716933.000000
718285.000000
719558.000000
720615.000000
721776.000000
723059.000000
724143.000000
725404.000000
726512.000000
727528.000000
728905.000000
730138.000000
731425.000000
732765.000000
733963.000000
735019.000000
736265.000000
737349.000000
738302.000000
739413.000000
740569.000000
741605.000000
742697.000000
743852.000000
744892.000000
745989.000000
747095.000000
748192.000000
749175.000000
750207.000000
751253.000000
752211.000000
753205.000000
754308.000000
755339.000000
756270.000000
757086.000000
757864.000000
758608.000000
759361.000000
760284.000000
761138.000000
762411.000000
763469.000000
764515.000000
765889.000000
767075.000000
768106.000000
769442.000000
770437.000000
771395.000000
772723.000000
773794.000000
775093.000000
776354.000000
777427.000000
778660.000000
779786.000000
780808.000000
782116.000000
783306.000000
784394.000000
785655.000000
786781.000000
787880.000000
789111.000000
790211.000000
791294.000000
792528.000000
793627.000000
794613.000000
795818.000000
797088.000000
798144.000000
799329.000000
800476.000000
801595.000000
802794.000000
804045.000000
805140.000000
806180.000000
807275.000000
808261.000000
809372.000000
810686.000000
811768.000000
813050.000000
814334.000000
815422.000000
816593.000000
817968.000000
819184.000000
820494.000000
821858.000000
822987.000000
824106.000000
825255.000000
826421.000000
827833.000000
829169.000000
830324.000000
831690.000000
832833.000000
833806.000000
834809.000000
835765.000000
836663.000000
837561.000000
838975.000000
840172.000000
841138.000000
842170.000000
843439.000000
844434.000000
845653.000000
846910.000000
847952.000000
849106.000000
850318.000000
851454.000000
852816.000000
854011.000000
855190.000000
856562.000000
857693.000000
858859.000000
860185.000000
861339.000000
862422.000000
863453.000000
864799.000000
866043.000000
867391.000000
868705.000000
869892.000000
870986.000000
872380.000000
873691.000000
874863.000000
876192.000000
877274.000000
878258.000000
879189.000000
880142.000000
881095.000000
882483.000000
883531.000000
884749.000000
886092.000000
887078.000000
888420.000000
889593.000000
890638.000000
891897.000000
893078.000000
894310.000000
895631.000000
896836.000000
898022.000000
899351.000000
900658.000000
901838.000000
903003.000000
904021.000000
904903.000000
905766.000000
906801.000000
908128.000000
909094.000000
910133.000000
911459.000000
912436.000000
913349.000000
914270.000000
915154.000000
916070.000000
917268.000000
918262.000000
919229.000000
920189.000000
921063.000000
921925.000000
922849.000000
923750.000000
924597.000000
925451.000000
926400.000000
927175.000000
927907.000000
928608.000000
929333.000000
930093.000000
930899.000000
932019.000000
932905.000000
933723.000000
934583.000000
935468.000000
936280.000000
937073.000000
937959.000000
938892.000000
939771.000000
940675.000000
941581.000000
942394.000000
943168.000000
944001.000000
944895.000000
945738.000000
946560.000000
947467.000000
948351.000000
949168.000000
949960.000000
950784.000000
951607.000000
952416.000000
953275.000000
954192.000000
955057.000000
955863.000000
956735.000000
957635.000000
958491.000000
959284.000000
960072.000000
960933.000000
961914.000000
962815.000000
963635.000000
964491.000000
965499.000000
966468.000000
967344.000000
968312.000000
969460.000000
970468.000000
971427.000000
972602.000000
973640.000000
974512.000000
975424.000000
976721.000000
977819.000000
978905.000000
980142.000000
981304.000000
982370.000000
983584.000000
984804.000000
985826.000000
986994.000000
988082.000000
988954.000000
989946.000000
991165.000000
992217.000000
993171.000000
994468.000000
995749.000000
996797.000000
997884.000000
999028.000000
1000073.000000
1001155.000000
1002335.000000
1003419.000000
1004542.000000
1005888.000000
1006943.000000
1008085.000000
1009319.000000
1010353.000000
1011692.000000
1012882.000000
1013903.000000
1015019.000000
1016125.000000
1017086.000000
1018282.000000
1019352.000000
1020355.000000
1021428.000000
1022477.000000
1023468.000000
1024527.000000
1025559.000000
1026558.000000
1027586.000000
1028595.000000
1029559.000000
1030520.000000
1031490.000000
1032408.000000
1033506.000000
1034662.000000
1035600.000000
1036538.000000
1037521.000000
1038397.000000
1039386.000000
1040663.000000
1041606.000000
1042416.000000
1043173.000000
1043906.000000
1044718.000000
1045988.000000
1047022.000000
1048382.000000
1049611.000000
1050673.000000
1051912.000000
1053020.000000
1054036.000000
1055367.000000
1056519.000000
1057465.000000
1058791.000000
1060104.000000
1061238.000000
1062298.000000
1063538.000000
1064771.000000
1065874.000000
1067080.000000
1068221.000000
1069344.000000
1070565.000000
1071830.000000
1072898.000000
1074032.000000
1075296.000000
1076509.000000
1077577.000000
1078831.000000
1079829.000000
1080743.000000
1081651.000000
1082990.000000
1083970.000000
1085214.000000
1086366.000000
1087325.000000
1088334.000000
1089379.000000
1090345.000000
1091261.000000
1092386.000000
1093416.000000
1094348.000000
1095419.000000
1096537.000000
1097440.000000
1098470.000000
1099447.000000
1100339.000000
1101281.000000
1102291.000000
1103239.000000
1104119.000000
1105070.000000
1106095.000000
1107000.000000
1108117.000000
1109289.000000
1110204.000000
1111162.000000
1112121.000000
1113018.000000
1113993.000000
1115120.000000
1116034.000000
1116931.000000
1117876.000000
1118870.000000
1119716.000000
1120653.000000
1121603.000000
1122509.000000
1123461.000000
1124378.000000
1125282.000000
1126142.000000
1127044.000000
1127943.000000
1128785.000000
1129698.000000
1130578.000000
1131416.000000
1132222.000000
1133106.000000
1134034.000000
1135007.000000
1135866.000000
1136799.000000
1137635.000000
1138442.000000
1139282.000000
1140066.000000
1140810.000000
1141589.000000
1142343.000000
1143059.000000
1144029.000000
1144978.000000
1145780.000000
1146638.000000
1147784.000000
1148732.000000
1149683.000000
1150917.000000
1151841.000000
1152686.000000
1153641.000000
1154606.000000
1155531.000000
1156521.000000
1157476.000000
1158312.000000
1159109.000000
1159911.000000
1161151.000000
1162261.000000
1163174.000000
1164109.000000
1165128.000000
1166019.000000
1166988.000000
1168069.000000
1169048.000000
1169919.000000
1170817.000000
1171732.000000
1172586.000000
1173409.000000
1174233.000000
1175054.000000
1176044.000000
1176914.000000
1177894.000000
1179021.000000
1179934.000000
1180811.000000
1181780.000000
1182765.000000
1183707.000000
1184999.000000
1186114.000000
1187080.000000
1188156.000000
1189221.000000
1190247.000000
1191343.000000
1192505.000000
1193527.000000
1194524.000000
1195613.000000
1196784.000000
1197923.000000
1198966.000000
1200132.000000
1201532.000000
1202757.000000
1203851.000000
1205185.000000
1206535.000000
1207726.000000
1208949.000000
1210220.000000
1211312.000000
1212427.000000
1213756.000000
1214951.000000
1215991.000000
1217128.000000
1218266.000000
1219280.000000
1220382.000000
1221433.000000
1222419.000000
1223478.000000
1224579.000000
1225607.000000
1226729.000000
1227845.000000
1228882.000000
1229900.000000
1230995.000000
1232038.000000
1233084.000000
1234287.000000
1235549.000000
1236674.000000
1237906.000000
1239010.000000
1239910.000000
1240951.000000
1242275.000000
1243272.000000
1244420.000000
1245531.000000
1246499.000000
1247487.000000
1248616.000000
1249620.000000
1250662.000000
1251778.000000
1252930.000000
1253958.000000
1255033.000000
1256106.000000
1257107.000000
1258171.000000
1259295.000000
1260329.000000
1261380.000000
1262475.000000
1263510.000000
1264501.000000
1265569.000000
1266609.000000
1267565.000000
1268574.000000
1269669.000000
1270550.000000
1271449.000000
1272433.000000
1273355.000000
1274248.000000
1275259.000000
1276380.000000
1277347.000000
1278350.000000
1279390.000000
1280286.000000
1281245.000000
1282276.000000
1283211.000000
1284088.000000
1285039.000000
1286075.000000
1287032.000000
1288017.000000
1289077.000000
1290030.000000
1290966.000000
1292115.000000
1293216.000000
1294116.000000
1295121.000000
1296215.000000
1297141.000000
1298123.000000
1299392.000000
1300378.000000
1301381.000000
1302389.000000
1303359.000000
1304308.000000
1305275.000000
1306244.000000
1307129.000000
1307998.000000
1308930.000000
1309810.000000
1310708.000000
1311955.000000
1312890.000000
1313748.000000
1314709.000000
1315625.000000
1316453.000000
1317296.000000
1318229.000000
1319092.000000
1319982.000000
1320915.000000
1321858.000000
1322664.000000
1323431.000000
1324199.000000
1324968.000000
1326211.000000
1327131.000000
1328031.000000
1329057.000000
1330017.000000
1330887.000000
1331859.000000
1333008.000000
1333961.000000
1334824.000000
1335888.000000
1337148.000000
1338224.000000
1339406.000000
1340592.000000
1341562.000000
1342558.000000
1343843.000000
1344974.000000
1346004.000000
1347183.000000
1348413.000000
1349464.000000
1350788.000000
1352044.000000
1353135.000000
1354401.000000
1355631.000000
1356575.000000
1357463.000000
1358844.000000
1360045.000000
1361308.000000
1362530.000000
1363511.000000
1364374.000000
1365276.000000
1366672.000000
1367966.000000
1369192.000000
1370480.000000
1371607.000000
1372493.000000
1373337.000000
1374665.000000
1375938.000000
1377196.000000
1378270.000000
1379164.000000
1380135.000000
1381561.000000
1382932.000000
1384259.000000
1385349.000000
1386461.000000
1387831.000000
1389179.000000
1390315.000000
1391231.000000
1392107.000000
1393445.000000
1394314.000000
1395739.000000
1396807.000000
1397732.000000
1399108.000000
1400425.000000
1401566.000000
1402497.000000
1403392.000000
1404771.000000
1406097.000000
1407356.000000
1408441.000000
1409441.000000
1410747.000000
1412012.000000
1413218.000000
1414221.000000
1415188.000000
1416558.000000
1417840.000000
1419037.000000
1420022.000000
1420964.000000
1422278.000000
1423555.000000
1424770.000000
1425808.000000
1426793.000000
1428172.000000
1429478.000000
1430661.000000
1431702.000000
1432626.000000
1433529.000000
1435002.000000
1436366.000000
1437616.000000
1438714.000000
1439667.000000
1441022.000000
1442190.000000
1443030.000000
1443808.000000
1444670.000000
1445499.000000
1446402.000000
1447738.000000
1448837.000000
1449952.000000
1451158.000000
1452308.000000
1453249.000000
1454123.000000
1455246.000000
1456550.000000
1457744.000000
1458899.000000
1459842.000000
1460696.000000
1461642.000000
1463006.000000
1464111.000000
1465070.000000
1466000.000000
1467346.000000
1468604.000000
1469642.000000
1470598.000000
1471474.000000
1472291.000000
1473095.000000
1474016.000000
1475371.000000
1476378.000000
1477424.000000
1478761.000000
1480052.000000
1481256.000000
1482232.000000
1483259.000000
1484638.000000
1485976.000000
1487261.000000
1488268.000000
1489182.000000
1490577.000000
1491965.000000
1493227.000000
1494312.000000
1495224.000000
1496152.000000
1497615.000000
1498965.000000
1500253.000000
1501526.000000
1502596.000000
1503758.000000
1505080.000000
1506337.000000
1507447.000000
1508405.000000
1509344.000000
1510720.000000
1512021.000000
1513252.000000
1514295.000000
1515258.000000
1516601.000000
1517897.000000
1519009.000000
1520037.000000
1520987.000000
1521896.000000
1523167.000000
1524028.000000
1524837.000000
1526131.000000
1527111.000000
1528090.000000
1529317.000000
1530416.000000
1531309.000000
1532228.000000
1533631.000000
1534819.000000
1535886.000000
1537127.000000
1538349.000000
1539324.000000
1540336.000000
1541634.000000
1542757.000000
1543662.000000
1544559.000000
1545997.000000
1547375.000000
1548607.000000
1549759.000000
1550749.000000
1551707.000000
1553092.000000
1554380.000000
1555618.000000
1556685.000000
1557676.000000
1559002.000000
1560259.000000
1561345.000000
1562626.000000
1563950.000000
1565223.000000
1566292.000000
1567193.000000
1568363.000000
1569701.000000
1570955.000000
1572006.000000
1573096.000000
1574315.000000
1575302.000000
1576200.000000
1577563.000000
1578511.000000
1579514.000000
1580351.000000
1581167.000000
1582163.000000
1583040.000000
1584388.000000
1585709.000000
1586803.000000
1587744.000000
1589105.000000
1590404.000000
1591582.000000
1592586.000000
1593627.000000
1595019.000000
1596317.000000
1597394.000000
1598749.000000
1600059.000000
1601371.000000
1602640.000000
1603965.000000
1605166.000000
1606186.000000
1607242.000000
1608655.000000
1609938.000000
1611114.000000
1612121.000000
1613145.000000
1614439.000000
1615705.000000
1616977.000000
1618006.000000
1619062.000000
1620392.000000
1621691.000000
1622726.000000
1623933.000000
1625064.000000
1626086.000000
1627149.000000
1628509.000000
1629842.000000
1630974.000000
1631869.000000
1632711.000000
1634078.000000
1635179.000000
1636185.000000
1637294.000000
1638347.000000
1639577.000000
1640641.000000
1641716.000000
1642594.000000
1643407.000000
1644221.000000
1645543.000000
1646736.000000
1647725.000000
1648606.000000
1649475.000000
1650715.000000
1651862.000000
1653084.000000
1654264.000000
1655413.000000
1656653.000000
1657854.000000
1658861.000000
1660015.000000
1661390.000000
1662646.000000
1663865.000000
1665093.000000
1666215.000000
1667203.000000
1668543.000000
1669894.000000
1671218.000000
1672557.000000
1673851.000000
1674960.000000
1675885.000000
1676840.000000
1678289.000000
1679358.000000
1680675.000000
1681943.000000
1682942.000000
1684054.000000
1685233.000000
1686228.000000
1687512.000000
1688502.000000
1689515.000000
1690864.000000
1691868.000000
1692857.000000
1694101.000000
1695020.000000
1695893.000000
1696750.000000
1697653.000000
1698519.000000
1699640.000000
1700957.000000
1702065.000000
1703209.000000
1704436.000000
1705719.000000
1706953.000000
1707980.000000
1708955.000000
1710334.000000
1711719.000000
1713087.000000
1714393.000000
1715502.000000
1716595.000000
1717958.000000
1719371.000000
1720692.000000
1721722.000000
1722649.000000
1724096.000000
1725497.000000
1726740.000000
1727794.000000
1728714.000000
1729618.000000
1731077.000000
1732429.000000
1733637.000000
1734636.000000
1735502.000000
1736465.000000
1737439.000000
1738296.000000
1739173.000000
1740486.000000
1741606.000000
1742834.000000
1743998.000000
1745002.000000
1745960.000000
1747322.000000
1748546.000000
1749717.000000
1750727.000000
1751616.000000
1753001.000000
1754328.000000
1755598.000000
1756702.000000
1757633.000000
1758589.000000
1760075.000000
1761416.000000
1762542.000000
1763903.000000
1765217.000000
1766306.000000
1767392.000000
1768829.000000
1770203.000000
1771424.000000
1772394.000000
1773267.000000
1774655.000000
1776061.000000
1777388.000000
1778425.000000
1779579.000000
1780914.000000
1781961.000000
1783299.000000
1784666.000000
1786006.000000
1787108.000000
1788262.000000
1789516.000000
1790838.000000
1792006.000000
1792977.000000
1793926.000000
1795266.000000
1796385.000000
1797440.000000
1798732.000000
1800032.000000
