ECG (ms)
236.000000
1042.000000
1861.000000
2635.000000
3339.000000
4053.000000
4876.000000
5859.000000
6808.000000
7736.000000
8614.000000
9453.000000
10321.000000
11260.000000
12190.000000
13056.000000
13909.000000
14854.000000
15799.000000
16744.000000
17620.000000
18535.000000
19472.000000
20404.000000
21284.000000
22112.000000
22972.000000
23900.000000
24853.000000
25794.000000
26656.000000
27509.000000
28418.000000
29363.000000
30250.000000
31100.000000
32069.000000
33057.000000
33985.000000
34845.000000
35717.000000
36646.000000
37598.000000
38547.000000
39412.000000
40248.000000
41163.000000
42088.000000
43004.000000
43853.000000
44724.000000
45662.000000
46579.000000
47445.000000
48262.000000
49120.000000
50028.000000
50907.000000
51734.000000
52570.000000
53456.000000
54337.000000
55173.000000
55977.000000
56870.000000
57796.000000
58695.000000
59538.000000
60367.000000
61265.000000
62148.000000
63056.000000
63944.000000
64789.000000
65690.000000
66603.000000
67537.000000
68518.000000
69420.000000
70311.000000
71239.000000
72216.000000
73160.000000
74039.000000
74911.000000
75784.000000
76654.000000
77474.000000
78364.000000
79283.000000
80212.000000
81106.000000
81969.000000
82878.000000
83815.000000
84735.000000
85590.000000
86466.000000
87387.000000
88321.000000
89206.000000
90040.000000
90910.000000
91854.000000
92823.000000
93699.000000
94522.000000
95448.000000
96390.000000
97308.000000
98142.000000
98989.000000
99888.000000
100794.000000
101625.000000
102442.000000
103351.000000
104264.000000
105136.000000
105962.000000
106865.000000
107769.000000
108622.000000
109441.000000
110327.000000
111215.000000
112089.000000
112906.000000
113699.000000
114562.000000
115461.000000
116349.000000
117186.000000
118019.000000
118916.000000
119859.000000
120719.000000
121523.000000
122408.000000
123311.000000
124237.000000
125086.000000
125906.000000
126788.000000
127716.000000
128587.000000
129517.000000
130497.000000
131429.000000
132265.000000
133101.000000
133965.000000
134867.000000
135702.000000
136529.000000
137440.000000
138372.000000
139262.000000
140077.000000
140972.000000
141882.000000
142800.000000
143668.000000
144492.000000
145379.000000
146303.000000
147200.000000
148036.000000
148927.000000
149890.000000
150819.000000
151670.000000
152519.000000
153428.000000
154368.000000
155296.000000
156163.000000
157093.000000
158043.000000
158960.000000
159803.000000
160662.000000
161508.000000
162341.000000
163138.000000
163999.000000
164920.000000
165796.000000
166611.000000
167407.000000
168283.000000
169187.000000
170103.000000
170959.000000
171776.000000
172636.000000
173525.000000
174357.000000
175166.000000
176081.000000
177021.000000
177940.000000
178782.000000
179692.000000
180622.000000
181511.000000
182341.000000
183200.000000
184081.000000
184925.000000
185727.000000
186534.000000
187416.000000
188303.000000
189136.000000
189938.000000
190831.000000
191739.000000
192660.000000
193513.000000
194344.000000
195250.000000
196155.000000
196975.000000
197775.000000
198596.000000
199455.000000
200302.000000
201106.000000
201932.000000
202824.000000
203678.000000
204474.000000
205262.000000
206095.000000
206958.000000
207782.000000
208608.000000
209476.000000
210364.000000
211234.000000
212031.000000
212787.000000
213562.000000
214368.000000
215149.000000
215896.000000
216687.000000
217653.000000
218586.000000
219463.000000
220276.000000
221149.000000
222054.000000
222954.000000
223776.000000
224586.000000
225384.000000
226227.000000
227035.000000
227826.000000
228676.000000
229579.000000
230480.000000
231309.000000
232122.000000
232982.000000
233873.000000
234694.000000
235484.000000
236293.000000
237208.000000
238136.000000
239019.000000
239845.000000
240692.000000
241592.000000
242442.000000
243235.000000
244030.000000
244874.000000
245747.000000
246589.000000
247428.000000
248334.000000
249238.000000
250065.000000
250849.000000
251654.000000
252514.000000
253398.000000
254254.000000
255058.000000
255923.000000
256807.000000
257640.000000
258433.000000
259278.000000
260186.000000
261049.000000
261851.000000
262675.000000
263537.000000
264424.000000
265260.000000
266088.000000
267008.000000
267912.000000
268817.000000
269665.000000
270496.000000
271342.000000
272152.000000
272943.000000
273798.000000
274714.000000
275565.000000
276364.000000
277204.000000
278065.000000
278850.000000
279630.000000
280444.000000
281308.000000
282108.000000
282871.000000
283697.000000
284588.000000
285406.000000
286176.000000
286964.000000
287787.000000
288584.000000
289348.000000
290115.000000
290902.000000
291716.000000
292467.000000
293206.000000
293957.000000
294786.000000
295568.000000
296300.000000
297055.000000
297917.000000
298827.000000
299659.000000
300457.000000
301286.000000
302148.000000
302992.000000
303800.000000
304650.000000
305504.000000
306344.000000
307143.000000
308000.000000
308884.000000
309781.000000
310616.000000
311433.000000
312252.000000
313105.000000
313878.000000
314634.000000
315437.000000
316272.000000
317105.000000
317882.000000
318689.000000
319546.000000
320391.000000
321176.000000
321943.000000
322720.000000
323510.000000
324284.000000
325035.000000
325800.000000
326558.000000
327374.000000
328202.000000
328978.000000
329760.000000
330624.000000
331549.000000
332468.000000
333299.000000
334109.000000
334960.000000
335817.000000
336677.000000
337516.000000
338321.000000
339154.000000
339975.000000
340797.000000
341575.000000
342358.000000
343200.000000
344038.000000
344805.000000
345512.000000
346196.000000
346903.000000
347778.000000
348674.000000
349476.000000
350259.000000
351092.000000
351988.000000
352847.000000
353669.000000
354575.000000
355478.000000
356383.000000
357263.000000
358127.000000
359017.000000
359912.000000
360800.000000
361612.000000
362453.000000
363343.000000
364240.000000
365052.000000
365863.000000
366708.000000
367573.000000
368381.000000
369219.000000
370105.000000
370982.000000
371782.000000
372570.000000
373391.000000
374254.000000
375087.000000
375891.000000
376725.000000
377621.000000
378481.000000
379274.000000
380086.000000
380930.000000
381797.000000
382615.000000
383402.000000
384222.000000
385095.000000
385940.000000
386730.000000
387541.000000
388404.000000
389298.000000
390162.000000
390985.000000
391860.000000
392718.000000
393576.000000
394395.000000
395261.000000
396147.000000
396970.000000
397839.000000
398732.000000
399659.000000
400537.000000
401419.000000
402344.000000
403232.000000
404125.000000
404998.000000
405950.000000
406902.000000
407783.000000
408623.000000
409536.000000
410523.000000
411475.000000
412352.000000
413254.000000
414204.000000
415184.000000
416057.000000
416866.000000
417711.000000
418597.000000
419504.000000
420395.000000
421330.000000
422322.000000
423269.000000
424112.000000
424943.000000
425815.000000
426701.000000
427531.000000
428337.000000
429194.000000
430107.000000
430962.000000
431788.000000
432680.000000
433589.000000
434426.000000
435239.000000
436172.000000
437133.000000
438011.000000
438813.000000
439658.000000
440514.000000
441352.000000
442149.000000
443058.000000
443990.000000
444843.000000
445646.000000
446537.000000
447429.000000
448306.000000
449113.000000
449948.000000
450809.000000
451693.000000
452556.000000
453401.000000
454335.000000
455316.000000
456279.000000
457192.000000
458137.000000
459120.000000
460096.000000
460992.000000
461803.000000
462607.000000
463616.000000
464607.000000
465545.000000
466453.000000
467369.000000
468302.000000
469170.000000
470003.000000
470893.000000
471790.000000
472713.000000
473635.000000
474493.000000
475376.000000
476307.000000
477249.000000
478100.000000
478978.000000
479838.000000
480628.000000
481402.000000
482254.000000
483183.000000
484107.000000
484958.000000
485810.000000
486714.000000
487619.000000
488425.000000
489216.000000
490013.000000
490807.000000
491612.000000
492509.000000
493444.000000
494318.000000
495128.000000
495970.000000
496879.000000
497767.000000
498582.000000
499399.000000
500268.000000
501167.000000
502055.000000
502884.000000
503718.000000
504638.000000
505598.000000
506492.000000
507299.000000
508133.000000
508993.000000
509854.000000
510653.000000
511437.000000
512238.000000
513076.000000
513937.000000
514762.000000
515601.000000
516438.000000
517285.000000
518124.000000
518917.000000
519742.000000
520582.000000
521416.000000
522203.000000
523006.000000
523805.000000
524677.000000
525563.000000
526371.000000
527149.000000
527954.000000
528792.000000
529602.000000
530422.000000
531358.000000
532280.000000
533107.000000
533903.000000
534738.000000
535567.000000
536368.000000
537220.000000
538088.000000
538886.000000
539692.000000
540532.000000
541395.000000
542198.000000
542992.000000
543838.000000
544743.000000
545598.000000
546409.000000
547240.000000
548089.000000
548946.000000
549766.000000
550554.000000
551343.000000
552152.000000
552963.000000
553754.000000
554518.000000
555327.000000
556219.000000
557087.000000
557887.000000
558675.000000
559502.000000
560354.000000
561153.000000
561908.000000
562747.000000
563689.000000
564638.000000
565529.000000
566399.000000
567323.000000
568236.000000
569094.000000
569975.000000
570935.000000
571893.000000
572768.000000
573624.000000
574528.000000
575488.000000
576431.000000
577323.000000
578265.000000
579217.000000
580187.000000
581076.000000
581911.000000
582850.000000
583802.000000
584750.000000
585661.000000
586554.000000
587519.000000
588498.000000
589434.000000
590295.000000
591191.000000
592115.000000
593039.000000
593913.000000
594806.000000
595758.000000
596688.000000
597589.000000
598555.000000
599585.000000
600579.000000
601494.000000
602472.000000
603461.000000
604376.000000
605383.000000
606406.000000
607359.000000
608245.000000
609209.000000
610225.000000
611173.000000
612132.000000
613083.000000
613997.000000
614833.000000
615669.000000
616568.000000
617549.000000
618442.000000
619277.000000
620140.000000
621053.000000
621940.000000
622764.000000
623631.000000
624541.000000
625504.000000
626453.000000
627325.000000
628234.000000
629168.000000
630072.000000
630907.000000
631831.000000
632791.000000
633679.000000
634529.000000
635415.000000
636324.000000
637212.000000
638009.000000
638793.000000
639633.000000
640561.000000
641426.000000
642223.000000
643068.000000
643952.000000
644854.000000
645714.000000
646553.000000
647406.000000
648231.000000
649056.000000
649835.000000
650619.000000
651461.000000
652376.000000
653305.000000
654192.000000
655083.000000
656010.000000
656946.000000
657797.000000
658646.000000
659546.000000
660437.000000
661261.000000
662096.000000
663013.000000
663930.000000
664781.000000
665578.000000
666425.000000
667309.000000
668132.000000
668908.000000
669717.000000
670575.000000
671400.000000
672178.000000
672973.000000
673777.000000
674615.000000
675442.000000
676224.000000
677056.000000
677941.000000
678845.000000
679689.000000
680491.000000
681328.000000
682215.000000
683105.000000
683922.000000
684741.000000
685584.000000
686433.000000
687232.000000
688033.000000
688882.000000
689719.000000
690509.000000
691283.000000
692105.000000
692920.000000
693840.000000
694785.000000
695665.000000
696524.000000
697389.000000
698247.000000
699055.000000
699902.000000
700827.000000
701749.000000
702578.000000
703422.000000
704331.000000
705234.000000
706117.000000
706931.000000
707728.000000
708566.000000
709415.000000
710294.000000
711099.000000
711896.000000
712741.000000
713652.000000
714521.000000
715322.000000
716088.000000
716815.000000
717524.000000
718286.000000
719062.000000
719937.000000
720846.000000
721662.000000
722439.000000
723248.000000
724143.000000
725135.000000
726000.000000
726844.000000
727763.000000
728745.000000
729709.000000
730605.000000
731555.000000
732548.000000
733486.000000
734333.000000
735225.000000
736081.000000
736886.000000
737700.000000
738586.000000
739494.000000
740347.000000
741146.000000
741972.000000
742850.000000
743715.000000
744555.000000
745464.000000
746417.000000
747340.000000
748187.000000
749008.000000
749860.000000
750699.000000
751524.000000
752357.000000
753247.000000
754139.000000
754986.000000
755827.000000
756674.000000
757535.000000
758355.000000
759162.000000
759988.000000
760809.000000
761621.000000
762396.000000
763158.000000
763978.000000
764847.000000
765668.000000
766453.000000
767258.000000
768055.000000
768836.000000
769591.000000
770343.000000
771119.000000
771918.000000
772675.000000
773401.000000
774131.000000
774874.000000
775613.000000
776345.000000
777075.000000
777844.000000
778661.000000
779479.000000
780265.000000
781081.000000
781897.000000
782704.000000
783445.000000
784187.000000
784945.000000
785710.000000
786437.000000
787151.000000
787891.000000
788699.000000
789544.000000
790320.000000
791090.000000
791886.000000
792721.000000
793553.000000
794340.000000
795134.000000
795967.000000
796801.000000
797589.000000
798339.000000
799121.000000
799974.000000
800810.000000
801619.000000
802388.000000
803180.000000
803974.000000
804770.000000
805563.000000
806325.000000
807114.000000
807936.000000
808795.000000
809602.000000
810396.000000
811247.000000
812116.000000
812937.000000
813772.000000
814647.000000
815525.000000
816396.000000
817209.000000
818018.000000
818887.000000
819782.000000
820670.000000
821573.000000
822417.000000
823205.000000
824035.000000
824907.000000
825748.000000
826552.000000
827400.000000
828326.000000
829280.000000
830160.000000
830985.000000
831806.000000
832729.000000
833606.000000
834447.000000
835266.000000
836182.000000
837040.000000
837840.000000
838647.000000
839474.000000
840299.000000
841104.000000
841895.000000
842732.000000
843626.000000
844534.000000
845340.000000
846132.000000
846960.000000
847808.000000
848643.000000
849442.000000
850305.000000
851266.000000
852194.000000
853040.000000
853825.000000
854657.000000
855494.000000
856345.000000
857188.000000
858025.000000
858914.000000
859840.000000
860723.000000
861515.000000
862322.000000
863153.000000
864092.000000
865075.000000
865993.000000
866831.000000
867621.000000
868414.000000
869246.000000
870105.000000
870916.000000
871755.000000
872653.000000
873546.000000
874443.000000
875272.000000
876055.000000
876889.000000
877743.000000
878561.000000
879332.000000
880097.000000
880905.000000
881739.000000
882554.000000
883355.000000
884204.000000
885075.000000
885976.000000
886815.000000
887626.000000
888444.000000
889272.000000
890134.000000
890996.000000
891849.000000
892711.000000
893577.000000
894425.000000
895225.000000
896043.000000
896955.000000
897926.000000
898908.000000
899802.000000
900618.000000
901470.000000
902351.000000
903204.000000
904014.000000
904879.000000
905854.000000
906823.000000
907746.000000
908595.000000
909481.000000
910383.000000
911199.000000
912006.000000
912890.000000
913819.000000
914721.000000
915551.000000
916437.000000
917351.000000
918232.000000
919035.000000
919822.000000
920759.000000
921685.000000
922599.000000
923476.000000
924394.000000
925338.000000
926267.000000
927165.000000
928082.000000
929017.000000
929944.000000
930817.000000
931695.000000
932698.000000
933701.000000
934678.000000
935622.000000
936519.000000
937468.000000
938492.000000
939500.000000
940439.000000
941406.000000
942412.000000
943437.000000
944458.000000
945388.000000
946249.000000
947178.000000
948120.000000
949030.000000
949857.000000
950701.000000
951656.000000
952624.000000
953547.000000
954395.000000
955300.000000
956243.000000
957147.000000
958012.000000
958942.000000
959894.000000
960798.000000
961670.000000
962489.000000
963341.000000
964280.000000
965234.000000
966177.000000
967079.000000
968008.000000
968944.000000
969890.000000
970776.000000
971650.000000
972580.000000
973519.000000
974389.000000
975211.000000
976150.000000
977082.000000
977972.000000
978778.000000
979602.000000
980450.000000
981313.000000
982127.000000
982923.000000
983704.000000
984514.000000
985296.000000
986066.000000
986905.000000
987806.000000
988671.000000
989488.000000
990354.000000
991275.000000
992081.000000
992850.000000
993634.000000
994479.000000
995388.000000
996308.000000
997182.000000
998078.000000
999008.000000
999925.000000
1000760.000000
1001569.000000
1002425.000000
1003277.000000
1004133.000000
1004963.000000
1005826.000000
1006700.000000
1007505.000000
1008286.000000
1009118.000000
1010003.000000
1010881.000000
1011733.000000
1012574.000000
1013442.000000
1014407.000000
1015331.000000
1016183.000000
1016992.000000
1017835.000000
1018752.000000
1019666.000000
1020547.000000
1021369.000000
1022227.000000
1023101.000000
1023943.000000
1024737.000000
1025549.000000
1026407.000000
1027314.000000
1028123.000000
1028881.000000
1029679.000000
1030536.000000
1031382.000000
1032196.000000
1033039.000000
1033920.000000
1034831.000000
1035720.000000
1036638.000000
1037512.000000
1038309.000000
1039111.000000
1039970.000000
1040833.000000
1041681.000000
1042492.000000
1043359.000000
1044269.000000
1045171.000000
1046059.000000
1046963.000000
1047853.000000
1048691.000000
1049496.000000
1050318.000000
1051207.000000
1052115.000000
1052948.000000
1053745.000000
1054593.000000
1055542.000000
1056414.000000
1057204.000000
1058003.000000
1058831.000000
1059739.000000
1060605.000000
1061438.000000
1062370.000000
1063331.000000
1064282.000000
1065153.000000
1066059.000000
1066973.000000
1067866.000000
1068718.000000
1069506.000000
1070289.000000
1071180.000000
1072113.000000
1073002.000000
1073874.000000
1074770.000000
1075720.000000
1076640.000000
1077513.000000
1078462.000000
1079403.000000
1080287.000000
1081119.000000
1082023.000000
1083017.000000
1084004.000000
1084911.000000
1085819.000000
1086788.000000
1087761.000000
1088671.000000
1089603.000000
1090562.000000
1091568.000000
1092580.000000
1093480.000000
1094377.000000
1095320.000000
1096242.000000
1097100.000000
1098002.000000
1098973.000000
1099912.000000
1100749.000000
1101602.000000
1102526.000000
1103464.000000
1104309.000000
1105131.000000
1105971.000000
1106882.000000
1107726.000000
1108590.000000
1109478.000000
1110383.000000
1111239.000000
1112022.000000
1112797.000000
1113582.000000
1114388.000000
1115151.000000
1115905.000000
1116723.000000
1117596.000000
1118413.000000
1119213.000000
1120096.000000
1121026.000000
1121962.000000
1122889.000000
1123800.000000
1124705.000000
1125631.000000
1126585.000000
1127551.000000
1128451.000000
1129384.000000
1130362.000000
1131348.000000
1132283.000000
1133190.000000
1134135.000000
1135123.000000
1136111.000000
1137041.000000
1137914.000000
1138818.000000
1139763.000000
1140713.000000
1141584.000000
1142410.000000
1143276.000000
1144202.000000
1145142.000000
1146026.000000
1146875.000000
1147756.000000
1148670.000000
1149534.000000
1150352.000000
1151262.000000
1152229.000000
1153134.000000
1154016.000000
1154940.000000
1155866.000000
1156745.000000
1157579.000000
1158488.000000
1159439.000000
1160399.000000
1161329.000000
1162218.000000
1163138.000000
1164061.000000
1164951.000000
1165818.000000
1166773.000000
1167739.000000
1168639.000000
1169505.000000
1170393.000000
1171319.000000
1172210.000000
1173124.000000
1174077.000000
1174998.000000
1175789.000000
1176536.000000
1177301.000000
1178108.000000
1179055.000000
1180029.000000
1180955.000000
1181837.000000
1182763.000000
1183740.000000
1184753.000000
1185689.000000
1186589.000000
1187612.000000
1188653.000000
1189651.000000
1190554.000000
1191414.000000
1192321.000000
1193292.000000
1194268.000000
1195172.000000
1196090.000000
1197076.000000
1198055.000000
1198957.000000
1199825.000000
1200803.000000
1201832.000000
