ECG (ms)
359.000000
1242.000000
2042.000000
2789.000000
3510.000000
4227.000000
4956.000000
5680.000000
6393.000000
7108.000000
7869.000000
8641.000000
9469.000000
10280.000000
11041.000000
11847.000000
12663.000000
13499.000000
14316.000000
15101.000000
15897.000000
16719.000000
17529.000000
18360.000000
19231.000000
20058.000000
20882.000000
21748.000000
22608.000000
23549.000000
24459.000000
25311.000000
26101.000000
26869.000000
27699.000000
28577.000000
29506.000000
30440.000000
31336.000000
32203.000000
33013.000000
33791.000000
34632.000000
35553.000000
36500.000000
37422.000000
38341.000000
39221.000000
40051.000000
40883.000000
41746.000000
42639.000000
43521.000000
44390.000000
45226.000000
46015.000000
46771.000000
47503.000000
48213.000000
48931.000000
49732.000000
50599.000000
51467.000000
52332.000000
53220.000000
54117.000000
54947.000000
55741.000000
56566.000000
57411.000000
58293.000000
59205.000000
60054.000000
60861.000000
61675.000000
62564.000000
63527.000000
64612.000000
65621.000000
66514.000000
67340.000000
68143.000000
68963.000000
69781.000000
70614.000000
71508.000000
72411.000000
73286.000000
74119.000000
74914.000000
75695.000000
76482.000000
77407.000000
78379.000000
79321.000000
80289.000000
81243.000000
82135.000000
82965.000000
83743.000000
84530.000000
85523.000000
86457.000000
87408.000000
88328.000000
89193.000000
89999.000000
90839.000000
91739.000000
92705.000000
93616.000000
94462.000000
95400.000000
96346.000000
97302.000000
98236.000000
99176.000000
100039.000000
100853.000000
101644.000000
102427.000000
103199.000000
103941.000000
104731.000000
105687.000000
106601.000000
107500.000000
108382.000000
109254.000000
110135.000000
111019.000000
111846.000000
112665.000000
113476.000000
114309.000000
115185.000000
116098.000000
116988.000000
117888.000000
118731.000000
119535.000000
120347.000000
121206.000000
122087.000000
122982.000000
123894.000000
124792.000000
125654.000000
126461.000000
127249.000000
128019.000000
128796.000000
129618.000000
130452.000000
131304.000000
132171.000000
133031.000000
133886.000000
134691.000000
135494.000000
136276.000000
137043.000000
137829.000000
138649.000000
139536.000000
140439.000000
141336.000000
142236.000000
143106.000000
143961.000000
144813.000000
145641.000000
146441.000000
147216.000000
148015.000000
148876.000000
149774.000000
150671.000000
151571.000000
152452.000000
153336.000000
154161.000000
154941.000000
155704.000000
156451.000000
157227.000000
158090.000000
159014.000000
159919.000000
160839.000000
161747.000000
162645.000000
163493.000000
164381.000000
165263.000000
166146.000000
167028.000000
167848.000000
168633.000000
169393.000000
170138.000000
170896.000000
171716.000000
172585.000000
173468.000000
174366.000000
175275.000000
176144.000000
177019.000000
177848.000000
178632.000000
179382.000000
180124.000000
180913.000000
181782.000000
182687.000000
183608.000000
184496.000000
185377.000000
186178.000000
186962.000000
187733.000000
188508.000000
189428.000000
190326.000000
191243.000000
192079.000000
192830.000000
193550.000000
194268.000000
195011.000000
195777.000000
196537.000000
197305.000000
198121.000000
198942.000000
199762.000000
200601.000000
201430.000000
202220.000000
203001.000000
203770.000000
204521.000000
205291.000000
206112.000000
206941.000000
207798.000000
208649.000000
209491.000000
210302.000000
211111.000000
211894.000000
212689.000000
213556.000000
214413.000000
215259.000000
216095.000000
217002.000000
217866.000000
218687.000000
219579.000000
220472.000000
221401.000000
222325.000000
223145.000000
223931.000000
224762.000000
225650.000000
226566.000000
227491.000000
228333.000000
229138.000000
229941.000000
230826.000000
231746.000000
232638.000000
233537.000000
234366.000000
235150.000000
235922.000000
236665.000000
237410.000000
238182.000000
239021.000000
239909.000000
240841.000000
241745.000000
242628.000000
243476.000000
244290.000000
245077.000000
245851.000000
246667.000000
247577.000000
248495.000000
249388.000000
250262.000000
251110.000000
251915.000000
252735.000000
253537.000000
254327.000000
255172.000000
256053.000000
256999.000000
257889.000000
258755.000000
259603.000000
260420.000000
261199.000000
261977.000000
262742.000000
263501.000000
264277.000000
265173.000000
266096.000000
267012.000000
267894.000000
268765.000000
269633.000000
270463.000000
271248.000000
272017.000000
272779.000000
273536.000000
274348.000000
275228.000000
276111.000000
276993.000000
277862.000000
278715.000000
279547.000000
280361.000000
281159.000000
282006.000000
282955.000000
283911.000000
284835.000000
285746.000000
286551.000000
287336.000000
288093.000000
288830.000000
289595.000000
290409.000000
291278.000000
292178.000000
293066.000000
293976.000000
294878.000000
295742.000000
296555.000000
297395.000000
298312.000000
299248.000000
300231.000000
301171.000000
302061.000000
302877.000000
303648.000000
304405.000000
305147.000000
305919.000000
306733.000000
307634.000000
308528.000000
309396.000000
310298.000000
311183.000000
312119.000000
312981.000000
313773.000000
314535.000000
315284.000000
316023.000000
316817.000000
317707.000000
318606.000000
319456.000000
320257.000000
321040.000000
321823.000000
322594.000000
323364.000000
324128.000000
324882.000000
325671.000000
326521.000000
327372.000000
328234.000000
329083.000000
329996.000000
330904.000000
331816.000000
332705.000000
333583.000000
334548.000000
335527.000000
336493.000000
337440.000000
338371.000000
339262.000000
340114.000000
340919.000000
341733.000000
342610.000000
343520.000000
344399.000000
345295.000000
346134.000000
346917.000000
347693.000000
348459.000000
349256.000000
350065.000000
350905.000000
351782.000000
352648.000000
353518.000000
354412.000000
355298.000000
356203.000000
357109.000000
358005.000000
358891.000000
359785.000000
360690.000000
361490.000000
362259.000000
363034.000000
363843.000000
364668.000000
365474.000000
366327.000000
367117.000000
367875.000000
368613.000000
369342.000000
370079.000000
370856.000000
371709.000000
372580.000000
373387.000000
374147.000000
374885.000000
375605.000000
376347.000000
377179.000000
378040.000000
378885.000000
379677.000000
380445.000000
381268.000000
382092.000000
382929.000000
383776.000000
384601.000000
385395.000000
386178.000000
386983.000000
387808.000000
388633.000000
389473.000000
390322.000000
391143.000000
391934.000000
392721.000000
393500.000000
394276.000000
395031.000000
395802.000000
396717.000000
397632.000000
398519.000000
399350.000000
400156.000000
401012.000000
401879.000000
402721.000000
403547.000000
404370.000000
405221.000000
406079.000000
406961.000000
407835.000000
408667.000000
409442.000000
410188.000000
410948.000000
411755.000000
412620.000000
413451.000000
414295.000000
415133.000000
415974.000000
416806.000000
417631.000000
418441.000000
419297.000000
420187.000000
421086.000000
421945.000000
422743.000000
423523.000000
424295.000000
425129.000000
425986.000000
426855.000000
427690.000000
428485.000000
429258.000000
430021.000000
430775.000000
431524.000000
432410.000000
433269.000000
434128.000000
434987.000000
435881.000000
436769.000000
437641.000000
438521.000000
439358.000000
440207.000000
441021.000000
441813.000000
442605.000000
443469.000000
444356.000000
445263.000000
446145.000000
447003.000000
447857.000000
448692.000000
449528.000000
450310.000000
451080.000000
451844.000000
452679.000000
453556.000000
454431.000000
455323.000000
456198.000000
457059.000000
457930.000000
458803.000000
459719.000000
460596.000000
461418.000000
462188.000000
462933.000000
463662.000000
464399.000000
465171.000000
465967.000000
466744.000000
467544.000000
468360.000000
469196.000000
470028.000000
470869.000000
471689.000000
472529.000000
473409.000000
474305.000000
475210.000000
476095.000000
476927.000000
477722.000000
478567.000000
479450.000000
480356.000000
481233.000000
482113.000000
482932.000000
483708.000000
484485.000000
485344.000000
486247.000000
487173.000000
488111.000000
488978.000000
489809.000000
490585.000000
491337.000000
492065.000000
492799.000000
493567.000000
494366.000000
495149.000000
495980.000000
496843.000000
497718.000000
498633.000000
499530.000000
500382.000000
501234.000000
502107.000000
502930.000000
503782.000000
504668.000000
505547.000000
506372.000000
507199.000000
507979.000000
508760.000000
509598.000000
510498.000000
511385.000000
512256.000000
513111.000000
513897.000000
514654.000000
515396.000000
516121.000000
516871.000000
517732.000000
518618.000000
519511.000000
520392.000000
521270.000000
522122.000000
522983.000000
523837.000000
524717.000000
525671.000000
526589.000000
527487.000000
528340.000000
529149.000000
529990.000000
530860.000000
531689.000000
532622.000000
533484.000000
534302.000000
535092.000000
535908.000000
536783.000000
537677.000000
538551.000000
539371.000000
540186.000000
540989.000000
541840.000000
542692.000000
543558.000000
544468.000000
545364.000000
546249.000000
547116.000000
547991.000000
548873.000000
549783.000000
550684.000000
551518.000000
552312.000000
553060.000000
553790.000000
554533.000000
555317.000000
556118.000000
556932.000000
557769.000000
558613.000000
559458.000000
560231.000000
560968.000000
561695.000000
562441.000000
563253.000000
564075.000000
564943.000000
565838.000000
566758.000000
567652.000000
568516.000000
569406.000000
570346.000000
571253.000000
572100.000000
572907.000000
573661.000000
574390.000000
575105.000000
575821.000000
576563.000000
577332.000000
578075.000000
578789.000000
579506.000000
580264.000000
581077.000000
581832.000000
582572.000000
583302.000000
584033.000000
584835.000000
585632.000000
586403.000000
587143.000000
587852.000000
588537.000000
589217.000000
589899.000000
590580.000000
591272.000000
592010.000000
592817.000000
593666.000000
594478.000000
595239.000000
595972.000000
596697.000000
597407.000000
598093.000000
598777.000000
599492.000000
600263.000000
601066.000000
601897.000000
602722.000000
603533.000000
604331.000000
605140.000000
605960.000000
606779.000000
607596.000000
608357.000000
609168.000000
609985.000000
610819.000000
611630.000000
612483.000000
613363.000000
614261.000000
615176.000000
616014.000000
616789.000000
617539.000000
618285.000000
619083.000000
619948.000000
620792.000000
621618.000000
622437.000000
623243.000000
624014.000000
624764.000000
625514.000000
626283.000000
627042.000000
627780.000000
628514.000000
629233.000000
629944.000000
630636.000000
631315.000000
631973.000000
632607.000000
633230.000000
633855.000000
634503.000000
635181.000000
635849.000000
636542.000000
637266.000000
638040.000000
638887.000000
639732.000000
640580.000000
641412.000000
642159.000000
642906.000000
643703.000000
644523.000000
645366.000000
646219.000000
647063.000000
647916.000000
648797.000000
649701.000000
650660.000000
651575.000000
652441.000000
653248.000000
654090.000000
654995.000000
655915.000000
656790.000000
657640.000000
658592.000000
659552.000000
660498.000000
661413.000000
662275.000000
663127.000000
664016.000000
664939.000000
665876.000000
666814.000000
667741.000000
668584.000000
669355.000000
670112.000000
670874.000000
671742.000000
672676.000000
673617.000000
674533.000000
675437.000000
676327.000000
677179.000000
677954.000000
678690.000000
679416.000000
680141.000000
680880.000000
681657.000000
682467.000000
683339.000000
684194.000000
685048.000000
685962.000000
686859.000000
687749.000000
688606.000000
689481.000000
690360.000000
691231.000000
692080.000000
692951.000000
693836.000000
694756.000000
695687.000000
696656.000000
697606.000000
698421.000000
699172.000000
699902.000000
700607.000000
701348.000000
702288.000000
703150.000000
704138.000000
705090.000000
706105.000000
707124.000000
708082.000000
708998.000000
709833.000000
710698.000000
711639.000000
712694.000000
713668.000000
714648.000000
715566.000000
716374.000000
717204.000000
718029.000000
718863.000000
719649.000000
720451.000000
721364.000000
722340.000000
723322.000000
724247.000000
725192.000000
726159.000000
727156.000000
728156.000000
729088.000000
729916.000000
730690.000000
731497.000000
732410.000000
733430.000000
734441.000000
735470.000000
736367.000000
737175.000000
737948.000000
738771.000000
739643.000000
740632.000000
741674.000000
742638.000000
743609.000000
744583.000000
745551.000000
746515.000000
747501.000000
748432.000000
749251.000000
750004.000000
750732.000000
751459.000000
752231.000000
753046.000000
753891.000000
754764.000000
755706.000000
756634.000000
757582.000000
758545.000000
759547.000000
760529.000000
761449.000000
762321.000000
763185.000000
764143.000000
765143.000000
766121.000000
767104.000000
768083.000000
769100.000000
770096.000000
771094.000000
772152.000000
773205.000000
774246.000000
775208.000000
776139.000000
777097.000000
778080.000000
778981.000000
779775.000000
780570.000000
781387.000000
782288.000000
783200.000000
784103.000000
784960.000000
785737.000000
786479.000000
787202.000000
787974.000000
788862.000000
789715.000000
790484.000000
791221.000000
791934.000000
792628.000000
793364.000000
794196.000000
795044.000000
795892.000000
796739.000000
797624.000000
798417.000000
799175.000000
799913.000000
800650.000000
801440.000000
802247.000000
803024.000000
803789.000000
804569.000000
805330.000000
806099.000000
806863.000000
807678.000000
808518.000000
809396.000000
810249.000000
811058.000000
811832.000000
812594.000000
813348.000000
814139.000000
814973.000000
815818.000000
816667.000000
817551.000000
818433.000000
819228.000000
819990.000000
820725.000000
821440.000000
822148.000000
822904.000000
823725.000000
824564.000000
825395.000000
826250.000000
827116.000000
827967.000000
828810.000000
829632.000000
830411.000000
831154.000000
831887.000000
832676.000000
833552.000000
834437.000000
835333.000000
836243.000000
837060.000000
837843.000000
838624.000000
839394.000000
840216.000000
841142.000000
842077.000000
843006.000000
843943.000000
844867.000000
845697.000000
846484.000000
847279.000000
848116.000000
849042.000000
849953.000000
850755.000000
851533.000000
852283.000000
853039.000000
853846.000000
854758.000000
855630.000000
856535.000000
857434.000000
858308.000000
859261.000000
860087.000000
860865.000000
861623.000000
862368.000000
863216.000000
864097.000000
864966.000000
865826.000000
866657.000000
867463.000000
868253.000000
869032.000000
869905.000000
870773.000000
871625.000000
872472.000000
873326.000000
874171.000000
875000.000000
875855.000000
876723.000000
877598.000000
878512.000000
879377.000000
880191.000000
880972.000000
881742.000000
882552.000000
883368.000000
884182.000000
885015.000000
885856.000000
886708.000000
887529.000000
888280.000000
889008.000000
889722.000000
890420.000000
891155.000000
891991.000000
892792.000000
893594.000000
894441.000000
895304.000000
896185.000000
897019.000000
897847.000000
898646.000000
899484.000000
900379.000000
901242.000000
902135.000000
902969.000000
903745.000000
904540.000000
905434.000000
906332.000000
907194.000000
908034.000000
908898.000000
909781.000000
910698.000000
911595.000000
912438.000000
913218.000000
914028.000000
914883.000000
915807.000000
916696.000000
917640.000000
918537.000000
919370.000000
920298.000000
921225.000000
922111.000000
922913.000000
923676.000000
924415.000000
925151.000000
925962.000000
926830.000000
927601.000000
928337.000000
929073.000000
929839.000000
930690.000000
931557.000000
932454.000000
933303.000000
934204.000000
935154.000000
936114.000000
936960.000000
937747.000000
938598.000000
939571.000000
940545.000000
941514.000000
942470.000000
943310.000000
944133.000000
944977.000000
945844.000000
946742.000000
947689.000000
948674.000000
949605.000000
950533.000000
951505.000000
952480.000000
953347.000000
954150.000000
954927.000000
955768.000000
956604.000000
957449.000000
958322.000000
959231.000000
960076.000000
960907.000000
961807.000000
962808.000000
963802.000000
964797.000000
965756.000000
966726.000000
967574.000000
968337.000000
969073.000000
969793.000000
970566.000000
971421.000000
972259.000000
973132.000000
974010.000000
974906.000000
975784.000000
976556.000000
977300.000000
978026.000000
978739.000000
979467.000000
980225.000000
981026.000000
981799.000000
982585.000000
983349.000000
984095.000000
984883.000000
985646.000000
986394.000000
987129.000000
987859.000000
988618.000000
989472.000000
990383.000000
991229.000000
992059.000000
992845.000000
993606.000000
994384.000000
995196.000000
996023.000000
996839.000000
997615.000000
998390.000000
999157.000000
999918.000000
1000711.000000
1001565.000000
1002472.000000
1003399.000000
1004332.000000
1005120.000000
1005879.000000
1006652.000000
1007496.000000
1008382.000000
1009294.000000
1010244.000000
1011131.000000
1012019.000000
1012848.000000
1013672.000000
1014535.000000
1015394.000000
1016261.000000
1017220.000000
1018133.000000
1019001.000000
1019899.000000
1020808.000000
1021720.000000
1022806.000000
1023824.000000
1024670.000000
1025457.000000
1026219.000000
1027016.000000
1027859.000000
1028770.000000
1029714.000000
1030697.000000
1031644.000000
1032555.000000
1033423.000000
1034328.000000
1035292.000000
1036285.000000
1037212.000000
1038118.000000
1039075.000000
1040029.000000
1040978.000000
1041897.000000
1042835.000000
1043809.000000
1044834.000000
1045829.000000
1046786.000000
1047770.000000
1048801.000000
1049821.000000
1050808.000000
1051779.000000
1052636.000000
1053411.000000
1054209.000000
1055037.000000
1055924.000000
1056828.000000
1057735.000000
1058650.000000
1059583.000000
1060490.000000
1061287.000000
1062094.000000
1062902.000000
1063725.000000
1064572.000000
1065418.000000
1066267.000000
1067059.000000
1067858.000000
1068690.000000
1069540.000000
1070386.000000
1071180.000000
1071997.000000
1072861.000000
1073734.000000
1074601.000000
1075427.000000
1076214.000000
1076966.000000
1077698.000000
1078409.000000
1079134.000000
1079924.000000
1080743.000000
1081555.000000
1082349.000000
1083134.000000
1083948.000000
1084781.000000
1085618.000000
1086453.000000
1087284.000000
1088118.000000
1088948.000000
1089727.000000
1090480.000000
1091257.000000
1092106.000000
1092966.000000
1093793.000000
1094594.000000
1095392.000000
1096190.000000
1096970.000000
1097780.000000
1098642.000000
1099497.000000
1100270.000000
1101011.000000
1101757.000000
1102544.000000
1103331.000000
1104138.000000
1105000.000000
1105915.000000
1106767.000000
1107626.000000
1108464.000000
1109238.000000
1109992.000000
1110732.000000
1111461.000000
1112264.000000
1113135.000000
1114029.000000
1114946.000000
1115840.000000
1116745.000000
1117545.000000
1118364.000000
1119220.000000
1120116.000000
1121031.000000
1122003.000000
1122980.000000
1123905.000000
1124803.000000
1125714.000000
1126604.000000
1127529.000000
1128362.000000
1129168.000000
1129994.000000
1130915.000000
1131894.000000
1132857.000000
1133784.000000
1134683.000000
1135620.000000
1136527.000000
1137352.000000
1138124.000000
1138886.000000
1139722.000000
1140593.000000
1141510.000000
1142475.000000
1143516.000000
1144588.000000
1145560.000000
1146465.000000
1147429.000000
1148442.000000
1149390.000000
1150259.000000
1151105.000000
1152084.000000
1153065.000000
1153973.000000
1154815.000000
1155698.000000
1156622.000000
1157612.000000
1158658.000000
1159590.000000
1160485.000000
1161333.000000
1162128.000000
1162944.000000
1163868.000000
1164871.000000
1165782.000000
1166633.000000
1167463.000000
1168315.000000
1169251.000000
1170174.000000
1170984.000000
1171745.000000
1172483.000000
1173262.000000
1174079.000000
1174964.000000
1175968.000000
1177004.000000
1178017.000000
1178986.000000
1179830.000000
1180594.000000
1181335.000000
1182092.000000
1182985.000000
1183957.000000
1184975.000000
1186022.000000
1187080.000000
1188110.000000
1188991.000000
1189777.000000
1190528.000000
1191308.000000
1192130.000000
1193048.000000
1193956.000000
1194861.000000
1195754.000000
1196638.000000
1197451.000000
1198213.000000
1198943.000000
1199650.000000
1200349.000000
1201091.000000
1201910.000000
1202812.000000
1203794.000000
1204788.000000
1205655.000000
1206442.000000
1207202.000000
1207948.000000
1208696.000000
1209497.000000
1210340.000000
1211237.000000
1212151.000000
1213095.000000
1213886.000000
1214641.000000
1215376.000000
1216112.000000
1216938.000000
1217805.000000
1218677.000000
1219577.000000
1220550.000000
1221532.000000
1222473.000000
1223343.000000
1224334.000000
1225347.000000
1226311.000000
1227329.000000
1228359.000000
1229324.000000
1230199.000000
1231000.000000
1231800.000000
1232610.000000
1233491.000000
1234393.000000
1235291.000000
1236199.000000
1237051.000000
1237895.000000
1238747.000000
1239539.000000
1240357.000000
1241138.000000
1241876.000000
1242608.000000
1243335.000000
1244062.000000
1244820.000000
1245580.000000
1246372.000000
1247156.000000
1247925.000000
1248706.000000
1249471.000000
1250238.000000
1251028.000000
1251783.000000
1252517.000000
1253245.000000
1253988.000000
1254752.000000
1255538.000000
1256357.000000
1257156.000000
1257956.000000
1258779.000000
1259595.000000
1260423.000000
1261250.000000
1262053.000000
1262841.000000
1263625.000000
1264468.000000
1265370.000000
1266210.000000
1266980.000000
1267721.000000
1268508.000000
1269319.000000
1270202.000000
1271072.000000
1271944.000000
1272794.000000
1273659.000000
1274476.000000
1275299.000000
1276082.000000
1276829.000000
1277590.000000
1278372.000000
1279220.000000
1280066.000000
1280840.000000
1281583.000000
1282326.000000
1283087.000000
1283939.000000
1284777.000000
1285614.000000
1286457.000000
1287301.000000
1288141.000000
1288983.000000
1289804.000000
1290656.000000
1291558.000000
1292469.000000
1293316.000000
1294101.000000
1294881.000000
1295669.000000
1296473.000000
1297240.000000
1297984.000000
1298707.000000
1299443.000000
1300223.000000
1300987.000000
1301811.000000
1302677.000000
1303527.000000
1304366.000000
1305179.000000
1305949.000000
1306768.000000
1307645.000000
1308490.000000
1309360.000000
1310213.000000
1311086.000000
1311973.000000
1312890.000000
1313754.000000
1314554.000000
1315323.000000
1316119.000000
1316956.000000
1317811.000000
1318679.000000
1319497.000000
1320313.000000
1321107.000000
1321871.000000
1322667.000000
1323502.000000
1324416.000000
1325372.000000
1326295.000000
1327198.000000
1328082.000000
1328904.000000
1329736.000000
1330577.000000
1331465.000000
1332397.000000
1333365.000000
1334319.000000
1335267.000000
1336177.000000
1337091.000000
1338025.000000
1338904.000000
1339687.000000
1340447.000000
1341221.000000
1341988.000000
1342774.000000
1343575.000000
1344385.000000
1345176.000000
1345943.000000
1346709.000000
1347505.000000
1348297.000000
1349087.000000
1349863.000000
1350628.000000
1351359.000000
1352073.000000
1352801.000000
1353549.000000
1354329.000000
1355124.000000
1355921.000000
1356737.000000
1357589.000000
1358383.000000
1359143.000000
1359877.000000
1360604.000000
1361359.000000
1362159.000000
1362951.000000
1363749.000000
1364550.000000
1365340.000000
1366115.000000
1366881.000000
1367697.000000
1368553.000000
1369403.000000
1370245.000000
1371096.000000
1371960.000000
1372824.000000
1373644.000000
1374468.000000
1375302.000000
1376175.000000
1377064.000000
1377953.000000
1378795.000000
1379589.000000
1380332.000000
1381074.000000
1381880.000000
1382682.000000
1383511.000000
1384332.000000
1385179.000000
1386018.000000
1386848.000000
1387674.000000
1388487.000000
1389269.000000
1390015.000000
1390729.000000
1391422.000000
1392101.000000
1392802.000000
1393610.000000
1394475.000000
1395331.000000
1396217.000000
1397106.000000
1397989.000000
1398856.000000
1399687.000000
1400548.000000
1401426.000000
1402300.000000
1403165.000000
1403961.000000
1404733.000000
1405508.000000
1406292.000000
1407117.000000
1407932.000000
1408729.000000
1409540.000000
1410343.000000
1411153.000000
1411974.000000
1412726.000000
1413461.000000
1414222.000000
1415057.000000
1415950.000000
1416834.000000
1417694.000000
1418496.000000
1419259.000000
1420026.000000
1420865.000000
1421756.000000
1422648.000000
1423497.000000
1424283.000000
1425040.000000
1425835.000000
1426659.000000
1427520.000000
1428433.000000
1429373.000000
1430196.000000
1430962.000000
1431740.000000
1432584.000000
1433521.000000
1434399.000000
1435263.000000
1436109.000000
1436955.000000
1437807.000000
1438635.000000
1439437.000000
1440236.000000
1441064.000000
1441920.000000
1442740.000000
1443576.000000
1444413.000000
1445221.000000
1446026.000000
1446850.000000
1447667.000000
1448466.000000
1449211.000000
1449943.000000
1450691.000000
1451494.000000
1452303.000000
1453121.000000
1453903.000000
1454689.000000
1455524.000000
1456413.000000
1457321.000000
1458251.000000
1459140.000000
1460003.000000
1460863.000000
1461689.000000
1462520.000000
1463293.000000
1464031.000000
1464750.000000
1465464.000000
1466261.000000
1467107.000000
1467973.000000
1468855.000000
1469738.000000
1470636.000000
1471496.000000
1472347.000000
1473139.000000
1473970.000000
1474800.000000
1475676.000000
1476539.000000
1477327.000000
1478080.000000
1478865.000000
1479693.000000
1480546.000000
1481426.000000
1482238.000000
1483021.000000
1483859.000000
1484720.000000
1485544.000000
1486326.000000
1487127.000000
1487946.000000
1488774.000000
1489619.000000
1490453.000000
1491250.000000
1492021.000000
1492763.000000
1493557.000000
1494325.000000
1495115.000000
1495925.000000
1496718.000000
1497509.000000
1498300.000000
1499084.000000
1499877.000000
1500669.000000
1501450.000000
1502195.000000
1502911.000000
1503621.000000
1504351.000000
1505104.000000
1505908.000000
1506736.000000
1507563.000000
1508419.000000
1509204.000000
1509967.000000
1510789.000000
1511649.000000
1512517.000000
1513414.000000
1514352.000000
1515257.000000
1516092.000000
1516924.000000
1517780.000000
1518651.000000
1519487.000000
1520330.000000
1521178.000000
1522026.000000
1522876.000000
1523720.000000
1524577.000000
1525447.000000
1526311.000000
1527118.000000
1527883.000000
1528633.000000
1529427.000000
1530274.000000
1531127.000000
1531931.000000
1532686.000000
1533426.000000
1534179.000000
1534962.000000
1535744.000000
1536559.000000
1537353.000000
1538132.000000
1538881.000000
1539613.000000
1540352.000000
1541106.000000
1541896.000000
1542700.000000
1543482.000000
1544242.000000
1544976.000000
1545696.000000
1546406.000000
1547103.000000
1547803.000000
1548501.000000
1549199.000000
1549886.000000
1550570.000000
1551260.000000
1551962.000000
1552662.000000
1553363.000000
1554095.000000
1554876.000000
1555671.000000
1556467.000000
1557295.000000
1558147.000000
1559028.000000
1559847.000000
1560693.000000
1561557.000000
1562435.000000
1563335.000000
1564209.000000
1565077.000000
1565915.000000
1566744.000000
1567571.000000
1568380.000000
1569240.000000
1570096.000000
1570975.000000
1571837.000000
1572632.000000
1573446.000000
1574267.000000
1575083.000000
1575894.000000
1576695.000000
1577557.000000
1578384.000000
1579146.000000
1579882.000000
1580665.000000
1581459.000000
1582281.000000
1583074.000000
1583858.000000
1584600.000000
1585321.000000
1586029.000000
1586726.000000
1587428.000000
1588204.000000
1589021.000000
1589798.000000
1590572.000000
1591373.000000
1592184.000000
1592983.000000
1593788.000000
1594624.000000
1595533.000000
1596448.000000
1597344.000000
1598222.000000
1599092.000000
1599900.000000
1600699.000000
1601481.000000
1602269.000000
1603080.000000
1603865.000000
1604612.000000
1605345.000000
1606080.000000
1606856.000000
1607653.000000
1608457.000000
1609297.000000
1610163.000000
1611028.000000
1611909.000000
1612720.000000
1613546.000000
1614392.000000
1615248.000000
1616091.000000
1616925.000000
1617773.000000
1618640.000000
1619512.000000
1620376.000000
1621190.000000
1621988.000000
1622835.000000
1623730.000000
1624559.000000
1625350.000000
1626129.000000
1626900.000000
1627659.000000
1628429.000000
1629210.000000
1630006.000000
1630819.000000
1631591.000000
1632383.000000
1633169.000000
1633948.000000
1634729.000000
1635507.000000
1636289.000000
1637044.000000
1637803.000000
1638596.000000
1639435.000000
1640238.000000
1641053.000000
1641849.000000
1642629.000000
1643410.000000
1644191.000000
1644964.000000
1645716.000000
1646479.000000
1647286.000000
1648107.000000
1648864.000000
1649635.000000
1650418.000000
1651233.000000
1651996.000000
1652710.000000
1653415.000000
1654102.000000
1654811.000000
1655544.000000
1656306.000000
1657088.000000
1657924.000000
1658737.000000
1659513.000000
1660349.000000
1661203.000000
1662058.000000
1662880.000000
1663698.000000
1664500.000000
1665326.000000
1666195.000000
1667074.000000
1667932.000000
1668821.000000
1669687.000000
1670510.000000
1671272.000000
1672065.000000
1672848.000000
1673672.000000
1674495.000000
1675327.000000
1676138.000000
1676939.000000
1677718.000000
1678488.000000
1679240.000000
1679993.000000
1680720.000000
1681428.000000
1682119.000000
1682797.000000
1683477.000000
1684181.000000
1684930.000000
1685673.000000
1686437.000000
1687197.000000
1687957.000000
1688753.000000
1689555.000000
1690372.000000
1691170.000000
1691932.000000
1692699.000000
1693484.000000
1694320.000000
1695172.000000
1695936.000000
1696730.000000
1697594.000000
1698442.000000
1699293.000000
1700233.000000
1701200.000000
1702161.000000
1703049.000000
1703857.000000
1704650.000000
1705426.000000
1706214.000000
1707040.000000
1707898.000000
1708723.000000
1709512.000000
1710347.000000
1711206.000000
1712064.000000
1712913.000000
1713738.000000
1714532.000000
1715351.000000
1716172.000000
1716966.000000
1717775.000000
1718581.000000
1719390.000000
1720195.000000
1720966.000000
1721698.000000
1722407.000000
1723108.000000
1723811.000000
1724581.000000
1725363.000000
1726156.000000
1726989.000000
1727757.000000
1728539.000000
1729381.000000
1730208.000000
1730991.000000
1731734.000000
1732463.000000
1733197.000000
1733951.000000
1734722.000000
1735494.000000
1736281.000000
1737081.000000
1737888.000000
1738673.000000
1739454.000000
1740192.000000
1740910.000000
1741617.000000
1742310.000000
1743006.000000
1743691.000000
1744362.000000
1745035.000000
1745725.000000
1746424.000000
1747135.000000
1747839.000000
1748533.000000
1749236.000000
1749982.000000
1750739.000000
1751525.000000
1752281.000000
1753020.000000
1753782.000000
1754552.000000
1755316.000000
1756099.000000
1756862.000000
1757608.000000
1758382.000000
1759167.000000
1759930.000000
1760669.000000
1761388.000000
1762122.000000
1762877.000000
1763659.000000
1764484.000000
1765333.000000
1766181.000000
1767023.000000
1767812.000000
1768635.000000
1769390.000000
1770143.000000
1770937.000000
1771788.000000
1772704.000000
1773652.000000
1774602.000000
1775499.000000
1776370.000000
1777232.000000
1778130.000000
1779005.000000
1779867.000000
1780750.000000
1781589.000000
1782461.000000
1783334.000000
1784203.000000
1785060.000000
1785935.000000
1786806.000000
1787680.000000
1788545.000000
1789338.000000
1790126.000000
1790931.000000
1791768.000000
1792645.000000
1793511.000000
1794349.000000
1795154.000000
1795942.000000
1796729.000000
1797548.000000
