ECG (ms)
749.000000
1540.000000
2286.000000
3117.000000
3985.000000
4889.000000
5818.000000
6749.000000
7681.000000
8670.000000
9608.000000
10520.000000
11372.000000
12200.000000
13084.000000
13968.000000
14804.000000
15629.000000
16472.000000
17308.000000
18183.000000
19035.000000
19839.000000
20694.000000
21527.000000
22360.000000
23173.000000
23990.000000
24793.000000
25566.000000
26258.000000
26802.000000
27227.000000
28098.000000
28969.000000
29809.000000
30583.000000
31385.000000
32122.000000
32846.000000
33621.000000
34456.000000
35345.000000
36155.000000
36904.000000
37682.000000
38542.000000
39532.000000
40523.000000
41485.000000
42467.000000
43452.000000
44450.000000
45414.000000
46342.000000
47182.000000
48045.000000
48941.000000
49852.000000
50750.000000
51690.000000
52587.000000
53573.000000
54543.000000
55492.000000
56418.000000
57315.000000
58185.000000
58994.000000
59831.000000
60691.000000
61598.000000
62489.000000
63371.000000
64290.000000
65176.000000
66070.000000
66975.000000
67900.000000
68820.000000
69699.000000
70567.000000
71396.000000
72231.000000
73093.000000
73936.000000
74793.000000
75625.000000
76415.000000
77169.000000
77951.000000
78814.000000
79673.000000
80555.000000
81471.000000
82389.000000
83268.000000
84126.000000
84949.000000
85728.000000
86530.000000
87345.000000
88194.000000
89052.000000
89903.000000
90695.000000
91462.000000
92244.000000
93019.000000
93809.000000
94612.000000
95430.000000
96299.000000
97219.000000
98172.000000
99156.000000
100120.000000
100963.000000
101740.000000
102514.000000
103356.000000
104192.000000
105067.000000
105921.000000
106779.000000
107600.000000
108418.000000
109244.000000
110036.000000
110837.000000
111677.000000
112556.000000
113398.000000
114266.000000
115090.000000
115943.000000
116778.000000
117622.000000
118460.000000
119245.000000
119999.000000
120739.000000
121498.000000
122284.000000
123035.000000
123749.000000
124516.000000
125287.000000
126073.000000
126861.000000
127647.000000
128398.000000
128691.000000
129155.000000
129629.000000
130039.000000
130704.000000
131512.000000
132325.000000
133140.000000
133954.000000
134811.000000
135688.000000
136551.000000
137408.000000
138242.000000
139038.000000
139803.000000
140571.000000
141334.000000
142126.000000
142881.000000
143617.000000
144324.000000
145050.000000
145918.000000
146791.000000
147712.000000
148608.000000
149509.000000
150397.000000
151218.000000
152024.000000
152854.000000
153697.000000
154536.000000
155391.000000
156197.000000
157006.000000
157757.000000
158479.000000
159212.000000
159993.000000
160810.000000
161686.000000
162585.000000
163490.000000
164292.000000
165149.000000
165973.000000
166799.000000
167604.000000
168386.000000
169138.000000
169896.000000
170678.000000
171479.000000
172304.000000
173146.000000
173979.000000
174798.000000
175551.000000
176343.000000
177123.000000
177932.000000
178740.000000
179594.000000
180441.000000
181305.000000
182177.000000
182980.000000
183798.000000
184609.000000
185400.000000
186136.000000
186876.000000
187736.000000
188654.000000
189658.000000
190662.000000
191595.000000
192439.000000
193311.000000
194165.000000
194986.000000
195812.000000
196674.000000
197538.000000
198396.000000
199250.000000
200091.000000
200928.000000
201705.000000
202481.000000
203261.000000
204080.000000
204929.000000
205782.000000
206624.000000
207471.000000
208273.000000
209087.000000
209895.000000
210705.000000
211482.000000
212267.000000
213064.000000
213883.000000
214717.000000
215553.000000
216376.000000
217187.000000
218019.000000
218843.000000
219635.000000
220423.000000
221195.000000
221972.000000
222773.000000
223595.000000
224412.000000
225173.000000
225970.000000
226763.000000
227508.000000
228290.000000
229084.000000
229895.000000
230730.000000
231564.000000
232355.000000
233160.000000
233969.000000
234778.000000
235592.000000
236406.000000
237197.000000
237968.000000
238728.000000
239481.000000
240235.000000
240996.000000
241756.000000
242549.000000
243296.000000
244033.000000
244870.000000
245743.000000
246592.000000
247484.000000
248348.000000
249213.000000
250059.000000
250897.000000
251718.000000
252531.000000
253310.000000
254107.000000
254965.000000
255868.000000
256802.000000
257630.000000
258483.000000
259357.000000
260248.000000
261124.000000
261975.000000
262812.000000
263646.000000
264472.000000
265298.000000
266082.000000
266851.000000
267666.000000
268509.000000
269368.000000
270251.000000
271105.000000
271933.000000
272758.000000
273561.000000
274380.000000
275198.000000
276007.000000
276781.000000
277584.000000
278445.000000
279343.000000
280266.000000
281152.000000
282013.000000
282823.000000
283607.000000
284443.000000
285342.000000
286266.000000
287196.000000
288085.000000
288933.000000
289787.000000
290630.000000
291449.000000
292225.000000
293017.000000
293843.000000
294726.000000
295613.000000
296511.000000
297366.000000
298236.000000
299063.000000
299895.000000
300719.000000
301535.000000
302314.000000
303091.000000
303901.000000
304729.000000
305574.000000
306405.000000
307206.000000
307999.000000
308805.000000
309634.000000
310472.000000
311307.000000
312128.000000
312938.000000
313713.000000
314471.000000
315212.000000
315947.000000
316650.000000
317362.000000
318135.000000
318956.000000
319747.000000
320597.000000
321443.000000
322279.000000
323105.000000
323876.000000
324655.000000
325444.000000
326224.000000
327004.000000
327816.000000
328655.000000
329537.000000
330413.000000
331274.000000
332090.000000
332895.000000
333675.000000
334473.000000
335266.000000
336088.000000
336919.000000
337705.000000
338453.000000
339196.000000
339929.000000
340674.000000
341438.000000
342269.000000
343122.000000
343970.000000
344807.000000
345618.000000
346411.000000
347180.000000
347934.000000
348685.000000
349448.000000
350275.000000
351100.000000
351983.000000
352864.000000
353757.000000
354601.000000
355367.000000
356133.000000
356922.000000
357746.000000
358595.000000
359490.000000
360404.000000
361304.000000
362166.000000
362972.000000
363779.000000
364576.000000
365392.000000
366223.000000
367014.000000
367829.000000
368652.000000
369493.000000
370345.000000
371171.000000
372020.000000
372831.000000
373673.000000
374482.000000
375303.000000
376106.000000
376937.000000
377771.000000
378639.000000
379522.000000
380378.000000
381224.000000
382054.000000
382834.000000
383624.000000
384420.000000
385196.000000
385929.000000
386696.000000
387499.000000
388317.000000
389155.000000
390001.000000
390864.000000
391717.000000
392554.000000
393379.000000
394155.000000
394945.000000
395743.000000
396586.000000
397476.000000
398365.000000
399252.000000
400154.000000
401086.000000
402011.000000
402930.000000
403821.000000
404654.000000
405480.000000
406314.000000
407145.000000
407938.000000
408723.000000
409518.000000
410353.000000
411179.000000
411966.000000
412766.000000
413586.000000
414428.000000
415267.000000
416105.000000
416920.000000
417734.000000
418512.000000
419305.000000
420095.000000
420909.000000
421714.000000
422523.000000
423340.000000
424121.000000
424882.000000
425624.000000
426405.000000
427143.000000
427967.000000
428770.000000
429587.000000
430412.000000
431179.000000
431923.000000
432744.000000
433621.000000
434513.000000
435418.000000
436369.000000
437225.000000
438087.000000
438913.000000
439780.000000
440576.000000
441383.000000
442139.000000
442870.000000
443627.000000
444434.000000
445279.000000
446157.000000
447078.000000
447989.000000
448822.000000
449657.000000
450497.000000
451362.000000
452210.000000
453059.000000
453853.000000
454649.000000
455436.000000
456225.000000
457056.000000
457891.000000
458751.000000
459535.000000
460307.000000
461131.000000
462025.000000
462935.000000
463822.000000
464699.000000
465561.000000
466365.000000
467116.000000
467846.000000
468579.000000
469387.000000
470279.000000
471085.000000
471865.000000
472662.000000
473494.000000
474363.000000
475259.000000
476143.000000
476996.000000
477830.000000
478637.000000
479381.000000
480135.000000
480925.000000
481765.000000
482664.000000
483542.000000
484328.000000
485123.000000
485934.000000
486764.000000
487634.000000
488503.000000
489367.000000
490216.000000
491009.000000
491782.000000
492556.000000
493354.000000
494178.000000
495020.000000
495838.000000
496636.000000
497401.000000
498207.000000
499052.000000
499954.000000
500871.000000
501786.000000
502704.000000
503562.000000
504412.000000
505256.000000
506094.000000
506925.000000
507798.000000
508659.000000
509564.000000
510448.000000
511346.000000
512257.000000
513167.000000
514070.000000
514941.000000
515812.000000
516622.000000
517477.000000
518316.000000
519166.000000
520024.000000
520858.000000
521640.000000
522394.000000
523167.000000
524041.000000
524964.000000
525906.000000
526823.000000
527715.000000
528538.000000
529328.000000
530084.000000
530840.000000
531613.000000
532452.000000
533353.000000
534264.000000
535208.000000
536119.000000
536948.000000
537754.000000
538552.000000
539376.000000
540227.000000
541035.000000
541798.000000
542578.000000
543411.000000
544264.000000
545163.000000
546029.000000
546869.000000
547688.000000
548506.000000
549305.000000
550077.000000
550859.000000
551638.000000
552380.000000
553149.000000
553904.000000
554683.000000
555465.000000
556229.000000
557038.000000
557867.000000
558729.000000
559604.000000
560489.000000
561350.000000
562180.000000
562996.000000
563796.000000
564575.000000
565414.000000
566276.000000
567170.000000
568015.000000
568851.000000
569650.000000
570483.000000
571325.000000
572198.000000
573106.000000
574024.000000
574918.000000
575786.000000
576615.000000
577401.000000
578190.000000
579007.000000
579880.000000
580768.000000
581705.000000
582639.000000
583568.000000
584474.000000
585303.000000
586113.000000
586915.000000
587714.000000
588481.000000
589196.000000
589938.000000
590820.000000
591708.000000
592600.000000
593381.000000
594204.000000
595022.000000
595861.000000
596685.000000
597473.000000
598264.000000
599054.000000
599865.000000
600678.000000
601436.000000
602202.000000
602959.000000
603755.000000
604596.000000
605426.000000
606266.000000
607097.000000
607879.000000
608648.000000
609407.000000
610171.000000
610948.000000
611710.000000
612508.000000
613300.000000
614109.000000
614849.000000
615613.000000
616381.000000
617165.000000
617949.000000
618711.000000
619465.000000
620221.000000
621010.000000
621819.000000
622636.000000
623465.000000
624295.000000
625114.000000
625859.000000
626638.000000
627385.000000
628117.000000
628870.000000
629660.000000
630467.000000
631300.000000
632132.000000
632952.000000
633758.000000
634566.000000
635330.000000
636091.000000
636840.000000
637638.000000
638444.000000
639246.000000
640066.000000
640841.000000
641654.000000
642461.000000
643278.000000
644047.000000
644807.000000
645557.000000
646272.000000
647009.000000
647862.000000
648781.000000
649689.000000
650612.000000
651530.000000
652453.000000
653299.000000
654148.000000
654989.000000
655816.000000
656714.000000
657608.000000
658556.000000
659480.000000
660357.000000
661240.000000
662102.000000
663016.000000
663951.000000
664911.000000
665838.000000
666787.000000
667725.000000
668637.000000
669494.000000
670320.000000
671141.000000
671967.000000
672815.000000
673694.000000
674599.000000
675489.000000
676318.000000
677087.000000
677861.000000
678647.000000
679488.000000
680338.000000
681201.000000
682062.000000
682848.000000
683640.000000
684441.000000
685221.000000
686021.000000
686865.000000
687777.000000
688696.000000
689635.000000
690562.000000
691451.000000
692283.000000
693064.000000
693845.000000
694644.000000
695445.000000
696322.000000
697228.000000
698123.000000
698961.000000
699765.000000
700620.000000
701556.000000
702485.000000
703401.000000
704279.000000
705144.000000
706017.000000
706852.000000
707643.000000
708430.000000
709253.000000
710119.000000
710991.000000
711835.000000
712692.000000
713539.000000
714369.000000
715190.000000
715996.000000
716790.000000
717569.000000
718322.000000
719080.000000
719832.000000
720594.000000
721401.000000
722220.000000
722985.000000
723729.000000
724453.000000
725143.000000
725883.000000
726679.000000
727491.000000
728293.000000
729113.000000
729885.000000
730667.000000
731442.000000
732269.000000
733099.000000
733937.000000
734737.000000
735543.000000
736343.000000
737150.000000
737971.000000
738817.000000
739699.000000
740595.000000
741492.000000
742365.000000
743212.000000
744023.000000
744873.000000
745713.000000
746571.000000
747381.000000
748158.000000
748950.000000
749789.000000
750706.000000
751662.000000
752634.000000
753573.000000
754482.000000
755376.000000
756266.000000
757175.000000
758039.000000
758849.000000
759653.000000
760480.000000
761316.000000
762156.000000
763035.000000
763919.000000
764769.000000
765606.000000
766378.000000
767140.000000
767902.000000
768712.000000
769538.000000
770364.000000
771175.000000
771981.000000
772744.000000
773509.000000
774320.000000
775132.000000
775907.000000
776721.000000
777532.000000
778388.000000
779227.000000
780027.000000
780864.000000
781674.000000
782501.000000
783322.000000
784139.000000
784947.000000
785737.000000
786517.000000
787262.000000
788007.000000
788719.000000
789451.000000
790196.000000
790994.000000
791832.000000
792666.000000
793389.000000
794150.000000
794963.000000
795783.000000
796567.000000
797356.000000
798152.000000
798942.000000
799715.000000
800479.000000
801237.000000
802023.000000
802756.000000
803533.000000
804326.000000
805127.000000
805923.000000
806719.000000
807515.000000
808270.000000
809010.000000
809744.000000
810442.000000
811191.000000
811957.000000
812857.000000
813778.000000
814727.000000
815657.000000
816621.000000
817535.000000
818389.000000
819206.000000
820001.000000
820782.000000
821578.000000
822390.000000
823245.000000
824125.000000
825014.000000
825932.000000
826833.000000
827688.000000
828530.000000
829352.000000
830205.000000
831074.000000
831939.000000
832738.000000
833500.000000
834223.000000
835020.000000
835907.000000
836830.000000
837704.000000
838545.000000
839374.000000
840149.000000
840943.000000
841713.000000
842480.000000
843228.000000
843984.000000
844767.000000
845612.000000
846419.000000
847273.000000
848087.000000
848954.000000
849749.000000
850578.000000
851433.000000
852307.000000
853174.000000
854004.000000
854817.000000
855613.000000
856361.000000
857105.000000
857850.000000
858638.000000
859448.000000
860261.000000
861090.000000
861904.000000
862721.000000
863534.000000
864375.000000
865178.000000
865949.000000
866679.000000
867405.000000
868163.000000
868880.000000
869621.000000
870365.000000
871210.000000
872061.000000
872894.000000
873722.000000
874543.000000
875344.000000
876163.000000
876959.000000
877748.000000
878537.000000
879328.000000
880076.000000
880822.000000
881565.000000
882343.000000
883162.000000
884008.000000
884859.000000
885671.000000
886468.000000
887275.000000
888049.000000
888891.000000
889717.000000
890560.000000
891373.000000
892117.000000
892877.000000
893620.000000
894358.000000
895132.000000
895965.000000
896826.000000
897690.000000
898543.000000
899365.000000
900178.000000
901003.000000
901749.000000
902496.000000
903282.000000
904057.000000
904897.000000
905744.000000
906556.000000
907367.000000
908115.000000
908886.000000
909617.000000
910405.000000
911205.000000
912027.000000
912812.000000
913631.000000
914475.000000
915319.000000
916141.000000
916894.000000
917676.000000
918448.000000
919264.000000
920123.000000
920869.000000
921667.000000
922462.000000
923284.000000
924043.000000
924840.000000
925652.000000
926486.000000
927259.000000
927985.000000
928714.000000
929512.000000
930344.000000
931215.000000
932103.000000
932986.000000
933837.000000
934661.000000
935494.000000
936328.000000
937169.000000
938027.000000
938913.000000
939751.000000
940599.000000
941370.000000
942127.000000
942946.000000
943768.000000
944603.000000
945460.000000
946291.000000
947155.000000
948032.000000
948900.000000
949778.000000
950644.000000
951519.000000
952398.000000
953286.000000
954168.000000
955008.000000
955881.000000
956769.000000
957671.000000
958635.000000
959581.000000
960487.000000
961404.000000
962262.000000
963112.000000
963989.000000
964822.000000
965670.000000
966508.000000
967351.000000
968165.000000
969007.000000
969827.000000
970586.000000
971179.000000
972052.000000
972806.000000
973530.000000
974253.000000
974952.000000
975649.000000
976355.000000
977055.000000
977759.000000
978464.000000
979183.000000
979908.000000
980649.000000
981400.000000
982163.000000
982944.000000
983714.000000
984492.000000
985253.000000
985987.000000
986686.000000
987373.000000
988054.000000
988765.000000
989563.000000
990391.000000
991150.000000
992001.000000
992864.000000
993725.000000
994565.000000
995325.000000
996131.000000
996904.000000
997653.000000
998450.000000
999234.000000
1000052.000000
1000903.000000
1001750.000000
1002548.000000
1003336.000000
1004109.000000
1004930.000000
1005796.000000
1006637.000000
1007460.000000
1008255.000000
1009045.000000
1009807.000000
1010591.000000
1011401.000000
1012205.000000
1012961.000000
1013745.000000
1014550.000000
1015392.000000
1016220.000000
1017015.000000
1017816.000000
1018648.000000
1019453.000000
1020221.000000
1020970.000000
1021729.000000
1022505.000000
1023277.000000
1024047.000000
1024799.000000
1025533.000000
1026256.000000
1027035.000000
1027841.000000
1028686.000000
1029538.000000
1030337.000000
1031150.000000
1031979.000000
1032797.000000
1033595.000000
1034400.000000
1035183.000000
1035995.000000
1036818.000000
1037598.000000
1038420.000000
1039253.000000
1040089.000000
1040867.000000
1041638.000000
1042416.000000
1043241.000000
1044112.000000
1045005.000000
1045874.000000
1046732.000000
1047535.000000
1048355.000000
1049147.000000
1049963.000000
1050813.000000
1051678.000000
1052501.000000
1053292.000000
1054040.000000
1054826.000000
1055680.000000
1056607.000000
1057486.000000
1058372.000000
1059231.000000
1060061.000000
1060845.000000
1061613.000000
1062384.000000
1063202.000000
1063984.000000
1064764.000000
1065565.000000
1066479.000000
1067428.000000
1068325.000000
1069129.000000
1069959.000000
1070836.000000
1071707.000000
1072586.000000
1073446.000000
1074275.000000
1075043.000000
1075808.000000
1076592.000000
1077441.000000
1078357.000000
1079296.000000
1080207.000000
1081103.000000
1082036.000000
1082983.000000
1083938.000000
1084837.000000
1085686.000000
1086516.000000
1087367.000000
1088192.000000
1089050.000000
1089928.000000
1090806.000000
1091628.000000
1092478.000000
1093332.000000
1094228.000000
1095164.000000
1096142.000000
1097043.000000
1097939.000000
1098848.000000
1099775.000000
1100687.000000
1101575.000000
1102461.000000
1103373.000000
1104294.000000
1105192.000000
1106029.000000
1106840.000000
1107690.000000
1108494.000000
1109247.000000
1109995.000000
1110770.000000
1111611.000000
1112463.000000
1113317.000000
1114150.000000
1114941.000000
1115695.000000
1116440.000000
1117226.000000
1118057.000000
1118956.000000
1119876.000000
1120795.000000
1121710.000000
1122624.000000
1123525.000000
1124419.000000
1125317.000000
1126211.000000
1127134.000000
1128005.000000
1128915.000000
1129814.000000
1130694.000000
1131540.000000
1132302.000000
1133076.000000
1133828.000000
1134592.000000
1135332.000000
1136030.000000
1136754.000000
1137534.000000
1138369.000000
1139246.000000
1140151.000000
1141037.000000
1141846.000000
1142682.000000
1143488.000000
1144277.000000
1145062.000000
1145846.000000
1146649.000000
1147489.000000
1148340.000000
1149160.000000
1149925.000000
1150691.000000
1151563.000000
1152463.000000
1153389.000000
1154283.000000
1155198.000000
1156092.000000
1156970.000000
1157861.000000
1158676.000000
1159534.000000
1160416.000000
1161279.000000
1162136.000000
1163012.000000
1163860.000000
1164688.000000
1165561.000000
1166413.000000
1167223.000000
1168083.000000
1168936.000000
1169785.000000
1170615.000000
1171399.000000
1172212.000000
1173014.000000
1173803.000000
1174556.000000
1175327.000000
1176087.000000
1176816.000000
1177555.000000
1178332.000000
1179083.000000
1179869.000000
1180664.000000
1181504.000000
1182372.000000
1183224.000000
1184076.000000
1184848.000000
1185628.000000
1186411.000000
1187233.000000
1188061.000000
1188897.000000
1189709.000000
1190513.000000
1191312.000000
1192161.000000
1193020.000000
1193888.000000
1194765.000000
1195630.000000
1196435.000000
1197277.000000
1198121.000000
1198959.000000
1199784.000000
1200591.000000
1201417.000000
1202302.000000
1203216.000000
1204180.000000
1205174.000000
1206143.000000
1207111.000000
1208014.000000
1208894.000000
1209767.000000
1210599.000000
1211431.000000
1212329.000000
1213272.000000
1214228.000000
1215092.000000
1215992.000000
1216851.000000
1217719.000000
1218555.000000
1219344.000000
1220126.000000
1220909.000000
1221712.000000
1222528.000000
1223317.000000
1224082.000000
1224874.000000
1225674.000000
1226467.000000
1227248.000000
1228032.000000
1228804.000000
1229535.000000
1230317.000000
1231183.000000
1232074.000000
1232984.000000
1233836.000000
1234731.000000
1235646.000000
1236534.000000
1237412.000000
1238333.000000
1239240.000000
1240063.000000
1240926.000000
1241798.000000
1242676.000000
1243573.000000
1244502.000000
1245438.000000
1246357.000000
1247267.000000
1248138.000000
1248998.000000
1249880.000000
1250733.000000
1251524.000000
1252346.000000
1253192.000000
1254085.000000
1254996.000000
1255881.000000
1256716.000000
1257566.000000
1258360.000000
1259166.000000
1260048.000000
1260931.000000
1261758.000000
1262628.000000
1263507.000000
1264327.000000
1265174.000000
1266009.000000
1266837.000000
1267638.000000
1268407.000000
1269227.000000
1270125.000000
1271024.000000
1271904.000000
1272794.000000
1273727.000000
1274654.000000
1275594.000000
1276555.000000
1277537.000000
1278481.000000
1279354.000000
1280234.000000
1281107.000000
1282009.000000
1282917.000000
1283807.000000
1284694.000000
1285561.000000
1286462.000000
1287404.000000
1288353.000000
1289238.000000
1290065.000000
1290911.000000
1291739.000000
1292537.000000
1293345.000000
1294188.000000
1295046.000000
1295904.000000
1296722.000000
1297573.000000
1298428.000000
1299295.000000
1300146.000000
1300994.000000
1301772.000000
1302574.000000
1303396.000000
1304216.000000
1305062.000000
1305922.000000
1306793.000000
1307622.000000
1308463.000000
1309334.000000
1310191.000000
1311077.000000
1311975.000000
1312874.000000
1313753.000000
1314634.000000
1315526.000000
1316408.000000
1317267.000000
1318110.000000
1318941.000000
1319835.000000
1320707.000000
1321625.000000
1322533.000000
1323391.000000
1324183.000000
1324939.000000
1325712.000000
1326547.000000
1327422.000000
1328372.000000
1329277.000000
1330136.000000
1331003.000000
1331862.000000
1332696.000000
1333532.000000
1334347.000000
1335168.000000
1335963.000000
1336765.000000
1337545.000000
1338388.000000
1339240.000000
1340077.000000
1340954.000000
1341813.000000
1342661.000000
1343478.000000
1344312.000000
1345146.000000
1346012.000000
1346854.000000
1347673.000000
1348531.000000
1349382.000000
1350246.000000
1351092.000000
1351925.000000
1352748.000000
1353556.000000
1354340.000000
1355137.000000
1355877.000000
1356623.000000
1357343.000000
1358042.000000
1358754.000000
1359537.000000
1360387.000000
1361168.000000
1362048.000000
1362888.000000
1363725.000000
1364517.000000
1365327.000000
1366147.000000
1367014.000000
1367875.000000
1368731.000000
1369594.000000
1370403.000000
1371237.000000
1372125.000000
1373020.000000
1373907.000000
1374763.000000
1375563.000000
1376332.000000
1377122.000000
1377948.000000
1378831.000000
1379740.000000
1380589.000000
1381471.000000
1382324.000000
1383214.000000
1384138.000000
1385019.000000
1385908.000000
1386771.000000
1387640.000000
1388502.000000
1389357.000000
1390207.000000
1391047.000000
1391868.000000
1392635.000000
1393418.000000
1394197.000000
1395000.000000
1395806.000000
1396591.000000
1397344.000000
1398098.000000
1398911.000000
1399729.000000
1400606.000000
1401490.000000
1402351.000000
1403221.000000
1404024.000000
1404823.000000
1405625.000000
1406486.000000
1407379.000000
1408251.000000
1409111.000000
1409952.000000
1410748.000000
1411542.000000
1412348.000000
1413208.000000
1414153.000000
1415030.000000
1415948.000000
1416863.000000
1417747.000000
1418599.000000
1419437.000000
1420258.000000
1421113.000000
1421936.000000
1422818.000000
1423703.000000
1424595.000000
1425477.000000
1426349.000000
1427157.000000
1427973.000000
1428801.000000
1429611.000000
1430460.000000
1431318.000000
1432163.000000
1432965.000000
1433746.000000
1434502.000000
1435236.000000
1435995.000000
1436779.000000
1437677.000000
1438582.000000
1439466.000000
1440353.000000
1441205.000000
1442024.000000
1442813.000000
1443567.000000
1444323.000000
1445040.000000
1445745.000000
1446483.000000
1447370.000000
1448332.000000
1449272.000000
1450129.000000
1451021.000000
1451919.000000
1452804.000000
1453719.000000
1454625.000000
1455512.000000
1456448.000000
1457399.000000
1458470.000000
1459489.000000
1460412.000000
1461313.000000
1462267.000000
1463230.000000
1464171.000000
1465096.000000
1465992.000000
1466896.000000
1467778.000000
1468654.000000
1469545.000000
1470423.000000
1471348.000000
1472300.000000
1473218.000000
1474117.000000
1474981.000000
1475835.000000
1476692.000000
1477533.000000
1478380.000000
1479254.000000
1480125.000000
1480978.000000
1481823.000000
1482639.000000
1483508.000000
1484376.000000
1485249.000000
1486127.000000
1486933.000000
1487770.000000
1488573.000000
1489407.000000
1490235.000000
1491081.000000
1491928.000000
1492804.000000
1493668.000000
1494495.000000
1495275.000000
1496021.000000
1496757.000000
1497550.000000
1498471.000000
1499416.000000
1500362.000000
1501282.000000
1502198.000000
1503113.000000
1503992.000000
1504875.000000
1505674.000000
1506514.000000
1507384.000000
1508260.000000
1509149.000000
1510035.000000
1510866.000000
1511643.000000
1512439.000000
1513256.000000
1514110.000000
1514917.000000
1515785.000000
1516678.000000
1517540.000000
1518433.000000
1519292.000000
1520136.000000
1520973.000000
1521754.000000
1522538.000000
1523305.000000
1524115.000000
1524963.000000
1525820.000000
1526663.000000
1527499.000000
1528339.000000
1529164.000000
1529927.000000
1530702.000000
1531509.000000
1532382.000000
1533255.000000
1534161.000000
1535055.000000
1535918.000000
1536704.000000
1537520.000000
1538322.000000
1539143.000000
1539951.000000
1540775.000000
1541597.000000
1542444.000000
1543293.000000
1544106.000000
1544904.000000
1545701.000000
1546525.000000
1547361.000000
1548211.000000
1549042.000000
1549868.000000
1550677.000000
1551474.000000
1552276.000000
1553083.000000
1553831.000000
1554573.000000
1555296.000000
1556048.000000
1556809.000000
1557650.000000
1558476.000000
1559226.000000
1559981.000000
1560755.000000
1561549.000000
1562392.000000
1563248.000000
1564115.000000
1564951.000000
1565741.000000
1566524.000000
1567312.000000
1568141.000000
1568941.000000
1569803.000000
1570713.000000
1571617.000000
1572509.000000
1573351.000000
1574210.000000
1575066.000000
1575903.000000
1576704.000000
1577529.000000
1578358.000000
1579229.000000
1580110.000000
1580967.000000
1581815.000000
1582660.000000
1583450.000000
1584202.000000
1584997.000000
1585817.000000
1586677.000000
1587595.000000
1588516.000000
1589442.000000
1590271.000000
1591084.000000
1591852.000000
1592606.000000
1593391.000000
1594236.000000
1595094.000000
1595893.000000
1596705.000000
1597536.000000
1598376.000000
1599204.000000
1599965.000000
1600731.000000
1601497.000000
1602320.000000
1603168.000000
1604019.000000
1604856.000000
1605689.000000
1606494.000000
1607257.000000
1608049.000000
1608860.000000
1609706.000000
1610591.000000
1611493.000000
1612372.000000
1613166.000000
1613976.000000
1614818.000000
1615691.000000
1616575.000000
1617404.000000
1618254.000000
1619108.000000
1619983.000000
1620863.000000
1621729.000000
1622562.000000
1623347.000000
1624106.000000
1624913.000000
1625997.000000
1627106.000000
1628144.000000
1629148.000000
1630100.000000
1630999.000000
1631839.000000
1632695.000000
1633575.000000
1634484.000000
1635408.000000
1636309.000000
1637220.000000
1638127.000000
1638976.000000
1639911.000000
1640843.000000
1641770.000000
1642702.000000
1643650.000000
1644597.000000
1645503.000000
1646405.000000
1647283.000000
1648160.000000
1649068.000000
1649917.000000
1650786.000000
1651668.000000
1652557.000000
1653432.000000
1654337.000000
1655241.000000
1656059.000000
1656888.000000
1657730.000000
1658611.000000
1659486.000000
1660305.000000
1661132.000000
1661948.000000
1662751.000000
1663542.000000
1664332.000000
1665127.000000
1665953.000000
1666774.000000
1667553.000000
1668336.000000
1669151.000000
1670039.000000
1670927.000000
1671779.000000
1672599.000000
1673407.000000
1674238.000000
1675105.000000
1675967.000000
1676843.000000
1677665.000000
1678485.000000
1679300.000000
1680077.000000
1680867.000000
1681669.000000
1682487.000000
1683285.000000
1684039.000000
1684766.000000
1685510.000000
1686292.000000
1687145.000000
1688020.000000
1688883.000000
1689735.000000
1690522.000000
1691300.000000
1692092.000000
1692898.000000
1693687.000000
1694476.000000
1695271.000000
1696092.000000
1696919.000000
1697760.000000
1698545.000000
1699361.000000
1700176.000000
1701011.000000
1701885.000000
1702739.000000
1703517.000000
1704355.000000
1705183.000000
1706029.000000
1706846.000000
1707662.000000
1708433.000000
1709208.000000
1709991.000000
1710791.000000
1711585.000000
1712378.000000
1713207.000000
1714059.000000
1714925.000000
1715728.000000
1716608.000000
1717407.000000
1718269.000000
1719090.000000
1719960.000000
1720835.000000
1721662.000000
1722425.000000
1723179.000000
1723893.000000
1724660.000000
1725519.000000
1726443.000000
1727410.000000
1728433.000000
1729443.000000
1730364.000000
1731256.000000
1732077.000000
1732916.000000
1733810.000000
1734769.000000
1735711.000000
1736642.000000
1737542.000000
1738390.000000
1739220.000000
1740083.000000
1740956.000000
1741791.000000
1742632.000000
1743465.000000
1744328.000000
1745219.000000
1746101.000000
1746967.000000
1747812.000000
1748687.000000
1749605.000000
1750516.000000
1751416.000000
1752315.000000
1753192.000000
1754051.000000
1754903.000000
1755749.000000
1756586.000000
1757388.000000
1758197.000000
1759061.000000
1759952.000000
1760827.000000
1761664.000000
1762485.000000
1763318.000000
1764218.000000
1765101.000000
1765916.000000
1766765.000000
1767643.000000
1768519.000000
1769338.000000
1770188.000000
1771048.000000
1771861.000000
1772688.000000
1773538.000000
1774412.000000
1775305.000000
1776187.000000
1777071.000000
1777890.000000
1778765.000000
1779639.000000
1780541.000000
1781438.000000
1782304.000000
1783149.000000
1784010.000000
1784897.000000
1785776.000000
1786618.000000
1787430.000000
1788221.000000
1789095.000000
1790085.000000
1791056.000000
1791990.000000
1792927.000000
1793865.000000
1794786.000000
1795723.000000
1796690.000000
1797652.000000
1798596.000000
1799515.000000
1800419.000000
1801344.000000
