ECG (ms)
394.000000
1303.000000
2230.000000
3118.000000
3987.000000
4883.000000
5808.000000
6736.000000
7637.000000
8536.000000
9462.000000
10402.000000
11317.000000
12200.000000
13102.000000
14011.000000
14923.000000
15811.000000
16698.000000
17591.000000
18487.000000
19389.000000
20275.000000
21174.000000
22065.000000
22966.000000
23836.000000
24693.000000
25567.000000
26454.000000
27339.000000
28195.000000
29041.000000
29899.000000
30762.000000
31598.000000
32427.000000
33284.000000
34132.000000
34983.000000
35812.000000
36661.000000
37519.000000
38384.000000
39224.000000
40048.000000
40894.000000
41747.000000
42586.000000
43419.000000
44287.000000
45169.000000
46032.000000
46871.000000
47705.000000
48565.000000
49436.000000
50308.000000
51172.000000
52045.000000
52874.000000
53677.000000
54437.000000
55305.000000
56163.000000
57000.000000
57903.000000
58827.000000
59717.000000
60573.000000
61421.000000
62287.000000
63146.000000
63988.000000
64797.000000
65613.000000
66446.000000
67327.000000
68210.000000
69059.000000
69925.000000
70805.000000
71679.000000
72543.000000
73402.000000
74273.000000
75148.000000
76014.000000
76876.000000
77747.000000
78614.000000
79467.000000
80310.000000
81160.000000
82029.000000
82912.000000
83797.000000
84667.000000
85528.000000
86418.000000
87314.000000
88209.000000
89083.000000
89940.000000
90817.000000
91686.000000
92543.000000
93392.000000
94250.000000
95123.000000
96007.000000
96868.000000
97731.000000
98599.000000
99481.000000
100351.000000
101191.000000
102044.000000
102908.000000
103764.000000
104618.000000
105442.000000
106287.000000
107134.000000
107967.000000
108783.000000
109599.000000
110421.000000
111261.000000
112083.000000
112902.000000
113735.000000
114565.000000
115319.000000
116056.000000
116836.000000
117594.000000
118362.000000
119145.000000
119987.000000
120802.000000
121597.000000
122382.000000
123182.000000
124004.000000
124803.000000
125584.000000
126382.000000
127266.000000
128210.000000
129084.000000
129946.000000
130828.000000
131721.000000
132604.000000
133462.000000
134331.000000
135234.000000
136124.000000
136985.000000
137842.000000
138722.000000
139602.000000
140462.000000
141313.000000
142173.000000
143048.000000
143924.000000
144778.000000
145627.000000
146486.000000
147367.000000
148220.000000
149065.000000
149930.000000
150813.000000
151676.000000
152525.000000
153423.000000
154323.000000
155204.000000
156070.000000
156928.000000
157787.000000
158657.000000
159518.000000
160349.000000
161201.000000
162068.000000
162915.000000
163754.000000
164606.000000
165476.000000
166339.000000
167202.000000
168072.000000
168962.000000
169851.000000
170714.000000
171562.000000
172435.000000
173297.000000
174160.000000
175032.000000
175927.000000
176825.000000
177699.000000
178522.000000
179369.000000
180162.000000
180936.000000
181724.000000
182581.000000
183543.000000
184436.000000
185282.000000
186163.000000
187047.000000
187957.000000
188810.000000
189641.000000
190473.000000
191337.000000
192243.000000
193136.000000
194026.000000
194940.000000
195846.000000
196722.000000
197606.000000
198514.000000
199435.000000
200329.000000
201191.000000
202069.000000
202943.000000
203814.000000
204664.000000
205506.000000
206358.000000
207227.000000
208082.000000
208922.000000
209778.000000
210655.000000
211554.000000
212430.000000
213296.000000
214166.000000
215049.000000
215935.000000
216794.000000
217645.000000
218511.000000
219387.000000
220265.000000
221134.000000
221999.000000
222887.000000
223787.000000
224658.000000
225532.000000
226415.000000
227303.000000
228181.000000
229036.000000
229878.000000
230739.000000
231614.000000
232465.000000
233303.000000
234143.000000
235003.000000
235867.000000
236722.000000
237573.000000
238432.000000
239299.000000
240180.000000
241027.000000
241875.000000
242746.000000
243647.000000
244535.000000
245397.000000
246263.000000
247141.000000
248037.000000
248908.000000
249763.000000
250626.000000
251501.000000
252371.000000
253236.000000
254081.000000
254909.000000
255749.000000
256587.000000
257413.000000
258191.000000
258927.000000
259649.000000
260404.000000
261154.000000
261864.000000
262646.000000
263544.000000
264430.000000
265270.000000
266131.000000
266985.000000
267789.000000
268545.000000
269308.000000
270060.000000
270803.000000
271531.000000
272263.000000
273003.000000
273758.000000
274522.000000
275286.000000
276063.000000
276892.000000
277721.000000
278518.000000
279295.000000
280071.000000
280847.000000
281612.000000
282366.000000
283128.000000
283907.000000
284678.000000
285447.000000
286234.000000
287006.000000
287804.000000
288578.000000
289346.000000
290122.000000
290921.000000
291724.000000
292501.000000
293281.000000
294086.000000
294886.000000
295658.000000
296432.000000
297238.000000
298063.000000
298837.000000
299611.000000
300392.000000
301168.000000
301922.000000
302658.000000
303406.000000
304176.000000
304971.000000
305776.000000
306627.000000
307510.000000
308369.000000
309196.000000
310033.000000
310873.000000
311704.000000
312511.000000
313319.000000
314133.000000
314926.000000
315699.000000
316552.000000
317487.000000
318458.000000
319321.000000
320135.000000
320946.000000
321681.000000
322389.000000
323135.000000
323998.000000
324872.000000
325712.000000
326603.000000
327577.000000
328494.000000
329336.000000
330200.000000
331082.000000
331956.000000
332802.000000
333619.000000
334460.000000
335363.000000
336235.000000
337088.000000
337958.000000
338849.000000
339750.000000
340619.000000
341487.000000
342379.000000
343260.000000
344126.000000
344986.000000
345868.000000
346772.000000
347647.000000
348512.000000
349388.000000
350269.000000
351149.000000
352000.000000
352856.000000
353728.000000
354607.000000
355465.000000
356325.000000
357213.000000
358115.000000
358990.000000
359848.000000
360705.000000
361574.000000
362455.000000
363300.000000
364142.000000
365007.000000
365880.000000
366752.000000
367599.000000
368448.000000
369309.000000
370184.000000
371028.000000
371861.000000
372702.000000
373555.000000
374405.000000
375239.000000
376062.000000
376895.000000
377772.000000
378651.000000
379522.000000
380381.000000
381248.000000
382135.000000
383009.000000
383867.000000
384720.000000
385559.000000
386334.000000
387060.000000
387841.000000
388634.000000
389404.000000
390218.000000
391115.000000
392031.000000
392903.000000
393717.000000
394531.000000
395368.000000
396214.000000
397019.000000
397804.000000
398599.000000
399406.000000
400242.000000
401052.000000
401864.000000
402703.000000
403599.000000
404478.000000
405296.000000
406121.000000
406969.000000
407835.000000
408667.000000
409460.000000
410265.000000
411094.000000
411913.000000
412708.000000
413505.000000
414326.000000
415158.000000
415945.000000
416727.000000
417533.000000
418363.000000
419193.000000
419987.000000
420807.000000
421611.000000
422437.000000
423262.000000
424045.000000
424831.000000
425638.000000
426459.000000
427293.000000
428090.000000
428899.000000
429714.000000
430541.000000
431329.000000
432112.000000
432898.000000
433735.000000
434557.000000
435350.000000
436175.000000
437069.000000
438008.000000
438912.000000
439779.000000
440615.000000
441479.000000
442403.000000
443289.000000
444148.000000
445008.000000
445891.000000
446813.000000
447701.000000
448580.000000
449496.000000
450396.000000
451237.000000
452061.000000
452872.000000
453679.000000
454473.000000
455276.000000
456122.000000
457017.000000
457871.000000
458678.000000
459526.000000
460391.000000
461231.000000
462057.000000
462883.000000
463739.000000
464641.000000
465459.000000
466234.000000
467046.000000
467882.000000
468754.000000
469622.000000
470454.000000
471306.000000
472175.000000
472978.000000
473750.000000
474513.000000
475296.000000
476101.000000
476897.000000
477681.000000
478492.000000
479412.000000
480296.000000
481120.000000
481941.000000
482766.000000
483561.000000
484323.000000
485085.000000
485831.000000
486586.000000
487329.000000
488083.000000
488856.000000
489662.000000
490464.000000
491234.000000
491991.000000
492776.000000
493568.000000
494360.000000
495118.000000
495867.000000
496649.000000
497441.000000
498239.000000
499019.000000
499775.000000
500553.000000
501354.000000
502174.000000
502963.000000
503725.000000
504505.000000
505319.000000
506162.000000
506977.000000
507771.000000
508572.000000
509390.000000
510276.000000
511162.000000
512007.000000
512909.000000
513854.000000
514798.000000
515683.000000
516581.000000
517489.000000
518430.000000
519362.000000
520263.000000
521160.000000
522083.000000
522989.000000
523865.000000
524737.000000
525627.000000
526529.000000
527415.000000
528288.000000
529179.000000
530086.000000
530996.000000
531878.000000
532747.000000
533639.000000
534510.000000
535351.000000
536202.000000
537111.000000
537980.000000
538842.000000
539730.000000
540644.000000
541556.000000
542432.000000
543304.000000
544191.000000
545075.000000
545940.000000
546783.000000
547648.000000
548524.000000
549391.000000
550233.000000
551075.000000
551948.000000
552819.000000
553668.000000
554506.000000
555351.000000
556197.000000
557057.000000
557892.000000
558717.000000
559584.000000
560453.000000
561323.000000
562169.000000
563024.000000
563889.000000
564767.000000
565628.000000
566470.000000
567331.000000
568211.000000
569089.000000
569942.000000
570803.000000
571669.000000
572540.000000
573385.000000
574239.000000
575101.000000
575993.000000
576913.000000
577794.000000
578656.000000
579528.000000
580403.000000
581267.000000
582111.000000
582969.000000
583831.000000
584681.000000
585530.000000
586372.000000
587221.000000
588095.000000
588941.000000
589771.000000
590617.000000
591462.000000
592268.000000
592988.000000
593694.000000
594440.000000
595200.000000
595957.000000
596739.000000
597581.000000
598480.000000
599364.000000
600164.000000
600978.000000
601794.000000
602611.000000
603397.000000
604170.000000
604968.000000
605802.000000
606620.000000
607408.000000
608187.000000
609011.000000
609857.000000
610688.000000
611493.000000
612298.000000
613110.000000
613910.000000
614695.000000
615493.000000
616318.000000
617154.000000
618000.000000
618791.000000
619562.000000
620333.000000
621120.000000
621885.000000
622644.000000
623405.000000
624213.000000
625006.000000
625772.000000
626537.000000
627310.000000
628096.000000
628883.000000
629636.000000
630387.000000
631161.000000
631936.000000
632722.000000
633489.000000
634259.000000
635058.000000
635880.000000
636667.000000
637441.000000
638221.000000
639013.000000
639845.000000
640668.000000
641447.000000
642248.000000
643061.000000
643868.000000
644651.000000
645404.000000
646142.000000
646905.000000
647769.000000
648743.000000
649702.000000
650574.000000
651433.000000
652317.000000
653190.000000
654046.000000
654911.000000
655768.000000
656617.000000
657443.000000
658265.000000
659100.000000
659967.000000
660840.000000
661672.000000
662522.000000
663381.000000
664217.000000
665001.000000
665800.000000
666604.000000
667484.000000
668379.000000
669176.000000
669905.000000
670635.000000
671454.000000
672306.000000
673117.000000
673939.000000
674824.000000
675726.000000
676573.000000
677378.000000
678179.000000
678999.000000
679827.000000
680689.000000
681546.000000
682484.000000
683450.000000
684383.000000
685244.000000
686098.000000
686953.000000
687802.000000
688663.000000
689513.000000
690342.000000
691216.000000
692092.000000
692981.000000
693838.000000
694684.000000
695556.000000
696427.000000
697272.000000
698115.000000
698968.000000
699821.000000
700686.000000
701524.000000
702360.000000
703211.000000
704067.000000
704910.000000
705768.000000
706627.000000
707450.000000
708279.000000
709105.000000
709945.000000
710785.000000
711595.000000
712405.000000
713202.000000
713944.000000
714650.000000
715350.000000
716102.000000
716914.000000
717713.000000
718549.000000
719423.000000
720315.000000
721169.000000
721974.000000
722833.000000
723746.000000
724660.000000
725518.000000
726357.000000
727242.000000
728172.000000
729066.000000
729930.000000
730786.000000
731669.000000
732562.000000
733423.000000
734239.000000
735036.000000
735861.000000
736674.000000
737455.000000
738232.000000
739044.000000
739894.000000
740750.000000
741556.000000
742365.000000
743113.000000
743832.000000
744571.000000
745358.000000
746155.000000
746930.000000
747717.000000
748525.000000
749382.000000
750205.000000
751003.000000
751809.000000
752629.000000
753467.000000
754272.000000
755052.000000
755843.000000
756671.000000
757479.000000
758270.000000
759080.000000
759940.000000
760845.000000
761771.000000
762607.000000
763442.000000
764271.000000
765071.000000
765895.000000
766762.000000
767605.000000
768407.000000
769245.000000
770128.000000
771075.000000
771982.000000
772831.000000
773647.000000
774426.000000
775148.000000
775866.000000
776680.000000
777605.000000
778479.000000
779302.000000
780184.000000
781084.000000
781972.000000
782805.000000
783627.000000
784461.000000
785312.000000
786136.000000
786929.000000
787756.000000
788710.000000
789632.000000
790517.000000
791364.000000
792156.000000
792967.000000
793820.000000
794705.000000
795625.000000
796529.000000
797418.000000
798291.000000
799168.000000
800036.000000
800891.000000
801742.000000
802613.000000
803493.000000
804389.000000
805235.000000
806109.000000
807023.000000
807923.000000
808784.000000
809626.000000
810471.000000
811335.000000
812170.000000
812989.000000
813825.000000
814770.000000
815746.000000
816668.000000
817554.000000
818460.000000
819371.000000
820292.000000
821177.000000
822063.000000
822963.000000
823862.000000
824737.000000
825592.000000
826452.000000
827264.000000
828008.000000
828751.000000
829554.000000
830362.000000
831180.000000
832044.000000
832964.000000
833850.000000
834699.000000
835557.000000
836404.000000
837214.000000
837983.000000
838746.000000
839464.000000
840176.000000
840947.000000
841765.000000
842557.000000
843386.000000
844358.000000
845328.000000
846274.000000
847129.000000
848010.000000
848911.000000
849809.000000
850673.000000
851519.000000
852357.000000
853241.000000
854107.000000
854961.000000
855871.000000
856776.000000
857652.000000
858533.000000
859419.000000
860304.000000
861200.000000
862071.000000
862958.000000
863854.000000
864743.000000
865601.000000
866459.000000
867336.000000
868213.000000
869083.000000
869940.000000
870815.000000
871684.000000
872551.000000
873397.000000
874249.000000
875096.000000
875946.000000
876786.000000
877626.000000
878468.000000
879311.000000
880150.000000
880964.000000
881794.000000
882600.000000
883323.000000
884043.000000
884861.000000
885705.000000
886521.000000
887374.000000
888265.000000
889147.000000
889973.000000
890782.000000
891620.000000
892470.000000
893335.000000
894166.000000
895027.000000
895919.000000
896858.000000
897741.000000
898594.000000
899467.000000
900355.000000
901204.000000
902049.000000
902912.000000
903823.000000
904712.000000
905598.000000
906518.000000
907437.000000
908328.000000
909216.000000
910127.000000
911027.000000
911933.000000
912826.000000
913726.000000
914628.000000
915533.000000
