ECG (ms)
783.000000
1696.000000
2614.000000
3534.000000
4411.000000
5344.000000
6319.000000
7318.000000
8291.000000
9206.000000
10215.000000
11215.000000
12182.000000
13088.000000
14063.000000
15062.000000
16068.000000
17080.000000
18011.000000
18979.000000
19989.000000
20994.000000
21980.000000
22903.000000
23794.000000
24755.000000
25738.000000
26724.000000
27723.000000
28667.000000
29590.000000
30582.000000
31586.000000
32586.000000
33579.000000
34529.000000
35527.000000
36541.000000
37539.000000
38503.000000
39420.000000
40406.000000
41395.000000
42380.000000
43319.000000
44243.000000
45226.000000
46197.000000
47166.000000
48086.000000
48980.000000
49928.000000
50825.000000
51676.000000
52518.000000
53360.000000
54256.000000
55223.000000
56239.000000
57242.000000
58180.000000
59112.000000
60106.000000
61102.000000
62090.000000
63054.000000
63960.000000
64857.000000
65795.000000
66739.000000
67690.000000
68646.000000
69581.000000
70528.000000
71521.000000
72529.000000
73519.000000
74446.000000
75422.000000
76410.000000
77383.000000
78356.000000
79259.000000
80156.000000
81097.000000
82046.000000
83012.000000
83984.000000
84906.000000
85831.000000
86802.000000
87785.000000
88774.000000
89741.000000
90658.000000
91600.000000
92556.000000
93512.000000
94454.000000
95340.000000
96253.000000
97194.000000
98159.000000
99125.000000
100070.000000
100983.000000
101946.000000
102919.000000
103878.000000
104794.000000
105685.000000
106628.000000
107592.000000
108548.000000
109455.000000
110339.000000
111266.000000
112219.000000
113163.000000
114081.000000
114974.000000
115917.000000
116876.000000
117833.000000
118768.000000
119658.000000
120581.000000
121524.000000
122466.000000
123406.000000
124302.000000
125183.000000
126106.000000
127053.000000
128004.000000
128953.000000
129855.000000
130777.000000
131745.000000
132712.000000
133635.000000
134540.000000
135505.000000
136467.000000
137410.000000
138302.000000
139200.000000
140150.000000
141114.000000
142036.000000
142906.000000
143778.000000
144624.000000
145452.000000
146322.000000
147247.000000
148223.000000
149196.000000
150125.000000
151028.000000
151999.000000
153000.000000
153995.000000
154982.000000
155926.000000
156894.000000
157881.000000
158869.000000
159818.000000
160730.000000
161696.000000
162672.000000
163653.000000
164617.000000
165539.000000
166511.000000
167507.000000
168512.000000
169493.000000
170436.000000
171424.000000
172422.000000
173413.000000
174392.000000
175330.000000
176329.000000
177344.000000
178359.000000
179348.000000
180271.000000
181215.000000
182202.000000
183189.000000
184184.000000
185141.000000
186085.000000
187100.000000
188126.000000
189146.000000
190152.000000
191111.000000
192105.000000
193123.000000
194140.000000
195151.000000
196112.000000
197054.000000
198053.000000
199068.000000
200062.000000
201046.000000
201978.000000
202949.000000
203932.000000
204923.000000
205901.000000
206839.000000
207828.000000
208853.000000
209876.000000
210884.000000
211837.000000
212782.000000
213770.000000
214762.000000
215738.000000
216687.000000
217612.000000
218593.000000
219583.000000
220587.000000
221569.000000
222508.000000
223490.000000
224484.000000
225463.000000
226412.000000
227311.000000
228218.000000
229194.000000
230182.000000
231176.000000
232120.000000
233047.000000
234038.000000
235044.000000
236044.000000
236985.000000
237895.000000
238859.000000
239850.000000
240849.000000
241857.000000
242855.000000
243838.000000
244777.000000
245755.000000
246728.000000
247704.000000
248653.000000
249566.000000
250511.000000
251513.000000
252522.000000
253525.000000
254484.000000
255443.000000
256459.000000
257472.000000
258432.000000
259354.000000
260325.000000
261309.000000
262291.000000
263261.000000
264187.000000
265129.000000
266108.000000
267077.000000
267997.000000
268898.000000
269850.000000
270813.000000
271772.000000
272684.000000
273603.000000
274551.000000
275515.000000
276450.000000
277351.000000
278281.000000
279226.000000
280171.000000
281059.000000
281930.000000
282850.000000
283785.000000
284730.000000
285683.000000
286598.000000
287518.000000
288481.000000
289439.000000
290374.000000
291270.000000
292141.000000
293071.000000
294029.000000
294986.000000
295901.000000
296784.000000
297666.000000
298590.000000
299535.000000
300514.000000
301488.000000
302420.000000
303363.000000
304372.000000
305386.000000
306385.000000
307386.000000
308327.000000
309289.000000
310303.000000
311318.000000
312311.000000
313262.000000
314254.000000
315278.000000
316304.000000
317319.000000
318263.000000
319211.000000
320212.000000
321225.000000
322231.000000
323211.000000
324149.000000
325108.000000
326105.000000
327125.000000
328072.000000
329047.000000
330053.000000
331054.000000
332053.000000
333050.000000
333997.000000
334909.000000
335796.000000
336642.000000
337570.000000
338625.000000
339680.000000
340710.000000
341754.000000
342778.000000
343782.000000
344832.000000
345888.000000
346938.000000
347925.000000
348970.000000
349998.000000
351034.000000
352060.000000
353075.000000
354078.000000
355041.000000
355962.000000
356900.000000
357865.000000
358838.000000
359845.000000
360857.000000
361870.000000
362849.000000
363853.000000
364877.000000
365903.000000
366923.000000
367958.000000
368994.000000
369989.000000
370932.000000
371967.000000
372989.000000
374014.000000
375046.000000
376042.000000
376988.000000
377991.000000
379022.000000
380031.000000
381026.000000
382013.000000
382933.000000
383819.000000
384697.000000
385619.000000
386585.000000
387577.000000
388581.000000
389587.000000
390549.000000
391531.000000
392541.000000
393545.000000
394542.000000
395526.000000
396457.000000
397433.000000
398427.000000
399402.000000
400378.000000
401309.000000
402259.000000
403245.000000
404246.000000
405243.000000
406217.000000
407160.000000
408070.000000
409029.000000
410016.000000
411014.000000
412020.000000
412981.000000
413930.000000
414943.000000
415971.000000
416977.000000
417984.000000
418933.000000
419864.000000
420830.000000
421798.000000
422753.000000
423674.000000
424592.000000
425557.000000
426507.000000
427413.000000
428315.000000
429285.000000
430263.000000
431224.000000
432127.000000
433030.000000
433966.000000
434904.000000
435799.000000
436712.000000
437650.000000
438582.000000
439471.000000
440352.000000
441261.000000
442150.000000
443017.000000
443839.000000
444655.000000
445506.000000
446369.000000
447250.000000
448118.000000
448964.000000
449877.000000
450810.000000
451693.000000
452554.000000
453433.000000
454309.000000
455164.000000
456018.000000
456953.000000
457911.000000
458875.000000
459852.000000
460783.000000
461703.000000
462651.000000
463602.000000
464546.000000
465464.000000
466351.000000
467289.000000
468228.000000
469185.000000
470090.000000
470993.000000
471962.000000
472975.000000
473983.000000
475000.000000
475992.000000
476960.000000
477958.000000
478953.000000
479911.000000
480827.000000
481715.000000
482671.000000
483637.000000
484644.000000
485616.000000
486539.000000
487488.000000
488501.000000
489522.000000
490526.000000
491489.000000
492482.000000
493501.000000
494516.000000
495503.000000
496462.000000
497465.000000
498491.000000
499512.000000
500515.000000
501475.000000
502497.000000
503526.000000
504534.000000
505491.000000
506464.000000
507458.000000
508446.000000
509409.000000
510309.000000
511200.000000
512151.000000
513130.000000
514125.000000
515047.000000
515981.000000
516966.000000
517941.000000
518879.000000
519754.000000
520672.000000
521591.000000
522517.000000
523393.000000
524261.000000
525182.000000
526145.000000
527108.000000
528081.000000
529003.000000
529950.000000
530912.000000
531876.000000
532830.000000
533772.000000
534649.000000
535556.000000
536480.000000
537424.000000
538394.000000
539346.000000
540256.000000
541160.000000
542115.000000
543100.000000
544055.000000
545020.000000
545938.000000
546860.000000
547838.000000
548824.000000
549798.000000
550713.000000
551617.000000
552562.000000
553521.000000
554484.000000
555476.000000
556434.000000
557354.000000
558335.000000
559320.000000
560314.000000
561298.000000
562252.000000
563249.000000
564283.000000
565317.000000
566331.000000
567294.000000
568298.000000
569324.000000
570335.000000
571307.000000
572252.000000
573262.000000
574265.000000
575257.000000
576196.000000
577147.000000
578137.000000
579124.000000
580101.000000
581000.000000
581898.000000
582783.000000
583644.000000
584498.000000
585409.000000
586377.000000
587366.000000
588357.000000
589310.000000
590265.000000
591279.000000
592291.000000
593294.000000
594254.000000
595214.000000
596193.000000
597175.000000
598157.000000
599085.000000
599993.000000
600966.000000
601961.000000
602951.000000
603938.000000
604889.000000
605870.000000
606864.000000
607853.000000
608824.000000
609761.000000
610691.000000
611644.000000
612611.000000
613583.000000
614537.000000
615481.000000
616498.000000
617516.000000
618494.000000
619432.000000
620402.000000
621378.000000
622350.000000
623272.000000
624184.000000
625151.000000
626131.000000
627078.000000
627972.000000
628870.000000
629815.000000
630790.000000
631768.000000
632701.000000
633617.000000
634582.000000
635552.000000
636514.000000
637429.000000
638363.000000
639308.000000
640239.000000
641122.000000
641973.000000
642804.000000
643607.000000
644360.000000
645154.000000
646243.000000
647262.000000
648261.000000
649237.000000
650201.000000
651189.000000
652180.000000
653143.000000
654069.000000
655057.000000
656044.000000
657026.000000
657951.000000
658849.000000
659742.000000
660650.000000
661628.000000
662622.000000
663620.000000
664616.000000
665566.000000
666476.000000
667440.000000
668402.000000
669350.000000
670298.000000
671255.000000
672174.000000
673109.000000
674076.000000
675036.000000
676000.000000
676968.000000
677907.000000
678814.000000
679781.000000
680752.000000
681738.000000
682727.000000
683717.000000
684648.000000
685638.000000
686632.000000
687618.000000
688613.000000
689600.000000
690528.000000
691498.000000
692498.000000
693533.000000
694573.000000
695596.000000
696574.000000
697548.000000
698586.000000
699629.000000
700663.000000
701646.000000
702596.000000
703615.000000
704637.000000
705657.000000
706674.000000
707630.000000
708630.000000
709654.000000
710666.000000
711666.000000
712634.000000
713636.000000
714651.000000
715660.000000
716667.000000
717630.000000
718561.000000
719552.000000
720569.000000
721591.000000
722615.000000
723634.000000
724619.000000
725653.000000
726678.000000
727694.000000
728649.000000
729571.000000
730561.000000
731590.000000
732632.000000
733664.000000
734649.000000
735636.000000
736691.000000
737750.000000
738755.000000
739762.000000
740801.000000
741826.000000
742833.000000
743786.000000
744780.000000
745792.000000
746797.000000
747810.000000
748796.000000
749733.000000
750707.000000
751715.000000
752721.000000
753718.000000
754652.000000
755554.000000
756444.000000
757421.000000
758419.000000
759392.000000
760298.000000
761209.000000
762149.000000
763076.000000
763982.000000
764961.000000
765949.000000
766947.000000
767941.000000
768908.000000
769853.000000
770833.000000
771807.000000
772766.000000
773693.000000
774566.000000
775460.000000
776373.000000
777283.000000
778195.000000
779091.000000
779958.000000
780859.000000
781758.000000
782647.000000
783529.000000
784374.000000
785264.000000
786172.000000
787103.000000
788035.000000
788913.000000
789769.000000
790673.000000
791589.000000
792521.000000
793475.000000
794395.000000
795342.000000
796336.000000
797323.000000
798279.000000
799169.000000
800044.000000
800920.000000
801853.000000
802813.000000
803785.000000
804733.000000
805638.000000
806529.000000
807404.000000
808271.000000
809203.000000
810083.000000
810957.000000
811800.000000
812629.000000
813527.000000
814519.000000
815426.000000
816367.000000
817388.000000
818443.000000
819416.000000
820316.000000
821281.000000
822267.000000
823215.000000
824144.000000
825029.000000
825911.000000
826822.000000
827729.000000
828604.000000
829532.000000
830498.000000
831473.000000
832453.000000
833444.000000
834397.000000
835311.000000
836268.000000
837256.000000
838274.000000
839300.000000
840335.000000
841376.000000
842407.000000
843387.000000
844416.000000
845451.000000
846466.000000
847470.000000
848411.000000
849396.000000
850392.000000
851404.000000
852423.000000
853435.000000
854399.000000
855333.000000
856250.000000
857116.000000
857892.000000
858667.000000
859529.000000
860514.000000
861557.000000
862558.000000
863514.000000
864522.000000
865548.000000
866523.000000
867443.000000
868431.000000
869486.000000
870537.000000
871537.000000
872527.000000
873495.000000
874414.000000
875351.000000
876306.000000
877262.000000
878222.000000
879183.000000
880114.000000
881030.000000
881985.000000
882934.000000
883877.000000
884814.000000
885718.000000
886709.000000
887708.000000
888750.000000
889781.000000
890811.000000
891821.000000
892822.000000
893873.000000
894933.000000
895995.000000
897047.000000
898063.000000
899050.000000
900078.000000
901122.000000
902151.000000
903176.000000
904156.000000
905140.000000
906164.000000
907196.000000
908217.000000
909207.000000
910237.000000
911310.000000
912352.000000
913385.000000
914360.000000
915371.000000
916411.000000
917447.000000
918460.000000
919414.000000
920421.000000
921462.000000
922516.000000
923551.000000
924522.000000
925511.000000
926529.000000
927558.000000
928580.000000
929533.000000
930525.000000
931505.000000
932444.000000
933366.000000
934340.000000
935317.000000
936301.000000
937255.000000
938175.000000
939152.000000
940137.000000
941124.000000
942083.000000
943026.000000
944002.000000
944991.000000
945976.000000
946925.000000
947872.000000
948859.000000
949850.000000
950827.000000
951753.000000
952700.000000
953682.000000
954671.000000
955655.000000
956603.000000
957529.000000
958502.000000
959482.000000
960452.000000
961368.000000
962298.000000
963276.000000
964268.000000
965256.000000
966195.000000
967157.000000
968147.000000
969144.000000
970099.000000
971053.000000
972045.000000
973032.000000
973977.000000
974900.000000
975855.000000
976802.000000
977747.000000
978640.000000
979522.000000
980417.000000
981288.000000
982196.000000
983138.000000
984092.000000
985046.000000
985992.000000
986984.000000
987985.000000
988960.000000
989918.000000
990924.000000
991943.000000
992940.000000
993911.000000
994905.000000
995935.000000
996973.000000
998012.000000
998982.000000
1000003.000000
1001029.000000
1002023.000000
1002959.000000
1003959.000000
1004950.000000
1005930.000000
1006875.000000
1007863.000000
1008875.000000
1009860.000000
1010780.000000
1011753.000000
1012756.000000
1013766.000000
1014730.000000
1015699.000000
1016678.000000
1017653.000000
1018588.000000
1019519.000000
1020497.000000
1021491.000000
1022490.000000
1023459.000000
1024431.000000
1025438.000000
1026436.000000
1027420.000000
1028343.000000
1029255.000000
1030201.000000
1031169.000000
1032151.000000
1033107.000000
1034044.000000
1035027.000000
1036028.000000
1037034.000000
1038001.000000
1038973.000000
1039985.000000
1041004.000000
1042015.000000
1042975.000000
1043959.000000
1044967.000000
1045975.000000
1046944.000000
1047898.000000
1048907.000000
1049924.000000
1050930.000000
1051871.000000
1052814.000000
1053797.000000
1054791.000000
1055789.000000
1056739.000000
1057716.000000
1058731.000000
1059760.000000
1060748.000000
1061697.000000
1062697.000000
1063707.000000
1064703.000000
1065668.000000
1066615.000000
1067622.000000
1068638.000000
1069650.000000
1070610.000000
1071588.000000
1072597.000000
1073609.000000
1074616.000000
1075594.000000
1076583.000000
1077591.000000
1078595.000000
1079603.000000
1080581.000000
1081541.000000
1082554.000000
1083542.000000
1084542.000000
1085505.000000
1086467.000000
1087480.000000
1088517.000000
1089532.000000
1090497.000000
1091511.000000
1092540.000000
1093543.000000
1094474.000000
1095412.000000
1096355.000000
1097273.000000
1098249.000000
1099251.000000
1100260.000000
1101278.000000
1102238.000000
1103240.000000
1104244.000000
1105241.000000
1106188.000000
1107162.000000
1108140.000000
1109125.000000
1110122.000000
1111130.000000
1112124.000000
1113061.000000
1114077.000000
1115101.000000
1116130.000000
1117116.000000
1118083.000000
1119097.000000
1120130.000000
1121156.000000
1122145.000000
1123148.000000
1124183.000000
1125228.000000
1126226.000000
1127219.000000
1128263.000000
1129315.000000
1130360.000000
1131333.000000
1132273.000000
1133261.000000
1134275.000000
1135301.000000
1136302.000000
1137260.000000
1138266.000000
1139309.000000
1140344.000000
1141346.000000
1142295.000000
1143272.000000
1144270.000000
1145267.000000
1146252.000000
1147183.000000
1148149.000000
1149114.000000
1150093.000000
1151035.000000
1151939.000000
1152813.000000
1153723.000000
1154685.000000
1155682.000000
1156695.000000
1157705.000000
1158670.000000
1159690.000000
1160722.000000
1161745.000000
1162736.000000
1163742.000000
1164754.000000
1165766.000000
1166734.000000
1167670.000000
1168652.000000
1169632.000000
1170602.000000
1171530.000000
1172495.000000
1173474.000000
1174448.000000
1175371.000000
1176297.000000
1177264.000000
1178243.000000
1179218.000000
1180153.000000
1181096.000000
1182089.000000
1183083.000000
1184049.000000
1185022.000000
1186041.000000
1187052.000000
1188025.000000
1188963.000000
1189922.000000
1190889.000000
1191835.000000
1192760.000000
1193722.000000
1194700.000000
1195670.000000
1196599.000000
1197535.000000
1198494.000000
1199449.000000
1200394.000000
1201316.000000
1202272.000000
1203265.000000
1204272.000000
1205237.000000
1206189.000000
1207207.000000
1208232.000000
1209227.000000
1210184.000000
1211188.000000
1212204.000000
1213203.000000
1214151.000000
1215153.000000
1216178.000000
1217197.000000
1218172.000000
1219184.000000
1220206.000000
1221219.000000
1222188.000000
1223178.000000
1224217.000000
1225218.000000
1226168.000000
