ECG (ms)
649.000000
1740.000000
2829.000000
3886.000000
4968.000000
6021.000000
7073.000000
8098.000000
9148.000000
10185.000000
11228.000000
12241.000000
13266.000000
14229.000000
15246.000000
16295.000000
17262.000000
18203.000000
19100.000000
20078.000000
21251.000000
22375.000000
23448.000000
24484.000000
25578.000000
26643.000000
27674.000000
28737.000000
29796.000000
30836.000000
31925.000000
32999.000000
34082.000000
35172.000000
36231.000000
37315.000000
38369.000000
39401.000000
40456.000000
41502.000000
42501.000000
43472.000000
44525.000000
45609.000000
46689.000000
47760.000000
48857.000000
49952.000000
50991.000000
52060.000000
53124.000000
54175.000000
55257.000000
56315.000000
57380.000000
58458.000000
59507.000000
60580.000000
61635.000000
62667.000000
63736.000000
64801.000000
65837.000000
66912.000000
67946.000000
69008.000000
70078.000000
71149.000000
72182.000000
73254.000000
74379.000000
75487.000000
76558.000000
77595.000000
78674.000000
79757.000000
80802.000000
81822.000000
82871.000000
83907.000000
84906.000000
85898.000000
86936.000000
87970.000000
88985.000000
89996.000000
91036.000000
92054.000000
93060.000000
94067.000000
95035.000000
95968.000000
96801.000000
97602.000000
98488.000000
99465.000000
100614.000000
101718.000000
102779.000000
103891.000000
104958.000000
106026.000000
107101.000000
108135.000000
109199.000000
110264.000000
111295.000000
112361.000000
113397.000000
114418.000000
115474.000000
116522.000000
117550.000000
118613.000000
119645.000000
120695.000000
121732.000000
122751.000000
123751.000000
124765.000000
125798.000000
126803.000000
127782.000000
128807.000000
129793.000000
130733.000000
131624.000000
132451.000000
133401.000000
134554.000000
135614.000000
136691.000000
137764.000000
138829.000000
139925.000000
141021.000000
142080.000000
143171.000000
144234.000000
145260.000000
146295.000000
147324.000000
148361.000000
149400.000000
150415.000000
151445.000000
152474.000000
153491.000000
154522.000000
155541.000000
156574.000000
157621.000000
158638.000000
159665.000000
160674.000000
161644.000000
162646.000000
163619.000000
164570.000000
165508.000000
166454.000000
167593.000000
168643.000000
169679.000000
170690.000000
171735.000000
172766.000000
173785.000000
174820.000000
175862.000000
176883.000000
177922.000000
178939.000000
179965.000000
181002.000000
182022.000000
183057.000000
184084.000000
185091.000000
186122.000000
187140.000000
188188.000000
189238.000000
190269.000000
191311.000000
192366.000000
193391.000000
194399.000000
195430.000000
196384.000000
197237.000000
198051.000000
198915.000000
199824.000000
200890.000000
201808.000000
202739.000000
203762.000000
204759.000000
205797.000000
206853.000000
207896.000000
208880.000000
209936.000000
210990.000000
211981.000000
213022.000000
214067.000000
215086.000000
216156.000000
217228.000000
218272.000000
219354.000000
220394.000000
221503.000000
222556.000000
223601.000000
224687.000000
225726.000000
226786.000000
227813.000000
228786.000000
229828.000000
230838.000000
231957.000000
233094.000000
234129.000000
235216.000000
236274.000000
237265.000000
238311.000000
239326.000000
240362.000000
241418.000000
242405.000000
243451.000000
244480.000000
245424.000000
246447.000000
247476.000000
248448.000000
249474.000000
250557.000000
251561.000000
252650.000000
253715.000000
254793.000000
255883.000000
256886.000000
257818.000000
258788.000000
259932.000000
261055.000000
262056.000000
263094.000000
264204.000000
265273.000000
266219.000000
267135.000000
268209.000000
269317.000000
270373.000000
271315.000000
272224.000000
273254.000000
274330.000000
275362.000000
276336.000000
277381.000000
278438.000000
279447.000000
280405.000000
281435.000000
282484.000000
283497.000000
284535.000000
285587.000000
286603.000000
287570.000000
288588.000000
289621.000000
290651.000000
291669.000000
292647.000000
293594.000000
294630.000000
295706.000000
296724.000000
297676.000000
298543.000000
299366.000000
300226.000000
301287.000000
302430.000000
303539.000000
304530.000000
305448.000000
306347.000000
307573.000000
308756.000000
309955.000000
311129.000000
312271.000000
313403.000000
314502.000000
315561.000000
316628.000000
317592.000000
318640.000000
319723.000000
320782.000000
321839.000000
322903.000000
323950.000000
324961.000000
325937.000000
326894.000000
327856.000000
328797.000000
329654.000000
330489.000000
331434.000000
332436.000000
333473.000000
334484.000000
335552.000000
336527.000000
337495.000000
338438.000000
339338.000000
340292.000000
341259.000000
342241.000000
343251.000000
344202.000000
345214.000000
346191.000000
347129.000000
348104.000000
349043.000000
349975.000000
350988.000000
351945.000000
352948.000000
353949.000000
354905.000000
355915.000000
356929.000000
357934.000000
358959.000000
359899.000000
360888.000000
361850.000000
362867.000000
363816.000000
364781.000000
365735.000000
366646.000000
367579.000000
368475.000000
369367.000000
370375.000000
371404.000000
372387.000000
373310.000000
374231.000000
375250.000000
376287.000000
377261.000000
378183.000000
379178.000000
380152.000000
381082.000000
381998.000000
383032.000000
384082.000000
385073.000000
386106.000000
387133.000000
388105.000000
389097.000000
390076.000000
391021.000000
392025.000000
393025.000000
394004.000000
395028.000000
396012.000000
396928.000000
397875.000000
398895.000000
399900.000000
400877.000000
401871.000000
402847.000000
403844.000000
404927.000000
405964.000000
406977.000000
408023.000000
408995.000000
409892.000000
410759.000000
411642.000000
412770.000000
413792.000000
414694.000000
415532.000000
416343.000000
417140.000000
417958.000000
419128.000000
420242.000000
421236.000000
422299.000000
423369.000000
424425.000000
425389.000000
426387.000000
427377.000000
428368.000000
429395.000000
430432.000000
431507.000000
432583.000000
433638.000000
434695.000000
435740.000000
436773.000000
437792.000000
438858.000000
439885.000000
440852.000000
441879.000000
442899.000000
443844.000000
444853.000000
445845.000000
446773.000000
447675.000000
448711.000000
449806.000000
450814.000000
451865.000000
452916.000000
453902.000000
454905.000000
455960.000000
456960.000000
458001.000000
459038.000000
460079.000000
461160.000000
462176.000000
463230.000000
464273.000000
465277.000000
466321.000000
467316.000000
468299.000000
469339.000000
470341.000000
471340.000000
472396.000000
473424.000000
474434.000000
475462.000000
476421.000000
477333.000000
478176.000000
479039.000000
480136.000000
481261.000000
482300.000000
483283.000000
484235.000000
485254.000000
486290.000000
487299.000000
488309.000000
489339.000000
490353.000000
491357.000000
492348.000000
493305.000000
494231.000000
495204.000000
496237.000000
497276.000000
498344.000000
499360.000000
500389.000000
501402.000000
502378.000000
503406.000000
504425.000000
505395.000000
506411.000000
507378.000000
508308.000000
509277.000000
510231.000000
511155.000000
512186.000000
513154.000000
514098.000000
515089.000000
516036.000000
517002.000000
517982.000000
518884.000000
519828.000000
520832.000000
521754.000000
522693.000000
523607.000000
524505.000000
525548.000000
526581.000000
527605.000000
528659.000000
529653.000000
530699.000000
531680.000000
532751.000000
533795.000000
534763.000000
535783.000000
536758.000000
537789.000000
538866.000000
539874.000000
540948.000000
541967.000000
542931.000000
543809.000000
545563.000000
546795.000000
547920.000000
549026.000000
550111.000000
551202.000000
552259.000000
553327.000000
554397.000000
555463.000000
556531.000000
557600.000000
558662.000000
559736.000000
560789.000000
561853.000000
562897.000000
563938.000000
564990.000000
566004.000000
567062.000000
568110.000000
569100.000000
570002.000000
570871.000000
571823.000000
572753.000000
573787.000000
574873.000000
575923.000000
576902.000000
577923.000000
578958.000000
579986.000000
580947.000000
581937.000000
582926.000000
583885.000000
584876.000000
585908.000000
586884.000000
587788.000000
588748.000000
589731.000000
590700.000000
591682.000000
592674.000000
593643.000000
594648.000000
595651.000000
596598.000000
597605.000000
598574.000000
599492.000000
600485.000000
601481.000000
602452.000000
603477.000000
604483.000000
605473.000000
606501.000000
607487.000000
608512.000000
609558.000000
610560.000000
611638.000000
612705.000000
613747.000000
614819.000000
615840.000000
616888.000000
617915.000000
618902.000000
619946.000000
620978.000000
621993.000000
623057.000000
624104.000000
625133.000000
626174.000000
627189.000000
628182.000000
629201.000000
630206.000000
631146.000000
632151.000000
633155.000000
634111.000000
635028.000000
636195.000000
637318.000000
638260.000000
639138.000000
640023.000000
640964.000000
642048.000000
643113.000000
644161.000000
645224.000000
646226.000000
647186.000000
648153.000000
649104.000000
650028.000000
651099.000000
652177.000000
653222.000000
654321.000000
655386.000000
656474.000000
657597.000000
658653.000000
659734.000000
660793.000000
661859.000000
662954.000000
663946.000000
664969.000000
665993.000000
666986.000000
667973.000000
669002.000000
670018.000000
671004.000000
672053.000000
673045.000000
674066.000000
675095.000000
676084.000000
677160.000000
678203.000000
679283.000000
680354.000000
681348.000000
682342.000000
683335.000000
684304.000000
685384.000000
686419.000000
687468.000000
688574.000000
689594.000000
690583.000000
691691.000000
692746.000000
693876.000000
695005.000000
696031.000000
697095.000000
698191.000000
699208.000000
700312.000000
701354.000000
702381.000000
703482.000000
704491.000000
705541.000000
706628.000000
707629.000000
708714.000000
709792.000000
710812.000000
711881.000000
712943.000000
713977.000000
715071.000000
716154.000000
717203.000000
718281.000000
719336.000000
720381.000000
721463.000000
722505.000000
723519.000000
724569.000000
725576.000000
726617.000000
727689.000000
728710.000000
729762.000000
730804.000000
731816.000000
732878.000000
733907.000000
734910.000000
735964.000000
736981.000000
737995.000000
739064.000000
740077.000000
741077.000000
742099.000000
743083.000000
744103.000000
745096.000000
745979.000000
746909.000000
747906.000000
748880.000000
749952.000000
751083.000000
752086.000000
753121.000000
754162.000000
755151.000000
756173.000000
757201.000000
758192.000000
759231.000000
760250.000000
761243.000000
762269.000000
763279.000000
764257.000000
765291.000000
766298.000000
767274.000000
768281.000000
769268.000000
770227.000000
771235.000000
772220.000000
773210.000000
774273.000000
775291.000000
776186.000000
777138.000000
778224.000000
779310.000000
780313.000000
781435.000000
782510.000000
783552.000000
784645.000000
785687.000000
786698.000000
787753.000000
788783.000000
789800.000000
790870.000000
791902.000000
792900.000000
793931.000000
794927.000000
795870.000000
796866.000000
797823.000000
798775.000000
799837.000000
800878.000000
801917.000000
802968.000000
803945.000000
804922.000000
805921.000000
806870.000000
807851.000000
808874.000000
809832.000000
810824.000000
811838.000000
812802.000000
813738.000000
814720.000000
815689.000000
816679.000000
817735.000000
818735.000000
819755.000000
820839.000000
821853.000000
822767.000000
823691.000000
824671.000000
825934.000000
827087.000000
828210.000000
829278.000000
830367.000000
831459.000000
832498.000000
833569.000000
834640.000000
835691.000000
836763.000000
837820.000000
838868.000000
839925.000000
840964.000000
842007.000000
843046.000000
844054.000000
845079.000000
846091.000000
847083.000000
848034.000000
848981.000000
849873.000000
850785.000000
851643.000000
852489.000000
853415.000000
854360.000000
855407.000000
856465.000000
857458.000000
858525.000000
859601.000000
860601.000000
861631.000000
862620.000000
863579.000000
864582.000000
865537.000000
866477.000000
867451.000000
868360.000000
869314.000000
870292.000000
871243.000000
872261.000000
873298.000000
874266.000000
875311.000000
876317.000000
877299.000000
878285.000000
879203.000000
880160.000000
881152.000000
882075.000000
883070.000000
884171.000000
885207.000000
886306.000000
887389.000000
888492.000000
889658.000000
890765.000000
891886.000000
892972.000000
893972.000000
895021.000000
896076.000000
897008.000000
897933.000000
899100.000000
900240.000000
901253.000000
902178.000000
903042.000000
903964.000000
904963.000000
906124.000000
907263.000000
908352.000000
909479.000000
910549.000000
911607.000000
912672.000000
913662.000000
914681.000000
915723.000000
916742.000000
917775.000000
918801.000000
919787.000000
920839.000000
921889.000000
922922.000000
923994.000000
924985.000000
925948.000000
926937.000000
927932.000000
928907.000000
929957.000000
931029.000000
932020.000000
932918.000000
934701.000000
935858.000000
936900.000000
937932.000000
938974.000000
939989.000000
941037.000000
942072.000000
943111.000000
944170.000000
945231.000000
946250.000000
947312.000000
948385.000000
949421.000000
950444.000000
951444.000000
952434.000000
953429.000000
954410.000000
955424.000000
956441.000000
957438.000000
958452.000000
959478.000000
960465.000000
961485.000000
962477.000000
963426.000000
964437.000000
965503.000000
966488.000000
967507.000000
968516.000000
969452.000000
970363.000000
971400.000000
972429.000000
973388.000000
974409.000000
975453.000000
976426.000000
977391.000000
978417.000000
979390.000000
980325.000000
981396.000000
982427.000000
983552.000000
984672.000000
985723.000000
986799.000000
987886.000000
988927.000000
989996.000000
991007.000000
992038.000000
993110.000000
994156.000000
995294.000000
996426.000000
997489.000000
998577.000000
999615.000000
1000687.000000
1001764.000000
1002786.000000
1003836.000000
1004861.000000
1005886.000000
1006929.000000
1007941.000000
1008957.000000
1009965.000000
1010902.000000
1011861.000000
1012812.000000
1013705.000000
1014565.000000
1015397.000000
1016289.000000
1017219.000000
1018274.000000
1019326.000000
1020338.000000
1021377.000000
1022401.000000
1023366.000000
1024283.000000
1025220.000000
1026278.000000
1027348.000000
1028358.000000
1029392.000000
1030425.000000
1031401.000000
1032390.000000
1033376.000000
1034324.000000
1035318.000000
1036304.000000
1037216.000000
1038191.000000
1039210.000000
1040208.000000
1041257.000000
1042332.000000
1043366.000000
1044488.000000
1045606.000000
1046666.000000
1047748.000000
1048813.000000
1049823.000000
1050889.000000
1051949.000000
1052976.000000
1054075.000000
1055173.000000
1056201.000000
1057264.000000
1058291.000000
1059250.000000
1060277.000000
1061307.000000
1062279.000000
1063340.000000
1064376.000000
1065369.000000
1066405.000000
1067382.000000
1068406.000000
1069428.000000
1070401.000000
1071441.000000
1072453.000000
1073440.000000
1074483.000000
1075458.000000
1076475.000000
1077504.000000
1078488.000000
1079505.000000
1080501.000000
1081456.000000
1082497.000000
1083492.000000
1084481.000000
1085532.000000
1086567.000000
1087531.000000
1088473.000000
1089524.000000
1090574.000000
1091550.000000
1092576.000000
1093608.000000
1094709.000000
1095863.000000
1096970.000000
1098104.000000
1099211.000000
1100286.000000
1101399.000000
1102488.000000
1103598.000000
1104655.000000
1105740.000000
1106800.000000
1107780.000000
1108635.000000
1109558.000000
1110546.000000
1111574.000000
1112689.000000
1113867.000000
1115003.000000
1116073.000000
1117060.000000
1118146.000000
1119245.000000
1120249.000000
1121170.000000
1122053.000000
1123064.000000
1124287.000000
1125432.000000
1126559.000000
1127664.000000
1128735.000000
1129818.000000
1130903.000000
1131968.000000
1133033.000000
1134110.000000
1135187.000000
1136245.000000
1137330.000000
1138409.000000
1139464.000000
1140528.000000
1141570.000000
1142586.000000
1143701.000000
1144799.000000
1145832.000000
1146898.000000
1147947.000000
1148959.000000
1150012.000000
1151008.000000
1151915.000000
1152820.000000
1153974.000000
1155096.000000
1156110.000000
1157081.000000
1158097.000000
1159084.000000
1160157.000000
1161281.000000
1162348.000000
1163544.000000
1164655.000000
1165791.000000
1166917.000000
1167998.000000
1169127.000000
1170235.000000
1171333.000000
1172444.000000
1173526.000000
1174632.000000
1175735.000000
1176814.000000
1177925.000000
1179023.000000
1180098.000000
1181195.000000
1182301.000000
1183404.000000
1184522.000000
1185610.000000
1186707.000000
1187792.000000
1188846.000000
1189922.000000
1190969.000000
1191945.000000
1192803.000000
1193645.000000
1194700.000000
1195784.000000
1196928.000000
1198059.000000
1199179.000000
1200308.000000
1201442.000000
1202506.000000
1203613.000000
1204706.000000
1205786.000000
1206903.000000
1207981.000000
1209028.000000
1210078.000000
1211124.000000
1212135.000000
1213224.000000
1214339.000000
1215410.000000
1216486.000000
1217513.000000
1218561.000000
1219656.000000
1220694.000000
1221777.000000
1222814.000000
1223826.000000
1224817.000000
1225746.000000
1226643.000000
1227673.000000
1228683.000000
1229612.000000
1230499.000000
1231348.000000
1232326.000000
1233403.000000
1234482.000000
1235594.000000
1236664.000000
1237714.000000
1238796.000000
1239869.000000
1240858.000000
1241851.000000
1242880.000000
1243910.000000
1244865.000000
1245892.000000
1246962.000000
1247986.000000
1248980.000000
1250059.000000
1251168.000000
1252200.000000
1253275.000000
1254344.000000
1255382.000000
1256486.000000
1257539.000000
1258619.000000
1259687.000000
1260687.000000
1261696.000000
1262732.000000
1263754.000000
1264796.000000
1265846.000000
1266823.000000
1267842.000000
1268850.000000
1269808.000000
1270831.000000
1271889.000000
1272861.000000
1273866.000000
1274904.000000
1275900.000000
1276921.000000
1277979.000000
1278954.000000
1279942.000000
1281133.000000
1282258.000000
1283358.000000
1284653.000000
1285805.000000
1286962.000000
1288146.000000
1289282.000000
1290461.000000
1291632.000000
1292742.000000
1293895.000000
1295035.000000
1296108.000000
1297222.000000
1298328.000000
1299434.000000
1300551.000000
1301633.000000
1302742.000000
1303830.000000
1304907.000000
1305968.000000
1307003.000000
1308070.000000
1309152.000000
1310200.000000
1311273.000000
1312341.000000
1313412.000000
1314511.000000
1315587.000000
1316696.000000
1317792.000000
1318893.000000
1319986.000000
1321058.000000
1322160.000000
1323234.000000
1324299.000000
1325395.000000
1326476.000000
1327552.000000
1328632.000000
1329693.000000
1330782.000000
1331866.000000
1332880.000000
1333944.000000
1335018.000000
1336068.000000
1337171.000000
1338215.000000
1339242.000000
1340341.000000
1341409.000000
1342453.000000
1343550.000000
1344584.000000
1345580.000000
1346491.000000
1347441.000000
1348461.000000
1349632.000000
1350731.000000
1351828.000000
1352919.000000
1353954.000000
1355014.000000
1356045.000000
1357065.000000
1358130.000000
1359167.000000
1360207.000000
1361251.000000
1362260.000000
1363316.000000
1364369.000000
1365387.000000
1366452.000000
1367503.000000
1368534.000000
1369597.000000
1370635.000000
1371700.000000
1372773.000000
1373839.000000
1374953.000000
1376056.000000
1377137.000000
1378249.000000
1379329.000000
1380415.000000
1381510.000000
1382574.000000
1383642.000000
1384711.000000
1385726.000000
1386764.000000
1387803.000000
1388809.000000
1389863.000000
1390915.000000
1391931.000000
1392990.000000
1394003.000000
1394958.000000
1395853.000000
1396775.000000
1397751.000000
1398795.000000
1399900.000000
1400960.000000
1402079.000000
1403193.000000
1404282.000000
1405385.000000
1406465.000000
1407572.000000
1408683.000000
1409770.000000
1410875.000000
1411961.000000
1413055.000000
1414144.000000
1415215.000000
1416292.000000
1417372.000000
1418410.000000
1419467.000000
1420511.000000
1421536.000000
1422604.000000
1423658.000000
1424725.000000
1425813.000000
1426873.000000
1427965.000000
1429046.000000
1430095.000000
1431182.000000
1432248.000000
1433318.000000
1434394.000000
1435436.000000
1436505.000000
1437566.000000
1438594.000000
1439651.000000
1440668.000000
1441620.000000
1442633.000000
1443635.000000
1444592.000000
1445726.000000
1446797.000000
1447764.000000
1448903.000000
1450052.000000
1451115.000000
1452216.000000
1453355.000000
1454411.000000
1455541.000000
1456653.000000
1457745.000000
1458897.000000
1459955.000000
1461022.000000
1462025.000000
1463007.000000
1464184.000000
1465314.000000
1466435.000000
1467567.000000
1468667.000000
1469776.000000
1470875.000000
1471919.000000
1473002.000000
1474096.000000
1475179.000000
1476288.000000
1477378.000000
1478444.000000
1479528.000000
1480567.000000
1481629.000000
1482706.000000
1483752.000000
1484827.000000
1485904.000000
1486973.000000
1488067.000000
1489140.000000
1490197.000000
1491276.000000
1492354.000000
1493411.000000
1494476.000000
1495538.000000
1496591.000000
1497695.000000
1498771.000000
1499779.000000
1500772.000000
1501745.000000
1502658.000000
1503661.000000
1504694.000000
1505677.000000
1506770.000000
1507790.000000
1508708.000000
1509761.000000
1510746.000000
1511655.000000
1512598.000000
1513593.000000
1514677.000000
1515847.000000
1516959.000000
1518085.000000
1519215.000000
1520302.000000
1521404.000000
1522512.000000
1523589.000000
1524665.000000
1525749.000000
1526783.000000
1527834.000000
1528893.000000
1529931.000000
1531008.000000
1532105.000000
1533178.000000
1534277.000000
1535361.000000
1536411.000000
1537492.000000
1538559.000000
1539625.000000
1540712.000000
1541797.000000
1542881.000000
1543970.000000
1545036.000000
1546125.000000
1547206.000000
1548255.000000
1549326.000000
1550400.000000
1551435.000000
1552525.000000
1553624.000000
1554713.000000
1555842.000000
1556962.000000
1558045.000000
1559161.000000
1560258.000000
1561325.000000
1562420.000000
1563504.000000
1564564.000000
1565670.000000
1566745.000000
1567794.000000
1568876.000000
1569923.000000
1570988.000000
1572074.000000
1573113.000000
1574186.000000
1575268.000000
1576313.000000
1577392.000000
1578467.000000
1579504.000000
1580580.000000
1581629.000000
1582676.000000
1583732.000000
1584772.000000
1585807.000000
1586875.000000
1587916.000000
1588973.000000
1590045.000000
1591076.000000
1592123.000000
1593178.000000
1594221.000000
1595277.000000
1596306.000000
1597311.000000
1598356.000000
1599311.000000
1600220.000000
1601137.000000
1602156.000000
1603167.000000
1604173.000000
1605430.000000
1606573.000000
1607706.000000
1608791.000000
1609906.000000
1611009.000000
1612066.000000
1613128.000000
1614197.000000
1615261.000000
1616346.000000
1617432.000000
1618493.000000
1619585.000000
1620669.000000
1621731.000000
1622808.000000
1623876.000000
1624910.000000
1625948.000000
1626992.000000
1628027.000000
1629112.000000
1630221.000000
1631321.000000
1632450.000000
1633531.000000
1634551.000000
1635612.000000
1636673.000000
1637699.000000
1638791.000000
1639877.000000
1640910.000000
1642010.000000
1643098.000000
1644142.000000
1645230.000000
1646303.000000
1647353.000000
1648456.000000
1649539.000000
1650642.000000
1651786.000000
1652897.000000
1654004.000000
1655113.000000
1656194.000000
1657272.000000
1658361.000000
1659443.000000
1660525.000000
1661608.000000
1662678.000000
1663760.000000
1664852.000000
1665923.000000
1666954.000000
1668037.000000
1669080.000000
1670100.000000
1671197.000000
1672283.000000
1673339.000000
1674456.000000
1675533.000000
1676604.000000
1677746.000000
1678852.000000
1679969.000000
1681097.000000
1682187.000000
1683292.000000
1684403.000000
1685473.000000
1686560.000000
1687651.000000
1688699.000000
1689772.000000
1690862.000000
1691924.000000
1692995.000000
1694080.000000
1695153.000000
1696233.000000
1697340.000000
1698413.000000
1699450.000000
1700525.000000
1701585.000000
1702621.000000
1703665.000000
1704643.000000
1705623.000000
1706754.000000
1707870.000000
1708899.000000
1709997.000000
1711067.000000
1712097.000000
1713172.000000
1714250.000000
1715298.000000
1716396.000000
1717499.000000
1718553.000000
1719632.000000
1720702.000000
1721739.000000
1722796.000000
1723839.000000
1724861.000000
1725881.000000
1726947.000000
1728024.000000
1729068.000000
1730113.000000
1731152.000000
1732164.000000
1733129.000000
1734151.000000
1735210.000000
1736261.000000
1737376.000000
1738471.000000
1739519.000000
1740535.000000
1741457.000000
1742301.000000
1743240.000000
1744823.000000
1745906.000000
1747000.000000
1748284.000000
1749438.000000
1750555.000000
1751764.000000
1752977.000000
1754105.000000
1755164.000000
1756179.000000
1757307.000000
1758478.000000
1759632.000000
1760774.000000
1761903.000000
1763058.000000
1764204.000000
1765349.000000
1766500.000000
1767632.000000
1768758.000000
1769878.000000
1770975.000000
1772065.000000
1773160.000000
1774241.000000
1775320.000000
1776409.000000
1777444.000000
1778503.000000
1779572.000000
1780623.000000
1781731.000000
1782835.000000
1783899.000000
1784991.000000
1786075.000000
1787165.000000
1788260.000000
1789336.000000
1790451.000000
1791533.000000
1792559.000000
1793611.000000
1794713.000000
1795784.000000
1796778.000000
1797746.000000
1798641.000000
