ECG (ms)
719.000000
1501.000000
2347.000000
3209.000000
3975.000000
4733.000000
5490.000000
6331.000000
7234.000000
8083.000000
8893.000000
9750.000000
10652.000000
11525.000000
12335.000000
13176.000000
14081.000000
15012.000000
15869.000000
16735.000000
17661.000000
18583.000000
19433.000000
20303.000000
21242.000000
22176.000000
23028.000000
23880.000000
24790.000000
25725.000000
26607.000000
27414.000000
28275.000000
29182.000000
30113.000000
30962.000000
31780.000000
32682.000000
33623.000000
34501.000000
35319.000000
36184.000000
37099.000000
38036.000000
38906.000000
39718.000000
40568.000000
41450.000000
42346.000000
43189.000000
44050.000000
44995.000000
45962.000000
46904.000000
47771.000000
48656.000000
49599.000000
50548.000000
51419.000000
52241.000000
53113.000000
54065.000000
55024.000000
55896.000000
56765.000000
57730.000000
58696.000000
59566.000000
60487.000000
61434.000000
62397.000000
63277.000000
64169.000000
65150.000000
66174.000000
67114.000000
68081.000000
69087.000000
70052.000000
70907.000000
71763.000000
72683.000000
73661.000000
74561.000000
75505.000000
76539.000000
77478.000000
78340.000000
79146.000000
79938.000000
80725.000000
81610.000000
82609.000000
83539.000000
84443.000000
85401.000000
86373.000000
87277.000000
88102.000000
88954.000000
89891.000000
90841.000000
91730.000000
92689.000000
93678.000000
94622.000000
95503.000000
96401.000000
97370.000000
98340.000000
99219.000000
100095.000000
101037.000000
102020.000000
102935.000000
103785.000000
104689.000000
105642.000000
106591.000000
107446.000000
108274.000000
109169.000000
110117.000000
110985.000000
111876.000000
112807.000000
113741.000000
114594.000000
115423.000000
116335.000000
117261.000000
118119.000000
118936.000000
119832.000000
120788.000000
121681.000000
122505.000000
123349.000000
124250.000000
125179.000000
126066.000000
126895.000000
127800.000000
128783.000000
129757.000000
130628.000000
131486.000000
132390.000000
133329.000000
134193.000000
135062.000000
136006.000000
136990.000000
137955.000000
138863.000000
139825.000000
140804.000000
141719.000000
142582.000000
143500.000000
144469.000000
145382.000000
146319.000000
147300.000000
148265.000000
149128.000000
150027.000000
150954.000000
151827.000000
152677.000000
153602.000000
154585.000000
155498.000000
156356.000000
157279.000000
158253.000000
159201.000000
160053.000000
160904.000000
161818.000000
162767.000000
163719.000000
164586.000000
165463.000000
166464.000000
167459.000000
168341.000000
169179.000000
170094.000000
171033.000000
171956.000000
172816.000000
173756.000000
174782.000000
175727.000000
176607.000000
177556.000000
178522.000000
179391.000000
180207.000000
181092.000000
182028.000000
182923.000000
183757.000000
184668.000000
185631.000000
186530.000000
187363.000000
188274.000000
189142.000000
189933.000000
190693.000000
191440.000000
192270.000000
193265.000000
194218.000000
195107.000000
196069.000000
197027.000000
197868.000000
198684.000000
199563.000000
200507.000000
201388.000000
202197.000000
203074.000000
204038.000000
205005.000000
205898.000000
206716.000000
207545.000000
208444.000000
209386.000000
210258.000000
211053.000000
211915.000000
212880.000000
213839.000000
214708.000000
215585.000000
216503.000000
217435.000000
218300.000000
219116.000000
220017.000000
221000.000000
221945.000000
222816.000000
223746.000000
224706.000000
225658.000000
226519.000000
227438.000000
228410.000000
229380.000000
230276.000000
231228.000000
232196.000000
233148.000000
234014.000000
234943.000000
235900.000000
236845.000000
237712.000000
238657.000000
239660.000000
240632.000000
241515.000000
242376.000000
243299.000000
244241.000000
245156.000000
246001.000000
246824.000000
247590.000000
248379.000000
249161.000000
249933.000000
250858.000000
251867.000000
252799.000000
253655.000000
254580.000000
255517.000000
256403.000000
257225.000000
258107.000000
259060.000000
260017.000000
260889.000000
261794.000000
262738.000000
263679.000000
264541.000000
265367.000000
266259.000000
267252.000000
268214.000000
269070.000000
269973.000000
270937.000000
271886.000000
272734.000000
273537.000000
274388.000000
275308.000000
276240.000000
277105.000000
277941.000000
278863.000000
279836.000000
280764.000000
281608.000000
282497.000000
283432.000000
284347.000000
285189.000000
286078.000000
286988.000000
287828.000000
288661.000000
289551.000000
290480.000000
291332.000000
292197.000000
293104.000000
293999.000000
294819.000000
295607.000000
296451.000000
297356.000000
298209.000000
299001.000000
299874.000000
300822.000000
301710.000000
302531.000000
303417.000000
304368.000000
305342.000000
306226.000000
307105.000000
308025.000000
308921.000000
309745.000000
310634.000000
311601.000000
312554.000000
313452.000000
314366.000000
315215.000000
315992.000000
316736.000000
317502.000000
318422.000000
319470.000000
320413.000000
321347.000000
322328.000000
323304.000000
324165.000000
325028.000000
325955.000000
326940.000000
327880.000000
328771.000000
329731.000000
330716.000000
331604.000000
332572.000000
333568.000000
334491.000000
335365.000000
336308.000000
337259.000000
338137.000000
339011.000000
339983.000000
340979.000000
341877.000000
342727.000000
343633.000000
344560.000000
345515.000000
346407.000000
347246.000000
348177.000000
349177.000000
350160.000000
351063.000000
351975.000000
352945.000000
353911.000000
354793.000000
355699.000000
356628.000000
357568.000000
358453.000000
359386.000000
360367.000000
361334.000000
362233.000000
363142.000000
364100.000000
365067.000000
365961.000000
366843.000000
367770.000000
368735.000000
369658.000000
370567.000000
371540.000000
372521.000000
373430.000000
374299.000000
375230.000000
376188.000000
377074.000000
377930.000000
378847.000000
379780.000000
380627.000000
381407.000000
382158.000000
382934.000000
383814.000000
384790.000000
385739.000000
386603.000000
387507.000000
388433.000000
389351.000000
390204.000000
391027.000000
391931.000000
392906.000000
393818.000000
394672.000000
395601.000000
396569.000000
397522.000000
398374.000000
399208.000000
400091.000000
401021.000000
401930.000000
402805.000000
403803.000000
404836.000000
405839.000000
406750.000000
407663.000000
408619.000000
409575.000000
410517.000000
411370.000000
412210.000000
413134.000000
414156.000000
415181.000000
416107.000000
417068.000000
418046.000000
419010.000000
419881.000000
420802.000000
421829.000000
422843.000000
423769.000000
424772.000000
425785.000000
426751.000000
427650.000000
428610.000000
429601.000000
430517.000000
431355.000000
432255.000000
433207.000000
434184.000000
435076.000000
436055.000000
437088.000000
438076.000000
438981.000000
439931.000000
440893.000000
441851.000000
442728.000000
443640.000000
444640.000000
445659.000000
446579.000000
447474.000000
448439.000000
449433.000000
450357.000000
451207.000000
452105.000000
453040.000000
453940.000000
454785.000000
455714.000000
456657.000000
457552.000000
458315.000000
459062.000000
459830.000000
460659.000000
461637.000000
462515.000000
463431.000000
464429.000000
465397.000000
466266.000000
467199.000000
468148.000000
469035.000000
469901.000000
470829.000000
471780.000000
472648.000000
473501.000000
474392.000000
475296.000000
476159.000000
477087.000000
478055.000000
478964.000000
479808.000000
480705.000000
481639.000000
482527.000000
483412.000000
484368.000000
485332.000000
486218.000000
487047.000000
487945.000000
488845.000000
489696.000000
490596.000000
491516.000000
492416.000000
493255.000000
494152.000000
495110.000000
496044.000000
496926.000000
497869.000000
498826.000000
499699.000000
500608.000000
501539.000000
502458.000000
503293.000000
504154.000000
505085.000000
505981.000000
506824.000000
507736.000000
508697.000000
509672.000000
510554.000000
511398.000000
512306.000000
513261.000000
514231.000000
515105.000000
515948.000000
516870.000000
517830.000000
518763.000000
519613.000000
520517.000000
521454.000000
522400.000000
523257.000000
524162.000000
525112.000000
526067.000000
526926.000000
527807.000000
528747.000000
529685.000000
530533.000000
531412.000000
532366.000000
533363.000000
534307.000000
535179.000000
536119.000000
537103.000000
538084.000000
538947.000000
539795.000000
540699.000000
541638.000000
542511.000000
543466.000000
544497.000000
545453.000000
546401.000000
547375.000000
548330.000000
549186.000000
550019.000000
550924.000000
551903.000000
552813.000000
553757.000000
554768.000000
555732.000000
556660.000000
557648.000000
558564.000000
559442.000000
560386.000000
561361.000000
562247.000000
563132.000000
564086.000000
565044.000000
565932.000000
566858.000000
567823.000000
568768.000000
569630.000000
570500.000000
571465.000000
572426.000000
573303.000000
574193.000000
575131.000000
576088.000000
576956.000000
577764.000000
578618.000000
579537.000000
580487.000000
581353.000000
582192.000000
583089.000000
584042.000000
584906.000000
585794.000000
586721.000000
587646.000000
588499.000000
589319.000000
590202.000000
591135.000000
592026.000000
592871.000000
593816.000000
594773.000000
595627.000000
596501.000000
597424.000000
598350.000000
599174.000000
600049.000000
600884.000000
601652.000000
602411.000000
603177.000000
603981.000000
604942.000000
605956.000000
606864.000000
607793.000000
608754.000000
609637.000000
610441.000000
611270.000000
612205.000000
613211.000000
614101.000000
615035.000000
616069.000000
617025.000000
617891.000000
618818.000000
619756.000000
620607.000000
621429.000000
622369.000000
623340.000000
624192.000000
625040.000000
625948.000000
626914.000000
627809.000000
628625.000000
629524.000000
630504.000000
631387.000000
632236.000000
633178.000000
634139.000000
635090.000000
635944.000000
636770.000000
637676.000000
638630.000000
639512.000000
640346.000000
641271.000000
642261.000000
643229.000000
644126.000000
645068.000000
646028.000000
646932.000000
647824.000000
648768.000000
649729.000000
650620.000000
651457.000000
652394.000000
653423.000000
654369.000000
655233.000000
656147.000000
657100.000000
657986.000000
658819.000000
659788.000000
660852.000000
661834.000000
662702.000000
663589.000000
664516.000000
665477.000000
666361.000000
667190.000000
668093.000000
669061.000000
670038.000000
670917.000000
671812.000000
672764.000000
673754.000000
674653.000000
675487.000000
676372.000000
677313.000000
678218.000000
679045.000000
679940.000000
680812.000000
681604.000000
682382.000000
683147.000000
683961.000000
684934.000000
685898.000000
686774.000000
687681.000000
688630.000000
689576.000000
690417.000000
691201.000000
692048.000000
693064.000000
694081.000000
694965.000000
695888.000000
696903.000000
697846.000000
698751.000000
699732.000000
700705.000000
701606.000000
702516.000000
703470.000000
704372.000000
705303.000000
706290.000000
707212.000000
708106.000000
709071.000000
710091.000000
711040.000000
711902.000000
712813.000000
713787.000000
714706.000000
715588.000000
716587.000000
717605.000000
718574.000000
719459.000000
720383.000000
721360.000000
722296.000000
723175.000000
724088.000000
725021.000000
725986.000000
726864.000000
727690.000000
728610.000000
729671.000000
730706.000000
731629.000000
732636.000000
733660.000000
734625.000000
735508.000000
736453.000000
737398.000000
738290.000000
739285.000000
740305.000000
741299.000000
742206.000000
743162.000000
744141.000000
745052.000000
745941.000000
746904.000000
747886.000000
748827.000000
749702.000000
750648.000000
751642.000000
752604.000000
753476.000000
754411.000000
755407.000000
756350.000000
757223.000000
758163.000000
759151.000000
760070.000000
760981.000000
761960.000000
762936.000000
763847.000000
764715.000000
765639.000000
766630.000000
767620.000000
768519.000000
769465.000000
770436.000000
771359.000000
772202.000000
773118.000000
774106.000000
775054.000000
775961.000000
776938.000000
777934.000000
778837.000000
779686.000000
780586.000000
781571.000000
782502.000000
783358.000000
784329.000000
785351.000000
786317.000000
787193.000000
788130.000000
789069.000000
790003.000000
790835.000000
791697.000000
792631.000000
793621.000000
794518.000000
795402.000000
796394.000000
797406.000000
798350.000000
799271.000000
800231.000000
801216.000000
802153.000000
803016.000000
803936.000000
804954.000000
805923.000000
806835.000000
807831.000000
808829.000000
809722.000000
810622.000000
811567.000000
812491.000000
813360.000000
814328.000000
815363.000000
816316.000000
817247.000000
818244.000000
819236.000000
820118.000000
820978.000000
821890.000000
822859.000000
823768.000000
824655.000000
825634.000000
826646.000000
827563.000000
828541.000000
829539.000000
830492.000000
831360.000000
832257.000000
833209.000000
834155.000000
835032.000000
835913.000000
836885.000000
837824.000000
838716.000000
839653.000000
840615.000000
841504.000000
842332.000000
843223.000000
844214.000000
845134.000000
846027.000000
847020.000000
848004.000000
848903.000000
849863.000000
850839.000000
851723.000000
852595.000000
853562.000000
854613.000000
855556.000000
856492.000000
857482.000000
858408.000000
859261.000000
860188.000000
861215.000000
862230.000000
863154.000000
864140.000000
865162.000000
866125.000000
866983.000000
867880.000000
868838.000000
869824.000000
870704.000000
871693.000000
872768.000000
873759.000000
874633.000000
875550.000000
876485.000000
877376.000000
878193.000000
879098.000000
880235.000000
881271.000000
882195.000000
883230.000000
884277.000000
885175.000000
886048.000000
887005.000000
888052.000000
889078.000000
889972.000000
890929.000000
891988.000000
893019.000000
893897.000000
894847.000000
895904.000000
896934.000000
897809.000000
898666.000000
899649.000000
900604.000000
901486.000000
902360.000000
903350.000000
904354.000000
905235.000000
906079.000000
907001.000000
907936.000000
908780.000000
909602.000000
910544.000000
911524.000000
912431.000000
913266.000000
914184.000000
915130.000000
916003.000000
916826.000000
917726.000000
918698.000000
919696.000000
920571.000000
921540.000000
922512.000000
923372.000000
924235.000000
925155.000000
926116.000000
926986.000000
927939.000000
928980.000000
929953.000000
930830.000000
931780.000000
932751.000000
933639.000000
934474.000000
935385.000000
936389.000000
937288.000000
938175.000000
939176.000000
940141.000000
941053.000000
942013.000000
942999.000000
943876.000000
944760.000000
945693.000000
946651.000000
947533.000000
948462.000000
949320.000000
950140.000000
950934.000000
951693.000000
952561.000000
953624.000000
954589.000000
955462.000000
956418.000000
957364.000000
958285.000000
959103.000000
959943.000000
960857.000000
961816.000000
962711.000000
963671.000000
964706.000000
965702.000000
966581.000000
967518.000000
968488.000000
969370.000000
970217.000000
971197.000000
972296.000000
973253.000000
974154.000000
975154.000000
976156.000000
977049.000000
977925.000000
978835.000000
979773.000000
980661.000000
981560.000000
982628.000000
983641.000000
984554.000000
985562.000000
986568.000000
987475.000000
988428.000000
989425.000000
990340.000000
991188.000000
992093.000000
993047.000000
993916.000000
994854.000000
995837.000000
996753.000000
997647.000000
998589.000000
999541.000000
1000422.000000
1001235.000000
1002102.000000
1003108.000000
1004025.000000
1004935.000000
1005947.000000
1006958.000000
1007893.000000
1008772.000000
1009705.000000
1010679.000000
1011571.000000
1012482.000000
1013531.000000
1014558.000000
1015468.000000
1016379.000000
1017335.000000
1018297.000000
1019173.000000
1020018.000000
1020976.000000
1021937.000000
1022802.000000
1023733.000000
1024703.000000
1025587.000000
1026438.000000
1027364.000000
1028353.000000
1029333.000000
1030192.000000
1031019.000000
1031929.000000
1032916.000000
1033814.000000
1034673.000000
1035609.000000
1036599.000000
1037508.000000
1038365.000000
1039262.000000
1040219.000000
1041141.000000
1042023.000000
1043012.000000
1043962.000000
1044839.000000
1045783.000000
1046797.000000
1047746.000000
1048659.000000
1049621.000000
1050602.000000
1051487.000000
1052373.000000
1053332.000000
1054255.000000
1055162.000000
1056181.000000
1057218.000000
1058211.000000
1059074.000000
1059948.000000
1060856.000000
1061801.000000
1062684.000000
1063657.000000
1064730.000000
1065691.000000
1066695.000000
1067713.000000
1068634.000000
1069510.000000
1070462.000000
1071446.000000
1072338.000000
1073254.000000
1074236.000000
1075253.000000
1076161.000000
1077062.000000
1078037.000000
1079073.000000
1080034.000000
1080885.000000
1081801.000000
1082802.000000
1083734.000000
1084595.000000
1085543.000000
1086547.000000
1087434.000000
1088345.000000
1089300.000000
1090265.000000
1091197.000000
1092031.000000
1092896.000000
1093886.000000
1094915.000000
1095832.000000
1096798.000000
1097782.000000
1098655.000000
1099472.000000
1100326.000000
1101280.000000
1102340.000000
1103281.000000
1104343.000000
1105431.000000
1106397.000000
1107293.000000
1108214.000000
1109140.000000
1109993.000000
1110796.000000
1111691.000000
1112744.000000
1113707.000000
1114602.000000
1115573.000000
1116573.000000
1117460.000000
1118328.000000
1119248.000000
1120233.000000
1121129.000000
1121978.000000
1122846.000000
1123663.000000
1124425.000000
1125225.000000
1126058.000000
1127076.000000
1128048.000000
1128956.000000
1129933.000000
1130890.000000
1131751.000000
1132668.000000
1133658.000000
1134607.000000
1135483.000000
1136450.000000
1137437.000000
1138329.000000
1139280.000000
1140253.000000
1141199.000000
1142031.000000
1142916.000000
1143879.000000
1144886.000000
1145783.000000
1146762.000000
1147781.000000
1148723.000000
1149651.000000
1150611.000000
1151590.000000
1152476.000000
1153299.000000
1154194.000000
1155218.000000
1156262.000000
1157194.000000
1158157.000000
1159163.000000
1160140.000000
1160999.000000
1161908.000000
1162883.000000
1163924.000000
1164867.000000
1165778.000000
1166751.000000
1167751.000000
1168642.000000
1169473.000000
1170360.000000
1171334.000000
1172231.000000
1173160.000000
1174160.000000
1175149.000000
1176038.000000
1176966.000000
1177934.000000
1178871.000000
1179708.000000
1180610.000000
1181576.000000
1182502.000000
1183360.000000
1184298.000000
1185277.000000
1186210.000000
1187034.000000
1187894.000000
1188786.000000
1189707.000000
1190536.000000
1191434.000000
1192360.000000
1193292.000000
1194128.000000
1194981.000000
1195866.000000
1196789.000000
1197629.000000
1198523.000000
1199487.000000
1200449.000000
1201347.000000
1202237.000000
1203173.000000
1204134.000000
1205019.000000
1205853.000000
1206791.000000
1207816.000000
1208815.000000
1209727.000000
1210695.000000
1211685.000000
1212604.000000
1213462.000000
1214397.000000
1215367.000000
1216253.000000
1217153.000000
1218135.000000
1219132.000000
1220023.000000
1220924.000000
1221906.000000
1222863.000000
1223731.000000
1224569.000000
1225471.000000
