ECG (ms)
79.000000
1023.000000
1919.000000
2852.000000
3773.000000
4644.000000
5567.000000
6493.000000
7370.000000
8283.000000
9214.000000
10099.000000
11023.000000
11958.000000
12832.000000
13762.000000
14692.000000
15580.000000
16518.000000
17473.000000
18383.000000
19314.000000
20257.000000
21171.000000
22114.000000
23043.000000
23937.000000
24885.000000
25813.000000
26738.000000
27684.000000
28605.000000
29520.000000
30464.000000
31360.000000
32262.000000
33204.000000
34127.000000
35044.000000
35975.000000
36869.000000
37774.000000
38719.000000
39614.000000
40528.000000
41444.000000
42310.000000
43221.000000
44137.000000
45016.000000
45939.000000
46823.000000
47740.000000
48672.000000
49564.000000
50495.000000
51432.000000
52335.000000
53293.000000
54209.000000
55119.000000
56065.000000
56989.000000
57926.000000
58891.000000
59827.000000
60765.000000
61713.000000
62654.000000
63622.000000
64577.000000
65512.000000
66488.000000
67414.000000
68346.000000
69301.000000
70198.000000
71101.000000
72030.000000
72943.000000
73850.000000
74776.000000
75676.000000
76595.000000
77518.000000
78410.000000
79340.000000
80273.000000
81154.000000
82079.000000
83000.000000
83911.000000
84861.000000
85785.000000
86706.000000
87672.000000
88589.000000
89545.000000
90516.000000
91444.000000
92402.000000
93367.000000
94275.000000
95227.000000
96193.000000
97117.000000
98076.000000
99021.000000
99924.000000
100871.000000
101821.000000
102726.000000
103679.000000
104635.000000
105546.000000
106492.000000
107438.000000
108330.000000
109276.000000
110200.000000
111088.000000
112022.000000
112927.000000
113817.000000
114748.000000
115637.000000
116543.000000
117461.000000
118338.000000
119268.000000
120168.000000
121080.000000
122004.000000
122897.000000
123824.000000
124743.000000
125630.000000
126551.000000
127436.000000
128319.000000
129240.000000
130145.000000
131028.000000
131949.000000
132854.000000
133721.000000
134632.000000
135517.000000
136375.000000
137278.000000
138173.000000
139035.000000
139962.000000
140882.000000
141765.000000
142702.000000
143625.000000
144503.000000
145425.000000
146356.000000
147258.000000
148178.000000
149058.000000
149963.000000
150880.000000
151786.000000
152726.000000
153651.000000
154581.000000
155533.000000
156444.000000
157385.000000
158329.000000
159229.000000
160161.000000
161067.000000
161961.000000
162878.000000
163752.000000
164670.000000
165609.000000
166501.000000
167451.000000
168363.000000
169282.000000
170236.000000
171161.000000
172121.000000
173069.000000
173964.000000
174933.000000
175874.000000
176781.000000
177727.000000
178669.000000
179585.000000
180549.000000
181462.000000
182410.000000
183348.000000
184265.000000
185206.000000
186106.000000
187035.000000
187988.000000
188880.000000
189811.000000
190747.000000
191640.000000
192598.000000
193548.000000
194440.000000
195380.000000
196300.000000
197237.000000
198185.000000
199094.000000
200053.000000
200964.000000
201881.000000
202810.000000
203689.000000
204602.000000
205512.000000
206388.000000
207325.000000
208210.000000
209111.000000
210022.000000
210886.000000
211785.000000
212690.000000
213566.000000
214485.000000
215402.000000
216291.000000
217242.000000
218173.000000
219059.000000
219988.000000
220922.000000
221821.000000
222773.000000
223705.000000
224624.000000
225577.000000
226489.000000
227431.000000
228366.000000
229259.000000
230183.000000
231064.000000
231979.000000
232933.000000
233847.000000
234831.000000
235800.000000
236757.000000
237770.000000
238713.000000
239697.000000
240680.000000
241606.000000
242596.000000
243578.000000
244533.000000
245546.000000
246495.000000
247444.000000
248430.000000
249372.000000
250305.000000
251276.000000
252191.000000
253138.000000
254113.000000
255023.000000
255976.000000
256957.000000
257877.000000
258841.000000
259812.000000
260725.000000
261688.000000
262645.000000
263553.000000
264522.000000
265497.000000
266419.000000
267390.000000
268316.000000
269260.000000
270245.000000
271161.000000
272129.000000
273094.000000
274005.000000
274967.000000
275920.000000
276837.000000
277799.000000
278708.000000
279652.000000
280616.000000
281538.000000
282529.000000
283502.000000
284426.000000
285396.000000
286358.000000
287280.000000
288250.000000
289173.000000
290092.000000
291063.000000
291979.000000
292920.000000
293895.000000
294797.000000
295733.000000
296693.000000
297604.000000
298557.000000
299497.000000
300392.000000
301351.000000
302243.000000
303146.000000
304078.000000
304949.000000
305871.000000
306770.000000
307627.000000
308551.000000
309448.000000
310325.000000
311248.000000
312128.000000
313012.000000
313917.000000
314783.000000
315691.000000
316609.000000
317482.000000
318414.000000
319318.000000
320195.000000
321132.000000
322027.000000
322933.000000
323858.000000
324741.000000
325667.000000
326582.000000
327452.000000
328379.000000
329303.000000
330207.000000
331158.000000
332116.000000
333015.000000
333921.000000
334855.000000
335738.000000
336667.000000
337600.000000
338501.000000
339441.000000
340370.000000
341266.000000
342207.000000
343140.000000
344032.000000
344971.000000
345887.000000
346789.000000
347740.000000
348649.000000
349593.000000
350549.000000
351442.000000
352382.000000
353320.000000
354218.000000
355164.000000
356057.000000
356969.000000
357902.000000
358783.000000
359722.000000
360631.000000
361512.000000
362462.000000
363360.000000
364263.000000
365165.000000
365979.000000
366802.000000
367612.000000
368410.000000
369242.000000
370088.000000
370908.000000
371771.000000
372670.000000
373530.000000
374420.000000
375322.000000
376176.000000
377084.000000
377977.000000
378832.000000
379739.000000
380652.000000
381534.000000
382449.000000
383392.000000
384296.000000
385210.000000
386160.000000
387080.000000
387988.000000
388944.000000
389877.000000
390761.000000
391704.000000
392617.000000
393515.000000
394460.000000
395398.000000
396293.000000
397230.000000
398151.000000
399019.000000
399939.000000
400854.000000
401748.000000
402695.000000
403600.000000
404514.000000
405455.000000
406359.000000
407296.000000
408235.000000
409131.000000
410073.000000
410987.000000
411886.000000
412831.000000
413756.000000
414647.000000
415595.000000
416515.000000
417414.000000
418352.000000
419241.000000
420176.000000
421123.000000
422044.000000
422931.000000
423872.000000
424799.000000
425746.000000
426703.000000
427625.000000
428589.000000
429560.000000
430462.000000
431386.000000
432341.000000
433273.000000
434185.000000
435123.000000
436049.000000
436927.000000
437837.000000
438754.000000
439626.000000
440542.000000
441448.000000
442322.000000
443246.000000
444161.000000
445057.000000
445997.000000
446899.000000
447824.000000
448760.000000
449643.000000
450554.000000
451489.000000
452371.000000
453299.000000
454208.000000
455115.000000
456070.000000
456986.000000
457907.000000
458848.000000
459728.000000
460670.000000
461594.000000
462478.000000
463401.000000
464304.000000
465178.000000
466111.000000
467021.000000
467920.000000
468850.000000
469732.000000
470633.000000
471550.000000
472425.000000
473335.000000
474236.000000
475107.000000
476048.000000
476945.000000
477851.000000
478784.000000
479671.000000
480594.000000
481529.000000
482425.000000
483377.000000
484344.000000
485263.000000
486231.000000
487151.000000
488085.000000
489051.000000
489960.000000
490904.000000
491855.000000
492749.000000
493689.000000
494639.000000
495533.000000
496478.000000
497417.000000
498347.000000
499300.000000
500208.000000
501155.000000
502069.000000
502980.000000
503935.000000
504828.000000
505722.000000
506643.000000
507540.000000
508456.000000
509403.000000
510298.000000
511236.000000
512140.000000
513022.000000
513954.000000
514841.000000
515755.000000
516672.000000
517557.000000
518483.000000
519378.000000
520285.000000
521200.000000
522100.000000
523026.000000
523937.000000
524829.000000
525768.000000
526713.000000
527597.000000
528510.000000
529445.000000
530323.000000
531240.000000
532144.000000
533014.000000
533912.000000
534816.000000
535689.000000
536616.000000
537529.000000
538393.000000
539320.000000
540230.000000
541108.000000
542031.000000
542932.000000
543855.000000
544796.000000
545685.000000
546630.000000
547560.000000
548454.000000
549395.000000
550309.000000
551209.000000
552168.000000
553084.000000
553989.000000
554957.000000
555894.000000
556838.000000
557751.000000
558689.000000
559654.000000
560561.000000
561489.000000
562452.000000
563405.000000
564367.000000
565316.000000
566240.000000
567210.000000
568128.000000
569050.000000
569998.000000
570917.000000
571838.000000
572784.000000
573705.000000
574630.000000
575600.000000
576523.000000
577464.000000
578432.000000
579350.000000
580327.000000
581285.000000
582203.000000
583163.000000
584136.000000
585064.000000
586010.000000
586968.000000
587891.000000
588846.000000
589802.000000
590695.000000
591625.000000
592574.000000
593472.000000
594428.000000
595392.000000
596304.000000
597260.000000
598214.000000
599133.000000
600102.000000
601069.000000
602012.000000
602987.000000
603901.000000
604867.000000
605824.000000
606764.000000
607739.000000
608652.000000
609590.000000
610554.000000
611474.000000
612418.000000
613354.000000
614281.000000
615265.000000
616226.000000
617139.000000
618101.000000
619000.000000
619942.000000
620870.000000
621766.000000
622721.000000
623649.000000
624557.000000
625511.000000
626431.000000
627357.000000
628324.000000
629245.000000
630191.000000
631120.000000
631992.000000
632912.000000
633844.000000
634719.000000
635649.000000
636559.000000
637437.000000
638358.000000
639249.000000
640164.000000
641087.000000
641978.000000
642910.000000
643804.000000
644714.000000
645642.000000
646522.000000
647459.000000
648370.000000
649235.000000
650170.000000
651070.000000
651962.000000
652883.000000
653764.000000
654660.000000
655579.000000
656443.000000
657343.000000
658229.000000
659067.000000
659954.000000
660827.000000
661685.000000
662596.000000
663481.000000
664386.000000
665326.000000
666213.000000
667119.000000
668026.000000
668900.000000
669819.000000
670723.000000
671604.000000
672534.000000
673457.000000
674341.000000
675290.000000
676224.000000
677109.000000
678053.000000
678989.000000
679885.000000
680819.000000
681724.000000
682536.000000
683306.000000
684172.000000
685041.000000
685891.000000
686759.000000
687658.000000
688542.000000
689431.000000
690354.000000
691260.000000
692150.000000
693103.000000
694042.000000
694949.000000
695902.000000
696866.000000
697756.000000
698710.000000
699659.000000
700566.000000
701531.000000
702482.000000
703401.000000
704369.000000
705269.000000
706187.000000
707140.000000
708027.000000
708940.000000
709865.000000
710766.000000
711713.000000
712613.000000
713528.000000
714449.000000
715321.000000
716221.000000
717114.000000
717979.000000
718884.000000
719783.000000
720653.000000
721578.000000
722498.000000
723371.000000
724302.000000
725220.000000
726083.000000
726998.000000
727927.000000
728808.000000
729735.000000
730672.000000
731563.000000
732490.000000
733416.000000
734314.000000
735262.000000
736180.000000
737066.000000
738006.000000
738916.000000
739811.000000
740746.000000
741638.000000
742551.000000
743471.000000
744383.000000
745293.000000
746219.000000
747103.000000
748033.000000
748953.000000
749852.000000
750804.000000
751721.000000
752617.000000
753549.000000
754463.000000
755319.000000
756218.000000
757131.000000
758003.000000
758878.000000
759750.000000
760547.000000
761356.000000
762170.000000
763009.000000
763893.000000
764758.000000
765593.000000
766490.000000
767384.000000
768235.000000
769137.000000
770033.000000
770883.000000
771775.000000
772646.000000
773482.000000
774375.000000
775252.000000
776091.000000
776984.000000
777882.000000
778732.000000
779653.000000
780559.000000
781424.000000
782352.000000
783275.000000
784171.000000
785110.000000
786038.000000
786880.000000
787644.000000
788399.000000
789272.000000
790194.000000
791128.000000
792086.000000
793049.000000
794026.000000
794988.000000
795957.000000
796924.000000
797879.000000
798843.000000
799789.000000
800714.000000
801661.000000
802603.000000
803492.000000
804421.000000
805379.000000
806291.000000
807201.000000
808134.000000
809063.000000
809951.000000
810878.000000
811784.000000
812643.000000
813559.000000
814463.000000
815336.000000
816274.000000
817203.000000
818080.000000
818993.000000
819901.000000
820773.000000
821701.000000
822638.000000
823547.000000
824463.000000
825395.000000
826312.000000
827254.000000
828177.000000
829068.000000
830010.000000
830964.000000
831859.000000
832815.000000
833741.000000
834649.000000
835592.000000
836524.000000
837436.000000
838362.000000
839258.000000
840158.000000
841078.000000
841985.000000
842886.000000
843820.000000
844713.000000
845607.000000
846526.000000
847413.000000
848333.000000
849264.000000
850169.000000
851091.000000
852008.000000
852884.000000
853804.000000
854711.000000
855600.000000
856520.000000
857417.000000
858302.000000
859225.000000
860101.000000
860994.000000
861924.000000
862806.000000
863714.000000
864624.000000
865501.000000
866417.000000
867335.000000
868215.000000
869148.000000
870076.000000
870971.000000
871919.000000
872861.000000
873742.000000
874669.000000
875603.000000
876486.000000
877408.000000
878340.000000
879222.000000
880153.000000
881068.000000
881944.000000
882866.000000
883755.000000
884641.000000
885564.000000
886463.000000
887390.000000
888314.000000
889184.000000
890110.000000
891045.000000
891923.000000
892856.000000
893790.000000
894668.000000
895595.000000
896505.000000
897389.000000
898328.000000
899284.000000
900184.000000
901106.000000
902047.000000
902943.000000
903877.000000
904820.000000
905727.000000
906671.000000
907642.000000
908565.000000
909540.000000
910509.000000
911420.000000
912374.000000
913344.000000
914245.000000
915175.000000
916122.000000
917023.000000
917975.000000
918938.000000
919855.000000
920772.000000
921729.000000
922634.000000
923552.000000
924509.000000
925428.000000
926362.000000
927323.000000
928230.000000
929189.000000
930129.000000
931019.000000
931963.000000
932880.000000
933762.000000
934695.000000
935626.000000
936513.000000
937451.000000
938400.000000
939303.000000
940208.000000
941143.000000
942042.000000
942970.000000
943930.000000
944855.000000
945691.000000
946480.000000
947399.000000
948327.000000
949244.000000
950150.000000
951083.000000
952020.000000
952916.000000
953833.000000
954777.000000
955681.000000
956575.000000
957489.000000
958380.000000
959285.000000
960230.000000
961176.000000
962071.000000
963001.000000
963940.000000
964839.000000
965767.000000
966702.000000
967596.000000
968535.000000
969486.000000
970398.000000
971324.000000
972277.000000
973191.000000
974124.000000
975088.000000
976013.000000
976936.000000
977890.000000
978818.000000
979737.000000
980685.000000
981608.000000
982562.000000
983498.000000
984393.000000
985340.000000
986268.000000
987148.000000
988072.000000
988976.000000
989847.000000
990747.000000
991669.000000
992550.000000
993449.000000
994363.000000
995243.000000
996155.000000
997107.000000
998018.000000
998962.000000
999939.000000
1000860.000000
1001801.000000
1002764.000000
1003684.000000
1004593.000000
1005559.000000
1006487.000000
1007389.000000
1008367.000000
1009336.000000
1010257.000000
1011218.000000
1012165.000000
1013070.000000
1014037.000000
1014994.000000
1015902.000000
1016836.000000
1017775.000000
1018648.000000
1019526.000000
1020466.000000
1021433.000000
1022348.000000
1023292.000000
1024252.000000
1025167.000000
1026108.000000
1027052.000000
1027959.000000
1028903.000000
1029848.000000
1030747.000000
1031691.000000
1032634.000000
1033521.000000
1034452.000000
1035371.000000
1036238.000000
1037155.000000
1038067.000000
1038951.000000
1039859.000000
1040755.000000
1041615.000000
1042528.000000
1043460.000000
1044348.000000
1045263.000000
1046182.000000
1047069.000000
1047960.000000
1048878.000000
1049779.000000
1050701.000000
1051644.000000
1052540.000000
1053462.000000
1054408.000000
1055302.000000
1056242.000000
1057177.000000
1058066.000000
1059013.000000
1059947.000000
1060824.000000
1061773.000000
1062716.000000
1063599.000000
1064524.000000
1065469.000000
1066369.000000
1067328.000000
1068294.000000
1069179.000000
1070138.000000
1071101.000000
1072021.000000
1072997.000000
1073984.000000
1074928.000000
1075890.000000
1076878.000000
1077799.000000
1078761.000000
1079733.000000
1080648.000000
1081619.000000
1082564.000000
1083441.000000
1084346.000000
1085272.000000
1086196.000000
1087114.000000
1088074.000000
1089037.000000
1089949.000000
1090923.000000
1091901.000000
1092838.000000
1093802.000000
1094786.000000
1095741.000000
1096683.000000
1097651.000000
1098583.000000
1099543.000000
1100497.000000
1101424.000000
1102388.000000
1103367.000000
1104283.000000
1105232.000000
1106186.000000
1107100.000000
1108047.000000
1108981.000000
1109925.000000
1110879.000000
1111778.000000
1112682.000000
1113624.000000
1114516.000000
1115337.000000
1116080.000000
1116836.000000
1117765.000000
1118679.000000
1119582.000000
1120419.000000
1121210.000000
1122062.000000
1122921.000000
1123789.000000
1124668.000000
1125558.000000
1126459.000000
1127323.000000
1128195.000000
1129078.000000
1129968.000000
1130832.000000
1131682.000000
1132556.000000
1133431.000000
1134270.000000
1135101.000000
1135968.000000
1136834.000000
1137728.000000
1138677.000000
1139621.000000
1140603.000000
1141531.000000
1142522.000000
1143542.000000
1144502.000000
1145516.000000
1146520.000000
1147468.000000
1148484.000000
1149481.000000
1150452.000000
1151463.000000
1152431.000000
1153351.000000
1154338.000000
1155304.000000
1156239.000000
1157216.000000
1158189.000000
1159114.000000
1160086.000000
1161046.000000
1161960.000000
1162911.000000
1163881.000000
1164796.000000
1165738.000000
1166709.000000
1167617.000000
1168567.000000
1169519.000000
1170409.000000
1171346.000000
1172272.000000
1173153.000000
1174064.000000
1175000.000000
1175884.000000
1176779.000000
1177694.000000
1178561.000000
1179451.000000
1180358.000000
1181224.000000
1182156.000000
1183108.000000
1184005.000000
1184979.000000
1185942.000000
1186845.000000
1187790.000000
1188747.000000
1189634.000000
1190584.000000
1191540.000000
1192454.000000
1193386.000000
1194346.000000
