ECG (ms)
1159.000000
2173.000000
3213.000000
4218.000000
5183.000000
6186.000000
7302.000000
8452.000000
9500.000000
10606.000000
11681.000000
12694.000000
13822.000000
14841.000000
15754.000000
16751.000000
17730.000000
18656.000000
19605.000000
20860.000000
21914.000000
22988.000000
24171.000000
25272.000000
26209.000000
27342.000000
28434.000000
29309.000000
30361.000000
31501.000000
32650.000000
33721.000000
34892.000000
35894.000000
36833.000000
38034.000000
39149.000000
40054.000000
41016.000000
42209.000000
43172.000000
44171.000000
45449.000000
46524.000000
47604.000000
48745.000000
49751.000000
50774.000000
51808.000000
52742.000000
53659.000000
54823.000000
55900.000000
56830.000000
57864.000000
58915.000000
59863.000000
60972.000000
62158.000000
63222.000000
64294.000000
65443.000000
66607.000000
67595.000000
68671.000000
69752.000000
70729.000000
71583.000000
72766.000000
73887.000000
74753.000000
75805.000000
76993.000000
78109.000000
79063.000000
80139.000000
81240.000000
82205.000000
83316.000000
84435.000000
85427.000000
86480.000000
87544.000000
88546.000000
89536.000000
90633.000000
91694.000000
92632.000000
93734.000000
94816.000000
95756.000000
96781.000000
97844.000000
98888.000000
99842.000000
100941.000000
102063.000000
103054.000000
104124.000000
105197.000000
106179.000000
107153.000000
108151.000000
109181.000000
110100.000000
111150.000000
112233.000000
113248.000000
114396.000000
115414.000000
116327.000000
117220.000000
118263.000000
119228.000000
120157.000000
121317.000000
122506.000000
123432.000000
124559.000000
125782.000000
126777.000000
127845.000000
128910.000000
129793.000000
130856.000000
132065.000000
132972.000000
134054.000000
135271.000000
136321.000000
137564.000000
138637.000000
139617.000000
140741.000000
141684.000000
142661.000000
143945.000000
145080.000000
146020.000000
147261.000000
148400.000000
149266.000000
150294.000000
151435.000000
152355.000000
153462.000000
154574.000000
155564.000000
156785.000000
157918.000000
159031.000000
160138.000000
161119.000000
162264.000000
163420.000000
164442.000000
165548.000000
166655.000000
167579.000000
168607.000000
169673.000000
170687.000000
171693.000000
172874.000000
173986.000000
175139.000000
176372.000000
177419.000000
178495.000000
179685.000000
180731.000000
181803.000000
182927.000000
184067.000000
185096.000000
186259.000000
187400.000000
188424.000000
189233.000000
189996.000000
191258.000000
192345.000000
193471.000000
194443.000000
195641.000000
196813.000000
197961.000000
199018.000000
200178.000000
201233.000000
202345.000000
203406.000000
204320.000000
205460.000000
206699.000000
207672.000000
208917.000000
210050.000000
210917.000000
211906.000000
213156.000000
214129.000000
214976.000000
215844.000000
217150.000000
218349.000000
219510.000000
220601.000000
221705.000000
222835.000000
223869.000000
224790.000000
225768.000000
226896.000000
227992.000000
228947.000000
230032.000000
231315.000000
232467.000000
233342.000000
234278.000000
235543.000000
236708.000000
237610.000000
238947.000000
240040.000000
241113.000000
242115.000000
242960.000000
244336.000000
245545.000000
246600.000000
247696.000000
248773.000000
249849.000000
250868.000000
251950.000000
253035.000000
254053.000000
255153.000000
256286.000000
257353.000000
258376.000000
259430.000000
260461.000000
261328.000000
262125.000000
263331.000000
264160.000000
265156.000000
266282.000000
267307.000000
268170.000000
269183.000000
270224.000000
271264.000000
272206.000000
273200.000000
274219.000000
275078.000000
275903.000000
276780.000000
277670.000000
278492.000000
279446.000000
280425.000000
281379.000000
282267.000000
283246.000000
284228.000000
285041.000000
285848.000000
286658.000000
287628.000000
288431.000000
289430.000000
290529.000000
291595.000000
292699.000000
293802.000000
294770.000000
295807.000000
296821.000000
297698.000000
298747.000000
299887.000000
301009.000000
301980.000000
303098.000000
304110.000000
305066.000000
306053.000000
307075.000000
308186.000000
309228.000000
310359.000000
311491.000000
312391.000000
313212.000000
314433.000000
315545.000000
316468.000000
317614.000000
318749.000000
319756.000000
320881.000000
322056.000000
322986.000000
324051.000000
325169.000000
326137.000000
327203.000000
328366.000000
329518.000000
330592.000000
331785.000000
332950.000000
333949.000000
335112.000000
336241.000000
337125.000000
338137.000000
339441.000000
340527.000000
341621.000000
342789.000000
343937.000000
344999.000000
346197.000000
347326.000000
348267.000000
349187.000000
350273.000000
351394.000000
352359.000000
353597.000000
354820.000000
355941.000000
357099.000000
358144.000000
359065.000000
360074.000000
361137.000000
362128.000000
363275.000000
364414.000000
365453.000000
366558.000000
367644.000000
368706.000000
369701.000000
370774.000000
371857.000000
372788.000000
373858.000000
374916.000000
375889.000000
376915.000000
377965.000000
378963.000000
379813.000000
380894.000000
382034.000000
383133.000000
384120.000000
385296.000000
386370.000000
387353.000000
388380.000000
389456.000000
390572.000000
391560.000000
392632.000000
393795.000000
394826.000000
395918.000000
397027.000000
398058.000000
399090.000000
400231.000000
401256.000000
402169.000000
403351.000000
404424.000000
405429.000000
406294.000000
407388.000000
408453.000000
409486.000000
410425.000000
411462.000000
412524.000000
413469.000000
414510.000000
415563.000000
416506.000000
417399.000000
418380.000000
419356.000000
420301.000000
421265.000000
422322.000000
423324.000000
424322.000000
425463.000000
426503.000000
427409.000000
428418.000000
429438.000000
430359.000000
431198.000000
432126.000000
433101.000000
433934.000000
434869.000000
435926.000000
436859.000000
437761.000000
438806.000000
439830.000000
440698.000000
441693.000000
442663.000000
443531.000000
444457.000000
445505.000000
446455.000000
447396.000000
448452.000000
449493.000000
450398.000000
451471.000000
452548.000000
453492.000000
454521.000000
455574.000000
456533.000000
457479.000000
458538.000000
459716.000000
460593.000000
461465.000000
462708.000000
463740.000000
464678.000000
465870.000000
467095.000000
468120.000000
469285.000000
470418.000000
471478.000000
472612.000000
473812.000000
474844.000000
475938.000000
477183.000000
478383.000000
479521.000000
480708.000000
481853.000000
482885.000000
484051.000000
485310.000000
486260.000000
487276.000000
488099.000000
489056.000000
490058.000000
491304.000000
492473.000000
493529.000000
494798.000000
495951.000000
496991.000000
498123.000000
499287.000000
500345.000000
501420.000000
502524.000000
503639.000000
504644.000000
505728.000000
506870.000000
508030.000000
509057.000000
510199.000000
511327.000000
512347.000000
513448.000000
514527.000000
515492.000000
516447.000000
517646.000000
518730.000000
519735.000000
520812.000000
521922.000000
523011.000000
523996.000000
525053.000000
526053.000000
526921.000000
527738.000000
529041.000000
530130.000000
531108.000000
532143.000000
533203.000000
534221.000000
535214.000000
536254.000000
537268.000000
538233.000000
539223.000000
540215.000000
541181.000000
542133.000000
543099.000000
544101.000000
545069.000000
546039.000000
547060.000000
548090.000000
549094.000000
550152.000000
551237.000000
552296.000000
553312.000000
554382.000000
555462.000000
556472.000000
557534.000000
558633.000000
559643.000000
560646.000000
561657.000000
562672.000000
563611.000000
564660.000000
565729.000000
566705.000000
567747.000000
568807.000000
569884.000000
570895.000000
571975.000000
573026.000000
574064.000000
575164.000000
576229.000000
577240.000000
578283.000000
579311.000000
580285.000000
581303.000000
582328.000000
582856.000000
583650.000000
584712.000000
585786.000000
586782.000000
587853.000000
588927.000000
589988.000000
591019.000000
592101.000000
593200.000000
594245.000000
595244.000000
596271.000000
597293.000000
598301.000000
599242.000000
600239.000000
601264.000000
602307.000000
603295.000000
604364.000000
605438.000000
606420.000000
607451.000000
608479.000000
609461.000000
610440.000000
611387.000000
612354.000000
613264.000000
614365.000000
615500.000000
616447.000000
617568.000000
618692.000000
619685.000000
620709.000000
621730.000000
622810.000000
623748.000000
624736.000000
625737.000000
626708.000000
627641.000000
628681.000000
629830.000000
630963.000000
631981.000000
633098.000000
634310.000000
635296.000000
636382.000000
637486.000000
638575.000000
639539.000000
640716.000000
641834.000000
642861.000000
644057.000000
645246.000000
646272.000000
647289.000000
648459.000000
649527.000000
650555.000000
651732.000000
652976.000000
654055.000000
655263.000000
656458.000000
657533.000000
658411.000000
659229.000000
660567.000000
661828.000000
662969.000000
664142.000000
665368.000000
666587.000000
667755.000000
668914.000000
670002.000000
671102.000000
672184.000000
673297.000000
674358.000000
675525.000000
676676.000000
677825.000000
678879.000000
680028.000000
681186.000000
682190.000000
683272.000000
684368.000000
685424.000000
686438.000000
687573.000000
688699.000000
689758.000000
690927.000000
692099.000000
693178.000000
694279.000000
695352.000000
696373.000000
697421.000000
698477.000000
699510.000000
700567.000000
701691.000000
702815.000000
703877.000000
704997.000000
706120.000000
707185.000000
708289.000000
709420.000000
710480.000000
711553.000000
712643.000000
713725.000000
714736.000000
715824.000000
716913.000000
717950.000000
719047.000000
720167.000000
721254.000000
722298.000000
723396.000000
724468.000000
725502.000000
726611.000000
727707.000000
728753.000000
729839.000000
730950.000000
731952.000000
733034.000000
734118.000000
735144.000000
736209.000000
737297.000000
738343.000000
739369.000000
740472.000000
741580.000000
742625.000000
743745.000000
744865.000000
745936.000000
747012.000000
748111.000000
749159.000000
750168.000000
751234.000000
752312.000000
753344.000000
754378.000000
755462.000000
756535.000000
757550.000000
758642.000000
759714.000000
760757.000000
761768.000000
762857.000000
763959.000000
765066.000000
766130.000000
767247.000000
768354.000000
769499.000000
770541.000000
771603.000000
772658.000000
773658.000000
774706.000000
775788.000000
776861.000000
777856.000000
778934.000000
780004.000000
781014.000000
782061.000000
783153.000000
784222.000000
785250.000000
786325.000000
787399.000000
788428.000000
789533.000000
790669.000000
791724.000000
792841.000000
793929.000000
794983.000000
796077.000000
797140.000000
798000.000000
798738.000000
799548.000000
800885.000000
802078.000000
803228.000000
804410.000000
805609.000000
806598.000000
807592.000000
808730.000000
810111.000000
811299.000000
812525.000000
813654.000000
814746.000000
815950.000000
817052.000000
818082.000000
819239.000000
820399.000000
821558.000000
822497.000000
823710.000000
824909.000000
825976.000000
827039.000000
828144.000000
829322.000000
830344.000000
831391.000000
832500.000000
833638.000000
834649.000000
835771.000000
837002.000000
838254.000000
839438.000000
840499.000000
841649.000000
842772.000000
843777.000000
844669.000000
845860.000000
847188.000000
848306.000000
849543.000000
850673.000000
851751.000000
852774.000000
853855.000000
854965.000000
856043.000000
857056.000000
858133.000000
859223.000000
860275.000000
861301.000000
862399.000000
863501.000000
864579.000000
865662.000000
866781.000000
867874.000000
868957.000000
869974.000000
871054.000000
872145.000000
873172.000000
874226.000000
875286.000000
876348.000000
877370.000000
878481.000000
879611.000000
880702.000000
881744.000000
882863.000000
883961.000000
884990.000000
885986.000000
887075.000000
888080.000000
889062.000000
890116.000000
891175.000000
892221.000000
893344.000000
894504.000000
895618.000000
896707.000000
897839.000000
898960.000000
900110.000000
901176.000000
902294.000000
903454.000000
904632.000000
905775.000000
906899.000000
908120.000000
909333.000000
910533.000000
911701.000000
912879.000000
914048.000000
915127.000000
916351.000000
917521.000000
918581.000000
919736.000000
920898.000000
921951.000000
923083.000000
924231.000000
925281.000000
926348.000000
927420.000000
928474.000000
929514.000000
930624.000000
931790.000000
932958.000000
934062.000000
935235.000000
936415.000000
937491.000000
938628.000000
939834.000000
940979.000000
942092.000000
943281.000000
944430.000000
945489.000000
946594.000000
947707.000000
948732.000000
949843.000000
950963.000000
952055.000000
953133.000000
954254.000000
955387.000000
956435.000000
957550.000000
958677.000000
959768.000000
960824.000000
961910.000000
963045.000000
964111.000000
965221.000000
966367.000000
967548.000000
968674.000000
969946.000000
971216.000000
972357.000000
973459.000000
974559.000000
975725.000000
976871.000000
977955.000000
979153.000000
980358.000000
981542.000000
982641.000000
983827.000000
984940.000000
985986.000000
987075.000000
988211.000000
989262.000000
990299.000000
991415.000000
992498.000000
993513.000000
994609.000000
995668.000000
996540.000000
997436.000000
998532.000000
999387.000000
1000220.000000
1001319.000000
1002407.000000
1003263.000000
1004298.000000
1005382.000000
1006281.000000
1007190.000000
1008340.000000
1009401.000000
1010274.000000
1011333.000000
1012432.000000
1013433.000000
1014295.000000
1015471.000000
1016512.000000
1017510.000000
1018553.000000
1019620.000000
1020658.000000
1021684.000000
1022760.000000
1023818.000000
1024808.000000
1025801.000000
1026803.000000
1027784.000000
1028735.000000
1029771.000000
1030794.000000
1031774.000000
1032831.000000
1033864.000000
1034827.000000
1035878.000000
1036888.000000
1037858.000000
1038852.000000
1039844.000000
1040857.000000
1041904.000000
1042903.000000
1043959.000000
1045024.000000
1046061.000000
1047045.000000
1048052.000000
1049072.000000
1050133.000000
1051153.000000
1052308.000000
1053452.000000
1054533.000000
1055660.000000
1056756.000000
1057812.000000
1058925.000000
1060022.000000
1061055.000000
1062157.000000
1063243.000000
1064317.000000
1065409.000000
1066531.000000
1067639.000000
1068695.000000
1069773.000000
1070840.000000
1071938.000000
1072966.000000
1074093.000000
1075192.000000
1076221.000000
1077300.000000
1078388.000000
1079460.000000
1080465.000000
1081553.000000
1082639.000000
1083647.000000
1084723.000000
1085829.000000
1086913.000000
1088029.000000
1089237.000000
1090413.000000
1091584.000000
1092806.000000
1094028.000000
1095292.000000
1096417.000000
1097593.000000
1098846.000000
1100146.000000
1101336.000000
1102628.000000
1103891.000000
1104985.000000
1106233.000000
1107568.000000
1108774.000000
1110012.000000
1111327.000000
1112538.000000
1113630.000000
1114784.000000
1115965.000000
1117095.000000
1118188.000000
1119391.000000
1120621.000000
1121821.000000
1123043.000000
1124260.000000
1125401.000000
1126428.000000
1127519.000000
1128610.000000
1129683.000000
1130762.000000
1131912.000000
1133123.000000
1134221.000000
1135378.000000
1136559.000000
1137675.000000
1138818.000000
1140000.000000
1141173.000000
1142303.000000
1143466.000000
1144679.000000
1145787.000000
1146960.000000
1148148.000000
1149337.000000
1150577.000000
1151716.000000
1152958.000000
1154155.000000
1155222.000000
1156345.000000
1157475.000000
1158512.000000
1159588.000000
1160787.000000
1161757.000000
1162558.000000
1163328.000000
1164731.000000
1165919.000000
1167068.000000
1168198.000000
1169312.000000
1170426.000000
1171502.000000
1172594.000000
1173745.000000
1174911.000000
1176096.000000
1177355.000000
1178692.000000
1180015.000000
1181285.000000
1182642.000000
1183885.000000
1185019.000000
1186117.000000
1187303.000000
1188459.000000
1189563.000000
1190888.000000
1192077.000000
1193277.000000
1194511.000000
1195676.000000
1196859.000000
1198106.000000
1199295.000000
1200433.000000
1201619.000000
1202835.000000
1204103.000000
1205282.000000
1206473.000000
1207591.000000
1208761.000000
1209976.000000
1211310.000000
1212730.000000
1213880.000000
1215205.000000
1216536.000000
1217665.000000
1218783.000000
1220122.000000
1221308.000000
1222538.000000
1223870.000000
1225144.000000
1226316.000000
1227574.000000
1228785.000000
1229894.000000
1231152.000000
1232435.000000
1233635.000000
1234956.000000
1236266.000000
1237472.000000
1238649.000000
1239901.000000
1241094.000000
1242319.000000
1243660.000000
1244889.000000
1246134.000000
1247408.000000
1248526.000000
1249676.000000
1250828.000000
1251880.000000
1253105.000000
1254357.000000
1255537.000000
1256886.000000
1258101.000000
1259272.000000
1260569.000000
1261857.000000
1263066.000000
1264265.000000
1265527.000000
1266748.000000
1267795.000000
1269030.000000
1270486.000000
1271671.000000
1272963.000000
1274254.000000
1275440.000000
1276641.000000
1277798.000000
1278866.000000
1280010.000000
1281175.000000
1282311.000000
1283429.000000
1284722.000000
1286069.000000
1287349.000000
1288569.000000
1289761.000000
1290854.000000
1291942.000000
1293056.000000
1294166.000000
1295234.000000
1296431.000000
1297661.000000
1298809.000000
1299956.000000
1301144.000000
1302316.000000
1303445.000000
1304630.000000
1305776.000000
1306833.000000
1307931.000000
1309017.000000
1310099.000000
1311142.000000
1312251.000000
1313394.000000
1314609.000000
1315755.000000
1316926.000000
1318129.000000
1319266.000000
1320315.000000
1321429.000000
1322515.000000
1323550.000000
1324691.000000
1325850.000000
1327014.000000
1328099.000000
1329254.000000
1330408.000000
1331482.000000
1332603.000000
1333784.000000
1334902.000000
1335920.000000
1337055.000000
1338157.000000
1339232.000000
1340213.000000
1341348.000000
1342510.000000
1343640.000000
1344871.000000
1346133.000000
1347424.000000
1348646.000000
1349876.000000
1351056.000000
1352106.000000
1353398.000000
1354594.000000
1355803.000000
1356924.000000
1358178.000000
1359497.000000
1360679.000000
1361883.000000
1363142.000000
1364302.000000
1365516.000000
1366780.000000
1368029.000000
1369256.000000
1370475.000000
1371703.000000
1372837.000000
1373875.000000
1375307.000000
1376520.000000
1377572.000000
1378734.000000
1379991.000000
1381030.000000
1382313.000000
1383550.000000
1384673.000000
1385970.000000
1387204.000000
1388362.000000
1389571.000000
1390752.000000
1391992.000000
1393247.000000
1394425.000000
1395541.000000
1396808.000000
1398062.000000
1399260.000000
1400620.000000
1401942.000000
1403248.000000
1404548.000000
1405864.000000
1407068.000000
1408263.000000
1409284.000000
1410506.000000
1411792.000000
1413000.000000
1414067.000000
1415335.000000
1416611.000000
1417820.000000
1418985.000000
1420348.000000
1421583.000000
1422673.000000
1424032.000000
1425281.000000
1426418.000000
1427813.000000
1429135.000000
1430288.000000
1431435.000000
1432602.000000
1433791.000000
