ECG (ms)
282.000000
1108.000000
1874.000000
2699.000000
3529.000000
4301.000000
5093.000000
5822.000000
6533.000000
7264.000000
8011.000000
8728.000000
9517.000000
10313.000000
11075.000000
11889.000000
12681.000000
13450.000000
14263.000000
15066.000000
15834.000000
16624.000000
17461.000000
18273.000000
19041.000000
19785.000000
20541.000000
21301.000000
22078.000000
22830.000000
23616.000000
24412.000000
25152.000000
25986.000000
26781.000000
27671.000000
28555.000000
29384.000000
30231.000000
31028.000000
31785.000000
32553.000000
33381.000000
34131.000000
34882.000000
35696.000000
36507.000000
37421.000000
38284.000000
39147.000000
40038.000000
40886.000000
41690.000000
42480.000000
43246.000000
44047.000000
44884.000000
45685.000000
46546.000000
47377.000000
48237.000000
49154.000000
49996.000000
50860.000000
51728.000000
52578.000000
53369.000000
54158.000000
55003.000000
55921.000000
56814.000000
57761.000000
58651.000000
59482.000000
60276.000000
61121.000000
62017.000000
62878.000000
63809.000000
64730.000000
65660.000000
66591.000000
67530.000000
68421.000000
69357.000000
70300.000000
71230.000000
72148.000000
73032.000000
73912.000000
74824.000000
75753.000000
76637.000000
77551.000000
78458.000000
79365.000000
80274.000000
81142.000000
82043.000000
82950.000000
83810.000000
84708.000000
85570.000000
86373.000000
87152.000000
87967.000000
88886.000000
89835.000000
90737.000000
91639.000000
92569.000000
93501.000000
94421.000000
95355.000000
96276.000000
97172.000000
98100.000000
98983.000000
99899.000000
100823.000000
101722.000000
102657.000000
103591.000000
104482.000000
105377.000000
106322.000000
107270.000000
108199.000000
109114.000000
110002.000000
110935.000000
111863.000000
112782.000000
113683.000000
114542.000000
115406.000000
116338.000000
117285.000000
118231.000000
119177.000000
120083.000000
120954.000000
121877.000000
122822.000000
123761.000000
124653.000000
125547.000000
126474.000000
127398.000000
128302.000000
129173.000000
130022.000000
130889.000000
131811.000000
132755.000000
133700.000000
134626.000000
135513.000000
136403.000000
137343.000000
138298.000000
139234.000000
140163.000000
141058.000000
141941.000000
142827.000000
143744.000000
144674.000000
145568.000000
146401.000000
147199.000000
147944.000000
148703.000000
149545.000000
150546.000000
151512.000000
152420.000000
153382.000000
154345.000000
155252.000000
156176.000000
157134.000000
158065.000000
158960.000000
159876.000000
160806.000000
161719.000000
162608.000000
163520.000000
164453.000000
165383.000000
166284.000000
167216.000000
168165.000000
169100.000000
169996.000000
170920.000000
171836.000000
172750.000000
173669.000000
174567.000000
175455.000000
176378.000000
177291.000000
178200.000000
179100.000000
180012.000000
180961.000000
181887.000000
182791.000000
183739.000000
184673.000000
185607.000000
186530.000000
187471.000000
188385.000000
189275.000000
190181.000000
191130.000000
192081.000000
193009.000000
193907.000000
194845.000000
195812.000000
196762.000000
197676.000000
198606.000000
199576.000000
200529.000000
201440.000000
202387.000000
203350.000000
204268.000000
205210.000000
206172.000000
207106.000000
208059.000000
209008.000000
209927.000000
210856.000000
211803.000000
212741.000000
213650.000000
214599.000000
215550.000000
216441.000000
217374.000000
218327.000000
219213.000000
220107.000000
221021.000000
221928.000000
222803.000000
223655.000000
224555.000000
225392.000000
226286.000000
227213.000000
228148.000000
229124.000000
230086.000000
230987.000000
231921.000000
232895.000000
233842.000000
234756.000000
235641.000000
236523.000000
237427.000000
238366.000000
239297.000000
240220.000000
241139.000000
242032.000000
242962.000000
243904.000000
244824.000000
245747.000000
246645.000000
247530.000000
248448.000000
249378.000000
250302.000000
251208.000000
252095.000000
253019.000000
253947.000000
254839.000000
255759.000000
256683.000000
257608.000000
258495.000000
259423.000000
260346.000000
261247.000000
262113.000000
262965.000000
263803.000000
264612.000000
265571.000000
266577.000000
267570.000000
268532.000000
269465.000000
270361.000000
271256.000000
272168.000000
273092.000000
274017.000000
274944.000000
275852.000000
276754.000000
277655.000000
278586.000000
279524.000000
280449.000000
281356.000000
282243.000000
283160.000000
284076.000000
284981.000000
285888.000000
286759.000000
287663.000000
288607.000000
289526.000000
290427.000000
291349.000000
292264.000000
293161.000000
294055.000000
294971.000000
295884.000000
296780.000000
297674.000000
298601.000000
299522.000000
300414.000000
301341.000000
302253.000000
303139.000000
304058.000000
304962.000000
305865.000000
306754.000000
307629.000000
308563.000000
309504.000000
310403.000000
311301.000000
312222.000000
313149.000000
313999.000000
314859.000000
315652.000000
316420.000000
317416.000000
318310.000000
319267.000000
320206.000000
321153.000000
322111.000000
323039.000000
323947.000000
324914.000000
325860.000000
326808.000000
327721.000000
328622.000000
329544.000000
330488.000000
331454.000000
332409.000000
333322.000000
334260.000000
335243.000000
336211.000000
337163.000000
338073.000000
338991.000000
339958.000000
340935.000000
341908.000000
342851.000000
343788.000000
344734.000000
345684.000000
346623.000000
347570.000000
348498.000000
349423.000000
350352.000000
351317.000000
352270.000000
353193.000000
354122.000000
355077.000000
356004.000000
356916.000000
357859.000000
358795.000000
359711.000000
360661.000000
361606.000000
362500.000000
363431.000000
364375.000000
365294.000000
366180.000000
367102.000000
368031.000000
368926.000000
369844.000000
370788.000000
371704.000000
372611.000000
373548.000000
374480.000000
375404.000000
376313.000000
377252.000000
378181.000000
379083.000000
380023.000000
380974.000000
381920.000000
382822.000000
383750.000000
384689.000000
385641.000000
386543.000000
387481.000000
388409.000000
389280.000000
390174.000000
391030.000000
391820.000000
392557.000000
393406.000000
394343.000000
395340.000000
396310.000000
397257.000000
398189.000000
399091.000000
400043.000000
401012.000000
401930.000000
402876.000000
403834.000000
404765.000000
405652.000000
406565.000000
407476.000000
408346.000000
409261.000000
410211.000000
411170.000000
412081.000000
413046.000000
414013.000000
414985.000000
415896.000000
416814.000000
417745.000000
418637.000000
419471.000000
420201.000000
420906.000000
421946.000000
423102.000000
424235.000000
425359.000000
426445.000000
427476.000000
428448.000000
429305.000000
430064.000000
430841.000000
431669.000000
432609.000000
433642.000000
434672.000000
435689.000000
436657.000000
437644.000000
438650.000000
439603.000000
440468.000000
441334.000000
442245.000000
443206.000000
444187.000000
445102.000000
446041.000000
446964.000000
447880.000000
448831.000000
449786.000000
450736.000000
451692.000000
452653.000000
453598.000000
454538.000000
455489.000000
456420.000000
457300.000000
458224.000000
459128.000000
460005.000000
460910.000000
461850.000000
462777.000000
463687.000000
464639.000000
465566.000000
466465.000000
467391.000000
468308.000000
469195.000000
470108.000000
471039.000000
471946.000000
472827.000000
473721.000000
474632.000000
475521.000000
476384.000000
477259.000000
478147.000000
479012.000000
479929.000000
480827.000000
481702.000000
482631.000000
483554.000000
484411.000000
485322.000000
486241.000000
487132.000000
488043.000000
488977.000000
489871.000000
490773.000000
491661.000000
492491.000000
493266.000000
494061.000000
494965.000000
495937.000000
496871.000000
497811.000000
498747.000000
499656.000000
500580.000000
501513.000000
502430.000000
503312.000000
504233.000000
505139.000000
506024.000000
506944.000000
507875.000000
508768.000000
509696.000000
510640.000000
511574.000000
512453.000000
513368.000000
514293.000000
515197.000000
516060.000000
516952.000000
517854.000000
518716.000000
519625.000000
520558.000000
521478.000000
522369.000000
523319.000000
524262.000000
525186.000000
526055.000000
526931.000000
527698.000000
528418.000000
529128.000000
529899.000000
530745.000000
531748.000000
532775.000000
533725.000000
534728.000000
535686.000000
536592.000000
537530.000000
538486.000000
539409.000000
540345.000000
541301.000000
542244.000000
543168.000000
544119.000000
545070.000000
545985.000000
546919.000000
547882.000000
548824.000000
549718.000000
550571.000000
551366.000000
552100.000000
552944.000000
554097.000000
555092.000000
555969.000000
556900.000000
557969.000000
558978.000000
559986.000000
560998.000000
562008.000000
563001.000000
564004.000000
565003.000000
565999.000000
566987.000000
567979.000000
568948.000000
569910.000000
570893.000000
571868.000000
572774.000000
573705.000000
574645.000000
575609.000000
576560.000000
577517.000000
578467.000000
579417.000000
580357.000000
581310.000000
582260.000000
583159.000000
584093.000000
585024.000000
585929.000000
586829.000000
587755.000000
588669.000000
589530.000000
590408.000000
591278.000000
592177.000000
593031.000000
593808.000000
594689.000000
595702.000000
596696.000000
597594.000000
598567.000000
599527.000000
600450.000000
601380.000000
602336.000000
603282.000000
604182.000000
605117.000000
606062.000000
606984.000000
607883.000000
608822.000000
609775.000000
610691.000000
611631.000000
612592.000000
613535.000000
614472.000000
615443.000000
616381.000000
617273.000000
618204.000000
619104.000000
619898.000000
620738.000000
621537.000000
622498.000000
623541.000000
624525.000000
625445.000000
626362.000000
627318.000000
628274.000000
629225.000000
630179.000000
631091.000000
631997.000000
632928.000000
633901.000000
634878.000000
635851.000000
636809.000000
637744.000000
638709.000000
639690.000000
640638.000000
641580.000000
642525.000000
643482.000000
644403.000000
645366.000000
646293.000000
647237.000000
648144.000000
649033.000000
649955.000000
650910.000000
651857.000000
652764.000000
653694.000000
654643.000000
655573.000000
656473.000000
657412.000000
658370.000000
659309.000000
660216.000000
661175.000000
662155.000000
663091.000000
664023.000000
664983.000000
665911.000000
666791.000000
667675.000000
668586.000000
669484.000000
670371.000000
671358.000000
672405.000000
673391.000000
674396.000000
675430.000000
676440.000000
677415.000000
678434.000000
679429.000000
680384.000000
681376.000000
682346.000000
683293.000000
684281.000000
685261.000000
686200.000000
687188.000000
688171.000000
689103.000000
690054.000000
691004.000000
691920.000000
692848.000000
693800.000000
694759.000000
695692.000000
696599.000000
697561.000000
698533.000000
699539.000000
700514.000000
701495.000000
702474.000000
703420.000000
704382.000000
705362.000000
706323.000000
707246.000000
708222.000000
709206.000000
710149.000000
711133.000000
712124.000000
713092.000000
714043.000000
715016.000000
715999.000000
716946.000000
717868.000000
718848.000000
719838.000000
720792.000000
721766.000000
722771.000000
723729.000000
724714.000000
725701.000000
726634.000000
727595.000000
728581.000000
729556.000000
730471.000000
731371.000000
732317.000000
733307.000000
734300.000000
735255.000000
736237.000000
737199.000000
738136.000000
739107.000000
740100.000000
741057.000000
742002.000000
742988.000000
743975.000000
744913.000000
745888.000000
746863.000000
747796.000000
748733.000000
749647.000000
750514.000000
751421.000000
752251.000000
753014.000000
753919.000000
754836.000000
755898.000000
756904.000000
757810.000000
758761.000000
759725.000000
760632.000000
761586.000000
762554.000000
763481.000000
764438.000000
765410.000000
766360.000000
767271.000000
768231.000000
769204.000000
770131.000000
771047.000000
772007.000000
772969.000000
773915.000000
774791.000000
775614.000000
776347.000000
777635.000000
778864.000000
780074.000000
781249.000000
782371.000000
783375.000000
784395.000000
785431.000000
786479.000000
787523.000000
788533.000000
789531.000000
790582.000000
791676.000000
792740.000000
793765.000000
794786.000000
795768.000000
796724.000000
797623.000000
798551.000000
799541.000000
800561.000000
801583.000000
802615.000000
803648.000000
804651.000000
805626.000000
806550.000000
807486.000000
808445.000000
809403.000000
810309.000000
811257.000000
812237.000000
813168.000000
814115.000000
815112.000000
816102.000000
817077.000000
818077.000000
819026.000000
819974.000000
820930.000000
821833.000000
822764.000000
823706.000000
824651.000000
825583.000000
826557.000000
827511.000000
828450.000000
829394.000000
830325.000000
831197.000000
832029.000000
832826.000000
833695.000000
834562.000000
835329.000000
836100.000000
836919.000000
837802.000000
838810.000000
839775.000000
840628.000000
841521.000000
842478.000000
843425.000000
844332.000000
845203.000000
846135.000000
847103.000000
848011.000000
848977.000000
849968.000000
850885.000000
851811.000000
852767.000000
853678.000000
854573.000000
855512.000000
856446.000000
857294.000000
858187.000000
859144.000000
860083.000000
860996.000000
861972.000000
862953.000000
863867.000000
864843.000000
865833.000000
866714.000000
867638.000000
868598.000000
869492.000000
870416.000000
871408.000000
872395.000000
873239.000000
874100.000000
875010.000000
875938.000000
876787.000000
877732.000000
878693.000000
879566.000000
880397.000000
881254.000000
882084.000000
882970.000000
883907.000000
884780.000000
885710.000000
886744.000000
887726.000000
888638.000000
889582.000000
890501.000000
891410.000000
892255.000000
893178.000000
894179.000000
895159.000000
896096.000000
897107.000000
898104.000000
899016.000000
900003.000000
900981.000000
901904.000000
902921.000000
903917.000000
904809.000000
905791.000000
906771.000000
907713.000000
908659.000000
909632.000000
910606.000000
911535.000000
912506.000000
913487.000000
914407.000000
915350.000000
916309.000000
917242.000000
918166.000000
919121.000000
920047.000000
920957.000000
921898.000000
922840.000000
923765.000000
924688.000000
925634.000000
926578.000000
927483.000000
928399.000000
929306.000000
930218.000000
931081.000000
931909.000000
932825.000000
933803.000000
934740.000000
935645.000000
936597.000000
937550.000000
938476.000000
939422.000000
940386.000000
941349.000000
942282.000000
943242.000000
944208.000000
945125.000000
946073.000000
947027.000000
947967.000000
948895.000000
949859.000000
950822.000000
951739.000000
952733.000000
953729.000000
954673.000000
955652.000000
956638.000000
957574.000000
958576.000000
959574.000000
960519.000000
961499.000000
962475.000000
963410.000000
964387.000000
965354.000000
966265.000000
967222.000000
968186.000000
969151.000000
970103.000000
971091.000000
972067.000000
973033.000000
973957.000000
974926.000000
975907.000000
976866.000000
977814.000000
978806.000000
979799.000000
980761.000000
981720.000000
982699.000000
983678.000000
984598.000000
985548.000000
986514.000000
987488.000000
988405.000000
989361.000000
990322.000000
991239.000000
992104.000000
992981.000000
993919.000000
994898.000000
995884.000000
996823.000000
997805.000000
998787.000000
999720.000000
1000696.000000
1001674.000000
1002588.000000
1003530.000000
1004415.000000
1005196.000000
1006014.000000
1006917.000000
1008002.000000
1009071.000000
1010020.000000
1011007.000000
1011999.000000
1012958.000000
1013939.000000
1014944.000000
1015908.000000
1016895.000000
1017910.000000
1018894.000000
1019882.000000
1020898.000000
1021902.000000
1022878.000000
1023897.000000
1024894.000000
1025868.000000
1026882.000000
1027873.000000
1028822.000000
1029786.000000
1030765.000000
1031692.000000
1032631.000000
1033615.000000
1034567.000000
1035505.000000
1036485.000000
1037473.000000
1038395.000000
1039375.000000
1040356.000000
1041285.000000
1042165.000000
1042930.000000
1043680.000000
1044915.000000
1046052.000000
1047184.000000
1048299.000000
1049391.000000
1050496.000000
1051597.000000
1052666.000000
1053701.000000
1054759.000000
1055833.000000
1056901.000000
1057959.000000
1059006.000000
1060044.000000
1061080.000000
1062117.000000
1063155.000000
1064210.000000
1065271.000000
1066306.000000
1067305.000000
1068280.000000
1069249.000000
1070211.000000
1071143.000000
1072054.000000
1072936.000000
1073789.000000
1074614.000000
1075498.000000
1076431.000000
1077398.000000
1078308.000000
1079210.000000
1080141.000000
1081075.000000
1081940.000000
1082766.000000
1083588.000000
1084366.000000
1085113.000000
1085838.000000
1086561.000000
1087352.000000
1088283.000000
1089235.000000
1090187.000000
1091108.000000
1092087.000000
1093076.000000
1094050.000000
1094972.000000
1095906.000000
1096888.000000
1097897.000000
1098826.000000
1099776.000000
1100725.000000
1101630.000000
1102521.000000
1103445.000000
1104392.000000
1105313.000000
1106262.000000
1107224.000000
1108186.000000
1109101.000000
1110014.000000
1110916.000000
1111805.000000
1112601.000000
1113310.000000
1114009.000000
1114717.000000
1115534.000000
1116703.000000
1117785.000000
1118894.000000
1119977.000000
1121008.000000
1122052.000000
1123096.000000
1124093.000000
1125103.000000
1126122.000000
1127133.000000
1128137.000000
1129148.000000
1130151.000000
1131151.000000
1132145.000000
1133127.000000
1134084.000000
1135054.000000
1135988.000000
1136932.000000
1137851.000000
1138802.000000
1139706.000000
1140600.000000
1141382.000000
1142153.000000
1142980.000000
1143904.000000
1144963.000000
1146007.000000
1146968.000000
1147930.000000
1148888.000000
1149871.000000
1150769.000000
1151681.000000
1152691.000000
1153651.000000
1154555.000000
1155517.000000
1156495.000000
1157452.000000
1158408.000000
1159415.000000
1160401.000000
1161332.000000
1162299.000000
1163273.000000
1164208.000000
1165153.000000
1166118.000000
1167057.000000
1167989.000000
1168969.000000
1169937.000000
1170870.000000
1171842.000000
1172850.000000
1173865.000000
1174825.000000
1175829.000000
1176829.000000
1177789.000000
1178778.000000
1179770.000000
1180736.000000
1181684.000000
1182687.000000
1183703.000000
1184675.000000
1185683.000000
1186694.000000
1187638.000000
1188611.000000
1189602.000000
1190571.000000
1191514.000000
1192469.000000
1193424.000000
1194344.000000
1195243.000000
1196068.000000
1196902.000000
1197828.000000
1198709.000000
1199516.000000
1200357.000000
1201250.000000
1202130.000000
1202948.000000
1203724.000000
1204568.000000
1205467.000000
1206339.000000
1207174.000000
1208043.000000
1209038.000000
1210036.000000
1211007.000000
1212024.000000
1213007.000000
1213967.000000
1214872.000000
1215762.000000
1216657.000000
1217527.000000
1218318.000000
1219058.000000
1219769.000000
1220517.000000
1221286.000000
1222001.000000
1222686.000000
1223396.000000
1224491.000000
1225532.000000
1226573.000000
1227591.000000
1228508.000000
1229314.000000
1230315.000000
1231341.000000
1232340.000000
1233263.000000
1234160.000000
1235060.000000
1235933.000000
1236821.000000
1237778.000000
1238786.000000
1239744.000000
1240721.000000
1241727.000000
1242703.000000
1243658.000000
1244619.000000
1245618.000000
1246585.000000
1247553.000000
1248520.000000
1249461.000000
1250425.000000
1251398.000000
1252339.000000
1253214.000000
1254104.000000
1255031.000000
1255960.000000
1256955.000000
1257951.000000
1258910.000000
1259841.000000
1260812.000000
1261815.000000
1262813.000000
1263746.000000
1264708.000000
1265688.000000
1266613.000000
1267548.000000
1268510.000000
1269487.000000
1270425.000000
1271364.000000
1272335.000000
1273308.000000
1274250.000000
1275195.000000
1276192.000000
1277181.000000
1278146.000000
1279085.000000
1280050.000000
1281012.000000
1281960.000000
1282919.000000
1283861.000000
1284792.000000
1285701.000000
1286650.000000
1287610.000000
1288539.000000
1289502.000000
1290448.000000
1291320.000000
1292204.000000
1293084.000000
1293945.000000
1294876.000000
