ECG (ms)
108.000000
813.000000
1483.000000
2786.000000
3940.000000
5126.000000
6203.000000
7129.000000
8100.000000
8951.000000
9802.000000
10727.000000
11645.000000
12576.000000
13679.000000
14630.000000
15658.000000
16611.000000
17446.000000
18274.000000
19105.000000
19903.000000
20774.000000
21714.000000
22612.000000
23485.000000
24322.000000
25084.000000
25831.000000
26608.000000
27421.000000
28596.000000
29693.000000
30688.000000
31651.000000
32595.000000
33506.000000
34531.000000
35448.000000
36311.000000
37243.000000
38262.000000
39134.000000
40108.000000
41138.000000
42033.000000
42947.000000
43943.000000
44924.000000
45920.000000
47049.000000
48021.000000
48992.000000
49993.000000
50976.000000
52030.000000
52994.000000
54022.000000
54976.000000
55873.000000
56816.000000
57704.000000
58553.000000
59512.000000
60511.000000
61469.000000
62573.000000
63547.000000
64717.000000
65682.000000
66628.000000
67567.000000
68365.000000
69137.000000
69978.000000
70959.000000
72201.000000
73215.000000
74149.000000
75157.000000
76014.000000
76872.000000
77726.000000
78536.000000
79453.000000
80433.000000
81282.000000
82240.000000
83295.000000
84210.000000
85129.000000
86054.000000
86871.000000
87667.000000
88474.000000
89245.000000
90146.000000
91178.000000
92068.000000
92991.000000
93854.000000
94729.000000
95618.000000
96439.000000
97276.000000
98096.000000
98899.000000
99796.000000
100724.000000
101595.000000
102508.000000
103379.000000
104266.000000
105104.000000
105931.000000
106800.000000
107631.000000
108466.000000
109333.000000
110139.000000
110998.000000
111843.000000
112637.000000
113469.000000
114318.000000
115176.000000
116066.000000
116903.000000
117715.000000
118555.000000
119353.000000
120129.000000
120917.000000
121686.000000
122453.000000
123292.000000
124119.000000
124974.000000
125886.000000
126743.000000
127619.000000
128521.000000
129344.000000
130180.000000
131171.000000
132132.000000
133089.000000
134105.000000
135019.000000
135945.000000
136889.000000
137757.000000
138668.000000
139622.000000
140556.000000
141567.000000
142486.000000
143383.000000
144335.000000
145201.000000
146073.000000
147109.000000
148172.000000
149173.000000
150171.000000
151116.000000
152142.000000
153093.000000
153992.000000
154887.000000
155772.000000
156674.000000
157723.000000
158672.000000
159594.000000
160463.000000
161253.000000
162085.000000
163080.000000
164068.000000
165041.000000
165930.000000
166815.000000
167721.000000
168539.000000
169347.000000
170226.000000
171049.000000
171970.000000
173054.000000
173982.000000
174954.000000
175912.000000
176755.000000
177622.000000
178498.000000
179326.000000
180159.000000
181030.000000
181882.000000
182781.000000
183737.000000
184650.000000
185611.000000
186496.000000
187316.000000
188242.000000
189270.000000
190180.000000
191149.000000
192108.000000
193021.000000
193987.000000
194937.000000
195787.000000
196677.000000
197573.000000
198424.000000
199369.000000
200378.000000
201334.000000
202373.000000
203239.000000
204087.000000
204956.000000
205743.000000
206595.000000
207539.000000
208398.000000
209250.000000
210109.000000
210923.000000
211782.000000
212664.000000
213537.000000
214481.000000
215430.000000
216273.000000
217127.000000
217912.000000
218694.000000
219678.000000
220670.000000
221672.000000
222581.000000
223460.000000
224345.000000
225175.000000
226028.000000
226967.000000
227968.000000
228893.000000
229753.000000
230608.000000
231464.000000
232309.000000
233267.000000
234264.000000
235213.000000
236144.000000
236977.000000
237856.000000
238738.000000
239579.000000
240464.000000
241355.000000
242199.000000
243113.000000
243992.000000
244908.000000
245870.000000
246705.000000
247531.000000
248310.000000
249069.000000
250181.000000
251252.000000
252291.000000
253288.000000
254193.000000
255110.000000
256008.000000
256893.000000
257865.000000
258840.000000
259744.000000
260662.000000
261549.000000
262404.000000
263310.000000
264251.000000
265134.000000
266057.000000
267039.000000
267988.000000
268974.000000
269883.000000
270791.000000
271730.000000
272681.000000
273619.000000
274555.000000
275415.000000
276316.000000
277246.000000
278080.000000
278950.000000
279930.000000
280820.000000
281800.000000
282846.000000
283735.000000
284665.000000
285590.000000
286430.000000
287318.000000
288220.000000
289064.000000
290013.000000
291107.000000
292015.000000
292950.000000
293868.000000
294699.000000
295546.000000
296340.000000
297105.000000
297900.000000
298789.000000
299696.000000
300626.000000
301489.000000
302371.000000
303270.000000
304107.000000
304973.000000
305864.000000
306714.000000
307683.000000
308642.000000
309549.000000
310444.000000
311284.000000
312256.000000
313255.000000
314262.000000
315246.000000
316225.000000
317181.000000
318089.000000
318985.000000
319892.000000
320759.000000
321639.000000
322561.000000
323447.000000
324404.000000
325352.000000
326232.000000
327147.000000
328045.000000
328860.000000
329683.000000
330597.000000
331509.000000
332506.000000
333577.000000
334494.000000
335413.000000
336339.000000
337176.000000
338059.000000
338977.000000
339845.000000
340869.000000
341862.000000
342812.000000
343734.000000
344602.000000
345467.000000
346404.000000
347348.000000
348349.000000
349347.000000
350220.000000
351131.000000
351986.000000
352803.000000
353938.000000
355010.000000
356043.000000
357076.000000
358008.000000
358944.000000
359899.000000
360784.000000
361667.000000
362589.000000
363454.000000
364398.000000
365420.000000
366293.000000
367260.000000
368237.000000
369149.000000
370129.000000
371081.000000
371976.000000
372953.000000
373864.000000
374772.000000
375662.000000
376491.000000
377386.000000
378153.000000
378854.000000
379514.000000
380172.000000
380979.000000
381895.000000
382834.000000
383750.000000
384502.000000
385208.000000
385903.000000
386839.000000
387653.000000
388409.000000
389166.000000
389931.000000
390644.000000
391325.000000
392029.000000
392820.000000
393650.000000
394586.000000
395490.000000
396325.000000
397228.000000
398132.000000
398997.000000
399872.000000
400682.000000
401457.000000
402245.000000
403095.000000
403961.000000
405142.000000
406154.000000
407150.000000
407998.000000
408810.000000
409733.000000
410644.000000
411532.000000
412457.000000
413319.000000
414233.000000
415143.000000
416028.000000
416969.000000
417802.000000
418640.000000
419462.000000
420244.000000
421086.000000
421982.000000
422915.000000
423890.000000
424809.000000
425718.000000
426603.000000
427472.000000
428383.000000
429252.000000
430109.000000
431075.000000
432114.000000
433069.000000
434055.000000
434934.000000
435865.000000
436818.000000
437664.000000
438556.000000
439520.000000
440413.000000
441321.000000
442290.000000
443196.000000
444070.000000
444999.000000
445859.000000
446734.000000
447611.000000
448392.000000
449186.000000
450109.000000
450919.000000
451785.000000
452705.000000
453599.000000
454578.000000
455579.000000
456476.000000
457351.000000
458164.000000
458965.000000
459789.000000
460551.000000
461398.000000
462382.000000
463311.000000
464207.000000
465109.000000
465953.000000
466849.000000
467680.000000
468499.000000
469353.000000
470144.000000
470926.000000
471733.000000
472542.000000
473299.000000
474158.000000
475068.000000
475919.000000
476829.000000
477687.000000
478517.000000
479425.000000
480312.000000
481146.000000
482002.000000
482807.000000
483579.000000
484438.000000
485447.000000
486405.000000
487393.000000
488292.000000
489195.000000
490108.000000
490977.000000
491850.000000
492750.000000
493557.000000
494372.000000
495313.000000
496243.000000
497144.000000
498072.000000
498896.000000
499699.000000
500495.000000
501268.000000
502043.000000
502940.000000
503772.000000
504573.000000
505497.000000
506456.000000
507336.000000
508254.000000
509216.000000
510085.000000
510977.000000
511811.000000
512658.000000
513573.000000
514448.000000
515508.000000
516559.000000
517440.000000
518307.000000
519183.000000
519974.000000
520782.000000
521615.000000
522388.000000
523248.000000
524172.000000
525024.000000
525989.000000
526973.000000
527848.000000
528736.000000
529553.000000
530341.000000
531123.000000
531892.000000
532683.000000
533691.000000
534634.000000
535502.000000
536414.000000
537260.000000
538065.000000
538914.000000
539707.000000
540527.000000
541456.000000
542360.000000
543321.000000
544315.000000
545190.000000
546085.000000
546950.000000
547762.000000
548622.000000
549424.000000
550181.000000
550929.000000
551817.000000
552628.000000
553469.000000
554503.000000
555444.000000
556379.000000
557271.000000
558121.000000
558968.000000
559862.000000
560705.000000
561570.000000
562500.000000
563402.000000
564282.000000
565224.000000
566077.000000
566993.000000
567935.000000
568788.000000
569681.000000
570802.000000
571837.000000
572820.000000
573631.000000
574344.000000
575119.000000
576095.000000
576995.000000
577939.000000
578838.000000
579656.000000
580523.000000
581394.000000
582227.000000
583076.000000
583948.000000
584762.000000
585672.000000
586663.000000
587514.000000
588367.000000
589262.000000
590110.000000
590883.000000
591696.000000
592493.000000
593271.000000
594197.000000
595218.000000
596073.000000
596916.000000
597747.000000
598572.000000
599470.000000
600441.000000
601285.000000
602189.000000
603040.000000
603838.000000
604711.000000
605511.000000
606387.000000
607380.000000
608441.000000
609545.000000
610547.000000
611575.000000
612553.000000
613516.000000
614556.000000
615483.000000
616468.000000
617498.000000
618433.000000
619439.000000
620466.000000
621430.000000
622485.000000
623442.000000
624369.000000
625389.000000
626408.000000
627312.000000
628242.000000
629254.000000
630150.000000
631111.000000
632162.000000
633128.000000
634153.000000
635124.000000
636084.000000
637054.000000
638012.000000
638898.000000
639856.000000
640782.000000
641637.000000
642516.000000
643377.000000
644244.000000
645222.000000
646206.000000
647141.000000
648097.000000
649004.000000
649886.000000
650878.000000
651882.000000
652928.000000
654007.000000
654952.000000
655934.000000
656864.000000
657729.000000
658673.000000
659637.000000
660452.000000
661232.000000
662032.000000
662833.000000
663805.000000
664777.000000
665678.000000
666567.000000
667475.000000
668309.000000
669186.000000
670162.000000
671035.000000
671941.000000
672807.000000
673616.000000
674474.000000
675358.000000
676274.000000
677287.000000
678188.000000
679059.000000
679938.000000
680772.000000
681611.000000
682465.000000
683263.000000
684037.000000
685017.000000
685911.000000
686803.000000
687842.000000
688805.000000
689785.000000
690685.000000
691568.000000
692454.000000
693294.000000
694168.000000
695152.000000
696129.000000
697070.000000
697994.000000
698873.000000
699792.000000
700681.000000
701637.000000
702582.000000
703526.000000
704467.000000
705444.000000
706293.000000
707127.000000
707996.000000
708854.000000
709740.000000
710756.000000
711702.000000
712659.000000
713622.000000
714469.000000
715338.000000
716274.000000
717151.000000
717973.000000
718873.000000
719743.000000
720613.000000
721732.000000
722686.000000
723621.000000
724552.000000
725431.000000
726306.000000
727205.000000
728037.000000
728899.000000
729756.000000
730542.000000
731274.000000
731959.000000
732619.000000
733250.000000
734450.000000
735357.000000
736251.000000
737131.000000
737961.000000
738773.000000
739623.000000
740419.000000
741162.000000
741947.000000
742799.000000
743572.000000
744394.000000
745266.000000
746062.000000
746821.000000
747659.000000
748468.000000
749205.000000
749968.000000
750810.000000
751620.000000
752523.000000
753468.000000
754303.000000
755118.000000
755892.000000
756591.000000
757291.000000
758048.000000
758889.000000
759758.000000
760682.000000
761509.000000
762337.000000
763123.000000
763874.000000
764707.000000
765554.000000
766349.000000
767213.000000
768089.000000
768925.000000
769783.000000
770600.000000
771379.000000
772182.000000
772979.000000
773729.000000
774499.000000
775367.000000
776187.000000
776993.000000
777835.000000
778617.000000
779420.000000
780264.000000
781027.000000
781816.000000
782678.000000
783490.000000
784356.000000
785268.000000
786090.000000
786924.000000
787777.000000
788558.000000
789301.000000
790122.000000
790994.000000
791876.000000
792853.000000
793799.000000
794720.000000
795642.000000
796419.000000
797170.000000
797947.000000
798729.000000
799517.000000
800709.000000
801700.000000
802607.000000
803543.000000
804387.000000
805199.000000
806047.000000
806843.000000
807590.000000
808367.000000
809209.000000
810047.000000
811089.000000
812000.000000
812851.000000
813795.000000
814622.000000
815418.000000
816312.000000
817107.000000
817979.000000
818924.000000
819813.000000
820697.000000
821559.000000
822398.000000
823315.000000
824236.000000
825074.000000
825937.000000
826802.000000
827612.000000
828478.000000
829264.000000
829990.000000
830693.000000
831349.000000
832134.000000
833302.000000
834334.000000
835301.000000
836151.000000
836992.000000
837877.000000
838702.000000
839577.000000
840474.000000
841369.000000
842365.000000
843411.000000
844405.000000
845401.000000
846341.000000
847243.000000
848049.000000
848818.000000
849975.000000
851025.000000
852073.000000
853041.000000
853912.000000
854671.000000
855393.000000
856076.000000
857286.000000
858273.000000
859129.000000
860040.000000
860826.000000
861613.000000
862407.000000
863170.000000
864049.000000
865127.000000
866106.000000
867063.000000
867949.000000
868832.000000
869778.000000
870668.000000
871558.000000
872444.000000
873283.000000
874241.000000
875248.000000
876156.000000
877067.000000
877894.000000
878684.000000
879479.000000
880235.000000
881091.000000
882135.000000
883155.000000
884114.000000
884950.000000
885760.000000
886597.000000
887471.000000
888288.000000
889178.000000
890137.000000
891032.000000
891966.000000
892874.000000
893688.000000
894483.000000
895250.000000
895992.000000
896852.000000
897913.000000
898906.000000
899866.000000
900741.000000
901624.000000
902562.000000
903390.000000
904185.000000
904990.000000
905780.000000
906574.000000
907769.000000
908799.000000
909742.000000
910703.000000
911521.000000
912323.000000
913159.000000
913957.000000
914744.000000
915619.000000
916442.000000
917210.000000
918015.000000
918796.000000
919496.000000
920187.000000
920848.000000
921594.000000
922691.000000
923601.000000
924496.000000
925337.000000
926167.000000
927013.000000
927797.000000
928556.000000
929425.000000
930266.000000
931114.000000
932079.000000
932992.000000
933895.000000
934801.000000
935640.000000
936528.000000
937560.000000
938493.000000
939450.000000
940515.000000
941438.000000
942385.000000
943297.000000
944134.000000
944991.000000
945925.000000
946922.000000
948188.000000
949294.000000
950350.000000
951374.000000
952272.000000
953169.000000
954077.000000
954888.000000
955662.000000
956448.000000
957300.000000
958461.000000
959488.000000
960521.000000
961481.000000
962343.000000
963202.000000
963994.000000
964710.000000
965467.000000
966498.000000
967432.000000
968368.000000
969307.000000
970172.000000
971107.000000
972132.000000
973071.000000
974054.000000
975041.000000
975963.000000
976961.000000
977911.000000
978836.000000
979814.000000
980749.000000
981679.000000
982643.000000
983539.000000
984466.000000
985444.000000
986349.000000
987307.000000
988318.000000
989329.000000
990470.000000
991449.000000
992445.000000
993518.000000
994482.000000
995490.000000
996476.000000
997317.000000
998194.000000
999176.000000
1000104.000000
1001047.000000
1002095.000000
1003120.000000
1004262.000000
1005257.000000
1006165.000000
1007082.000000
1007950.000000
1008851.000000
1009836.000000
1010758.000000
1011631.000000
1012672.000000
1013691.000000
1014683.000000
1015654.000000
1016506.000000
1017335.000000
1018245.000000
1019134.000000
1019963.000000
1020904.000000
1021884.000000
1022787.000000
1023729.000000
1024676.000000
1025573.000000
1026410.000000
1027297.000000
1028106.000000
1028844.000000
1029590.000000
1030757.000000
1031741.000000
1032824.000000
1033842.000000
1034782.000000
1035782.000000
1036686.000000
1037523.000000
1038402.000000
1039318.000000
1040150.000000
1041005.000000
1042043.000000
1043011.000000
1044068.000000
1045049.000000
1045962.000000
1046900.000000
1047792.000000
1048623.000000
1049473.000000
1050275.000000
1051112.000000
1052078.000000
1052951.000000
1053810.000000
1054664.000000
1055468.000000
1056271.000000
1057139.000000
1057952.000000
1058787.000000
1059814.000000
1060731.000000
1061635.000000
1062554.000000
1063408.000000
1064318.000000
1065173.000000
1065971.000000
1066790.000000
1067582.000000
1068341.000000
1069107.000000
1070061.000000
1070953.000000
1071862.000000
1072809.000000
1073661.000000
1074600.000000
1075625.000000
1076505.000000
1077412.000000
1078377.000000
1079261.000000
1080145.000000
1081097.000000
1081975.000000
1082815.000000
1083741.000000
1084593.000000
1085384.000000
1086205.000000
1087087.000000
1087882.000000
1088655.000000
1089530.000000
1090365.000000
1091239.000000
1092177.000000
1093089.000000
1094024.000000
1094990.000000
1095829.000000
1096676.000000
1097512.000000
1098314.000000
1099371.000000
1100424.000000
1101401.000000
1102489.000000
1103478.000000
1104482.000000
1105449.000000
1106355.000000
1107313.000000
1108268.000000
1109207.000000
1110309.000000
1111261.000000
1112235.000000
1113178.000000
1113998.000000
1114861.000000
1115827.000000
1116783.000000
1117726.000000
1118648.000000
1119546.000000
1120435.000000
1121296.000000
1122121.000000
1122974.000000
1123723.000000
1124410.000000
1125058.000000
1125707.000000
1126870.000000
1127784.000000
1128731.000000
1129628.000000
1130521.000000
1131441.000000
1132312.000000
1133181.000000
1134052.000000
1134862.000000
1135681.000000
1136673.000000
1137568.000000
1138382.000000
1139274.000000
1140126.000000
1141010.000000
1141970.000000
1142863.000000
1143677.000000
1144659.000000
1145663.000000
1146569.000000
1147500.000000
1148341.000000
1149166.000000
1149963.000000
1150740.000000
1151620.000000
1152564.000000
1153474.000000
1154378.000000
1155309.000000
1156195.000000
1157122.000000
1157984.000000
1158883.000000
1159778.000000
1160573.000000
1161368.000000
1162238.000000
1163021.000000
1163858.000000
1164849.000000
1165700.000000
1166482.000000
1167293.000000
1168074.000000
1168775.000000
1169445.000000
1170095.000000
1170857.000000
1171868.000000
1172733.000000
1173618.000000
1174449.000000
1175207.000000
1175968.000000
1176796.000000
1177547.000000
1178317.000000
1179232.000000
1180099.000000
1181041.000000
1182029.000000
1182900.000000
1183734.000000
1184553.000000
1185305.000000
1186042.000000
1186780.000000
1187585.000000
1188795.000000
1189895.000000
1190866.000000
1191857.000000
1192741.000000
1193494.000000
1194176.000000
1194855.000000
1196108.000000
1197132.000000
1198246.000000
1199315.000000
1200260.000000
1201231.000000
1202145.000000
1202977.000000
1203876.000000
1204810.000000
1205796.000000
1207002.000000
1208060.000000
1209091.000000
1210106.000000
1210995.000000
1211900.000000
1212716.000000
