ECG (ms)
568.000000
1363.000000
2173.000000
2979.000000
3764.000000
4537.000000
5333.000000
6136.000000
6932.000000
7742.000000
8581.000000
9410.000000
10222.000000
11050.000000
11898.000000
12740.000000
13535.000000
14332.000000
15143.000000
15953.000000
16745.000000
17536.000000
18365.000000
19201.000000
20016.000000
20842.000000
21693.000000
22526.000000
23349.000000
24203.000000
25040.000000
25845.000000
26662.000000
27483.000000
28296.000000
29076.000000
29867.000000
30671.000000
31474.000000
32258.000000
33056.000000
33893.000000
34734.000000
35557.000000
36397.000000
37258.000000
38104.000000
38906.000000
39698.000000
40500.000000
41319.000000
42142.000000
42949.000000
43772.000000
44625.000000
45488.000000
46342.000000
47172.000000
48033.000000
48906.000000
49770.000000
50610.000000
51418.000000
52218.000000
53041.000000
53877.000000
54741.000000
55586.000000
56409.000000
57235.000000
58092.000000
58976.000000
59855.000000
60695.000000
61511.000000
62335.000000
63175.000000
64018.000000
64834.000000
65651.000000
66493.000000
67375.000000
68254.000000
69123.000000
69956.000000
70787.000000
71642.000000
72511.000000
73378.000000
74234.000000
75054.000000
75861.000000
76680.000000
77507.000000
78331.000000
79143.000000
79997.000000
80844.000000
81675.000000
82504.000000
83346.000000
84210.000000
85095.000000
85964.000000
86794.000000
87606.000000
88427.000000
89261.000000
90109.000000
90955.000000
91772.000000
92619.000000
93497.000000
94366.000000
95203.000000
96037.000000
96886.000000
97737.000000
98557.000000
99369.000000
100199.000000
101057.000000
101919.000000
102752.000000
103574.000000
104427.000000
105285.000000
106118.000000
106960.000000
107791.000000
108586.000000
109365.000000
110173.000000
110990.000000
111801.000000
112613.000000
113452.000000
114288.000000
115097.000000
115915.000000
116753.000000
117568.000000
118363.000000
119176.000000
119998.000000
120803.000000
121614.000000
122451.000000
123287.000000
124089.000000
124892.000000
125704.000000
126515.000000
127308.000000
128097.000000
128902.000000
129722.000000
130546.000000
131346.000000
132141.000000
132952.000000
133764.000000
134577.000000
135367.000000
136158.000000
136978.000000
137799.000000
138612.000000
139407.000000
140217.000000
141029.000000
141811.000000
142608.000000
143406.000000
144196.000000
144981.000000
145786.000000
146598.000000
147393.000000
148183.000000
148997.000000
149812.000000
150628.000000
151427.000000
152214.000000
153008.000000
153821.000000
154649.000000
155476.000000
156294.000000
157136.000000
157985.000000
158828.000000
159640.000000
160447.000000
161282.000000
162134.000000
162966.000000
163768.000000
164583.000000
165400.000000
166200.000000
166988.000000
167807.000000
168639.000000
169450.000000
170283.000000
171137.000000
171980.000000
172802.000000
173650.000000
174490.000000
175302.000000
176105.000000
176905.000000
177695.000000
178472.000000
179277.000000
180088.000000
180895.000000
181710.000000
182564.000000
183425.000000
184272.000000
185102.000000
185938.000000
186782.000000
187615.000000
188423.000000
189207.000000
189995.000000
190794.000000
191622.000000
192463.000000
193299.000000
194102.000000
194923.000000
195759.000000
196596.000000
197407.000000
198241.000000
199089.000000
199940.000000
200760.000000
201596.000000
202435.000000
203246.000000
204051.000000
204883.000000
205722.000000
206547.000000
207352.000000
208166.000000
208990.000000
209811.000000
210620.000000
211403.000000
212176.000000
212967.000000
213761.000000
214558.000000
215339.000000
216134.000000
216951.000000
217776.000000
218588.000000
219384.000000
220193.000000
221021.000000
221843.000000
222639.000000
223438.000000
224250.000000
225059.000000
225859.000000
226647.000000
227436.000000
228259.000000
229070.000000
229870.000000
230646.000000
231435.000000
232242.000000
233036.000000
233809.000000
234602.000000
235402.000000
236204.000000
236987.000000
237780.000000
238586.000000
239380.000000
240161.000000
240931.000000
241681.000000
242418.000000
243200.000000
243982.000000
244741.000000
245501.000000
246302.000000
247132.000000
247978.000000
248792.000000
249570.000000
250358.000000
251168.000000
251969.000000
252760.000000
253574.000000
254417.000000
255278.000000
256107.000000
256957.000000
257813.000000
258635.000000
259426.000000
260230.000000
261057.000000
261874.000000
262705.000000
263561.000000
264411.000000
265245.000000
266098.000000
266946.000000
267764.000000
268608.000000
269474.000000
270323.000000
271141.000000
271978.000000
272831.000000
273645.000000
274483.000000
275344.000000
276197.000000
277010.000000
277804.000000
278622.000000
279476.000000
280321.000000
281129.000000
281961.000000
282822.000000
283691.000000
284520.000000
285319.000000
286114.000000
286955.000000
287839.000000
288690.000000
289486.000000
290289.000000
291090.000000
291908.000000
292703.000000
293484.000000
294297.000000
295174.000000
296063.000000
296922.000000
297750.000000
298599.000000
299462.000000
300315.000000
301125.000000
301908.000000
302682.000000
303504.000000
304406.000000
305270.000000
306089.000000
306919.000000
307768.000000
308623.000000
309463.000000
310331.000000
311197.000000
312030.000000
312832.000000
313641.000000
314455.000000
315273.000000
316064.000000
316877.000000
317709.000000
318558.000000
319377.000000
320214.000000
321095.000000
321981.000000
322825.000000
323672.000000
324555.000000
325443.000000
326307.000000
327118.000000
327918.000000
328728.000000
329564.000000
330417.000000
331251.000000
332062.000000
332885.000000
333753.000000
334683.000000
335609.000000
336472.000000
337301.000000
338130.000000
338973.000000
339822.000000
340657.000000
341464.000000
342291.000000
343131.000000
343998.000000
344841.000000
345667.000000
346498.000000
347402.000000
348324.000000
349179.000000
350001.000000
350833.000000
351693.000000
352575.000000
353422.000000
354233.000000
355038.000000
355883.000000
356763.000000
357636.000000
358467.000000
359297.000000
360158.000000
361053.000000
361899.000000
362745.000000
363613.000000
364497.000000
365340.000000
366142.000000
366951.000000
367783.000000
368628.000000
369477.000000
370388.000000
371311.000000
372176.000000
373063.000000
373971.000000
374827.000000
375673.000000
376533.000000
377399.000000
378247.000000
379081.000000
379940.000000
380806.000000
381637.000000
382504.000000
383365.000000
384191.000000
385017.000000
385879.000000
386789.000000
387692.000000
388544.000000
389388.000000
390239.000000
391094.000000
391921.000000
392739.000000
393603.000000
394476.000000
395333.000000
396156.000000
396974.000000
397852.000000
398759.000000
399642.000000
400493.000000
401386.000000
402315.000000
403200.000000
404037.000000
404893.000000
405755.000000
406602.000000
407409.000000
408214.000000
409044.000000
409926.000000
410829.000000
411698.000000
412524.000000
413382.000000
414285.000000
415214.000000
416076.000000
416911.000000
417770.000000
418636.000000
419462.000000
420271.000000
421106.000000
421986.000000
422866.000000
423696.000000
424546.000000
425457.000000
426377.000000
427265.000000
428096.000000
428938.000000
429795.000000
430650.000000
431454.000000
432220.000000
432949.000000
433711.000000
434586.000000
435530.000000
436465.000000
437345.000000
438184.000000
439021.000000
439906.000000
440802.000000
441673.000000
442494.000000
443320.000000
444172.000000
445021.000000
445839.000000
446645.000000
447459.000000
448334.000000
449243.000000
450132.000000
451004.000000
451841.000000
452669.000000
453537.000000
454444.000000
455352.000000
456215.000000
457054.000000
457912.000000
458801.000000
459688.000000
460544.000000
461364.000000
462167.000000
462994.000000
463897.000000
464825.000000
465707.000000
466573.000000
467489.000000
468423.000000
469328.000000
470197.000000
471098.000000
472009.000000
472908.000000
473776.000000
474669.000000
475561.000000
476401.000000
477210.000000
478026.000000
478925.000000
479862.000000
480734.000000
481655.000000
482577.000000
483463.000000
484355.000000
485247.000000
486103.000000
486985.000000
487875.000000
488722.000000
489557.000000
490442.000000
491354.000000
492242.000000
493131.000000
494035.000000
494915.000000
495763.000000
496655.000000
497624.000000
498542.000000
499407.000000
500296.000000
501221.000000
502071.000000
502873.000000
503657.000000
504475.000000
505344.000000
506232.000000
507095.000000
507980.000000
508985.000000
509972.000000
510883.000000
511738.000000
512568.000000
513415.000000
514325.000000
515278.000000
516180.000000
517031.000000
517864.000000
518724.000000
519661.000000
520548.000000
521390.000000
522247.000000
523106.000000
523959.000000
524785.000000
525636.000000
526520.000000
527364.000000
528170.000000
528981.000000
529815.000000
530639.000000
531444.000000
532261.000000
533091.000000
533907.000000
534737.000000
535636.000000
536552.000000
537407.000000
538249.000000
539106.000000
539964.000000
540784.000000
541624.000000
542489.000000
543353.000000
544178.000000
545019.000000
545872.000000
546730.000000
547543.000000
548337.000000
549130.000000
549971.000000
550873.000000
551765.000000
552614.000000
553462.000000
554316.000000
555173.000000
555990.000000
556799.000000
557650.000000
558540.000000
559431.000000
560275.000000
561101.000000
561945.000000
562816.000000
563676.000000
564498.000000
565307.000000
566132.000000
567030.000000
567941.000000
568827.000000
569643.000000
570474.000000
571311.000000
572180.000000
573014.000000
573848.000000
574739.000000
575644.000000
576532.000000
577366.000000
578207.000000
579076.000000
579950.000000
580795.000000
581622.000000
582478.000000
583357.000000
584240.000000
585086.000000
585993.000000
586881.000000
587729.000000
588547.000000
589389.000000
590270.000000
591133.000000
591967.000000
592832.000000
593878.000000
594862.000000
595733.000000
596562.000000
597397.000000
598251.000000
599109.000000
599966.000000
600808.000000
601671.000000
602546.000000
603420.000000
604266.000000
605137.000000
606023.000000
606901.000000
607746.000000
608587.000000
609454.000000
610342.000000
611204.000000
612064.000000
612952.000000
613834.000000
614708.000000
615557.000000
616374.000000
617221.000000
618076.000000
618913.000000
619733.000000
620550.000000
621392.000000
622249.000000
623085.000000
623959.000000
624848.000000
625704.000000
626547.000000
627389.000000
628257.000000
629145.000000
630020.000000
630860.000000
631683.000000
632512.000000
633318.000000
634061.000000
634828.000000
635600.000000
636355.000000
637114.000000
637919.000000
638795.000000
639681.000000
640550.000000
641370.000000
642169.000000
642974.000000
643792.000000
644621.000000
645426.000000
646202.000000
646953.000000
647736.000000
648668.000000
649673.000000
650661.000000
651624.000000
652535.000000
653379.000000
654186.000000
655019.000000
655944.000000
656909.000000
657836.000000
658752.000000
659612.000000
660441.000000
661263.000000
662137.000000
663080.000000
664005.000000
664916.000000
665791.000000
666622.000000
667462.000000
668317.000000
669186.000000
670051.000000
670926.000000
671782.000000
672635.000000
673521.000000
674435.000000
675356.000000
676234.000000
677141.000000
678059.000000
678956.000000
679825.000000
680714.000000
681591.000000
682429.000000
683267.000000
684149.000000
685051.000000
685932.000000
686778.000000
687655.000000
688530.000000
689360.000000
690182.000000
691045.000000
691935.000000
692817.000000
693643.000000
694449.000000
695277.000000
696178.000000
697091.000000
697969.000000
698822.000000
699715.000000
700653.000000
701573.000000
702435.000000
703293.000000
704171.000000
705044.000000
705870.000000
706680.000000
707501.000000
708342.000000
709183.000000
710048.000000
710952.000000
711871.000000
712737.000000
713637.000000
714548.000000
715395.000000
716243.000000
717119.000000
718013.000000
718856.000000
719713.000000
720615.000000
721516.000000
722410.000000
723319.000000
724187.000000
725047.000000
725921.000000
726778.000000
727614.000000
728450.000000
729357.000000
730289.000000
731208.000000
732076.000000
732947.000000
733846.000000
734757.000000
735615.000000
736433.000000
737279.000000
738171.000000
739062.000000
739911.000000
740785.000000
741655.000000
742483.000000
743285.000000
744107.000000
744998.000000
745892.000000
746750.000000
747616.000000
748559.000000
749529.000000
750461.000000
751334.000000
752213.000000
753107.000000
753940.000000
754741.000000
755575.000000
756444.000000
757327.000000
758171.000000
759010.000000
759881.000000
760770.000000
761614.000000
762462.000000
763333.000000
764205.000000
765062.000000
765900.000000
766766.000000
767632.000000
768483.000000
769322.000000
770185.000000
771053.000000
771899.000000
772773.000000
773654.000000
774537.000000
775398.000000
776276.000000
777151.000000
777984.000000
778822.000000
779642.000000
780404.000000
781165.000000
781945.000000
782763.000000
783581.000000
784403.000000
785253.000000
786151.000000
787079.000000
787987.000000
788863.000000
789749.000000
790651.000000
791553.000000
792429.000000
793267.000000
794094.000000
794939.000000
795802.000000
796656.000000
797492.000000
798324.000000
799178.000000
800061.000000
800927.000000
801761.000000
802618.000000
803490.000000
804344.000000
805177.000000
806031.000000
806890.000000
807747.000000
808570.000000
809385.000000
810209.000000
811039.000000
811870.000000
812676.000000
813471.000000
814273.000000
815101.000000
815955.000000
816816.000000
817667.000000
818500.000000
819332.000000
820183.000000
821052.000000
821923.000000
822762.000000
823593.000000
824443.000000
825308.000000
826172.000000
827018.000000
827857.000000
828724.000000
829586.000000
830418.000000
831232.000000
832061.000000
832900.000000
833750.000000
834580.000000
835406.000000
836256.000000
837127.000000
837985.000000
838824.000000
839699.000000
840583.000000
841465.000000
842308.000000
843162.000000
844013.000000
844855.000000
845682.000000
846541.000000
847400.000000
848241.000000
849076.000000
849943.000000
850818.000000
851669.000000
852530.000000
853395.000000
854258.000000
855084.000000
855892.000000
856722.000000
857569.000000
858411.000000
859245.000000
860078.000000
860923.000000
861788.000000
862654.000000
863491.000000
864326.000000
865186.000000
866053.000000
866916.000000
867743.000000
868561.000000
869392.000000
870227.000000
871052.000000
871885.000000
872741.000000
873601.000000
874444.000000
875306.000000
876157.000000
876994.000000
877798.000000
878611.000000
879430.000000
880256.000000
881069.000000
881872.000000
882654.000000
883409.000000
884141.000000
885000.000000
885972.000000
886920.000000
887816.000000
888685.000000
889529.000000
890367.000000
891204.000000
892051.000000
892933.000000
893816.000000
894690.000000
895526.000000
896379.000000
897220.000000
898052.000000
898886.000000
899715.000000
900564.000000
901427.000000
902292.000000
903129.000000
903964.000000
904825.000000
905689.000000
906540.000000
907374.000000
908215.000000
909070.000000
909942.000000
910805.000000
911645.000000
912493.000000
913340.000000
914184.000000
915002.000000
915837.000000
916678.000000
917529.000000
918360.000000
919219.000000
920082.000000
920918.000000
921744.000000
922600.000000
923452.000000
924297.000000
925113.000000
925932.000000
926779.000000
927628.000000
928465.000000
929282.000000
930065.000000
930839.000000
931536.000000
932222.000000
932964.000000
933761.000000
934548.000000
935325.000000
936168.000000
937053.000000
937955.000000
938832.000000
939677.000000
940535.000000
941437.000000
942356.000000
943256.000000
944127.000000
944966.000000
945776.000000
946605.000000
947455.000000
948303.000000
949134.000000
949944.000000
950760.000000
951618.000000
952513.000000
953387.000000
954272.000000
955144.000000
955971.000000
956773.000000
957619.000000
958510.000000
959445.000000
960332.000000
961199.000000
962068.000000
962940.000000
963805.000000
964749.000000
965732.000000
966647.000000
967588.000000
968473.000000
969314.000000
970154.000000
971031.000000
971920.000000
972804.000000
973687.000000
974596.000000
975523.000000
976398.000000
977273.000000
978164.000000
979054.000000
979912.000000
980765.000000
981624.000000
982484.000000
983313.000000
984135.000000
984976.000000
985872.000000
986799.000000
987698.000000
988556.000000
989411.000000
990299.000000
991225.000000
992156.000000
993048.000000
993903.000000
994755.000000
995634.000000
996535.000000
997428.000000
998291.000000
999150.000000
1000049.000000
1000968.000000
1001891.000000
1002777.000000
1003622.000000
1004432.000000
1005246.000000
1006084.000000
1006936.000000
1007798.000000
1008632.000000
1009459.000000
1010289.000000
1011144.000000
1011992.000000
1012831.000000
1013658.000000
1014512.000000
1015374.000000
1016250.000000
1017101.000000
1017932.000000
1018784.000000
1019656.000000
1020517.000000
1021362.000000
1022187.000000
1023025.000000
1023864.000000
1024693.000000
1025508.000000
1026326.000000
1027173.000000
1028033.000000
1028907.000000
1029786.000000
1030632.000000
1031472.000000
1032327.000000
1033178.000000
1034036.000000
1034872.000000
1035703.000000
1036572.000000
1037450.000000
1038320.000000
1039159.000000
1039975.000000
1040812.000000
1041656.000000
1042505.000000
1043327.000000
1044160.000000
1045030.000000
1045896.000000
1046777.000000
1047627.000000
1048450.000000
1049250.000000
1050030.000000
1050826.000000
1051703.000000
1052613.000000
1053511.000000
1054314.000000
1055089.000000
1055894.000000
1056699.000000
1057489.000000
1058304.000000
1059187.000000
1060104.000000
1061017.000000
1061916.000000
1062768.000000
1063586.000000
1064385.000000
1065194.000000
1066074.000000
1067024.000000
1067957.000000
1068868.000000
1069727.000000
1070550.000000
1071352.000000
1072172.000000
1073056.000000
1073993.000000
1074933.000000
1075845.000000
1076716.000000
1077553.000000
1078392.000000
1079274.000000
1080179.000000
1081073.000000
1081941.000000
1082801.000000
1083692.000000
1084612.000000
1085498.000000
1086407.000000
1087310.000000
1088135.000000
1088951.000000
1089789.000000
1090629.000000
1091483.000000
1092321.000000
1093202.000000
1094105.000000
1094998.000000
1095853.000000
1096742.000000
1097631.000000
1098505.000000
1099364.000000
1100254.000000
1101137.000000
1101985.000000
1102865.000000
1103743.000000
1104595.000000
1105454.000000
1106312.000000
1107117.000000
1107924.000000
1108752.000000
1109605.000000
1110453.000000
1111348.000000
1112266.000000
1113168.000000
1114083.000000
1115011.000000
1115910.000000
1116784.000000
1117673.000000
1118541.000000
1119378.000000
1120180.000000
1120981.000000
1121813.000000
1122661.000000
1123514.000000
1124358.000000
1125189.000000
1125997.000000
1126785.000000
1127560.000000
1128425.000000
1129377.000000
1130279.000000
1131184.000000
1132101.000000
1133003.000000
1133872.000000
1134706.000000
1135530.000000
1136364.000000
1137221.000000
1138081.000000
1138943.000000
1139798.000000
1140628.000000
1141445.000000
1142256.000000
1143079.000000
1143922.000000
1144795.000000
1145660.000000
1146519.000000
1147377.000000
1148228.000000
1149083.000000
1149940.000000
1150771.000000
1151593.000000
1152414.000000
1153259.000000
1154114.000000
1154981.000000
1155830.000000
1156664.000000
1157509.000000
1158368.000000
1159251.000000
1160140.000000
1161009.000000
1161846.000000
1162684.000000
1163534.000000
1164390.000000
1165252.000000
1166096.000000
1166924.000000
1167776.000000
1168631.000000
1169489.000000
1170337.000000
1171169.000000
1172005.000000
1172858.000000
1173721.000000
1174588.000000
1175441.000000
1176320.000000
1177208.000000
1178091.000000
1178935.000000
1179768.000000
1180625.000000
1181489.000000
1182346.000000
1183189.000000
1184053.000000
1184932.000000
1185801.000000
1186676.000000
1187557.000000
1188403.000000
1189187.000000
1189990.000000
1190827.000000
1191663.000000
1192487.000000
1193328.000000
1194211.000000
