ECG (ms)
133.000000
899.000000
1680.000000
2465.000000
3203.000000
3964.000000
4716.000000
5459.000000
6177.000000
6913.000000
7656.000000
8403.000000
9130.000000
9872.000000
10636.000000
11397.000000
12122.000000
12843.000000
13587.000000
14343.000000
15105.000000
15842.000000
16598.000000
17376.000000
18158.000000
18885.000000
19620.000000
20359.000000
21097.000000
21809.000000
22531.000000
23264.000000
24007.000000
24724.000000
25436.000000
26169.000000
26933.000000
27728.000000
28515.000000
29264.000000
30022.000000
30773.000000
31505.000000
32214.000000
32911.000000
33614.000000
34316.000000
35021.000000
35756.000000
36530.000000
37326.000000
38070.000000
38817.000000
39574.000000
40347.000000
41094.000000
41818.000000
42540.000000
43284.000000
44053.000000
44830.000000
45570.000000
46317.000000
47081.000000
47855.000000
48615.000000
49343.000000
50091.000000
50845.000000
51600.000000
52319.000000
53045.000000
53774.000000
54506.000000
55214.000000
55928.000000
56660.000000
57399.000000
58120.000000
58838.000000
59574.000000
60309.000000
61036.000000
61738.000000
62450.000000
63167.000000
63895.000000
64605.000000
65321.000000
66059.000000
66823.000000
67578.000000
68295.000000
69019.000000
69748.000000
70472.000000
71173.000000
71878.000000
72609.000000
73358.000000
74084.000000
74810.000000
75556.000000
76321.000000
77066.000000
77779.000000
78494.000000
79221.000000
79968.000000
80723.000000
81451.000000
82165.000000
82893.000000
83635.000000
84371.000000
85087.000000
85777.000000
86463.000000
87151.000000
87830.000000
88519.000000
89227.000000
89961.000000
90700.000000
91417.000000
92143.000000
92885.000000
93634.000000
94355.000000
95067.000000
95790.000000
96542.000000
97303.000000
98033.000000
98772.000000
99521.000000
100271.000000
101001.000000
101719.000000
102453.000000
103189.000000
103908.000000
104613.000000
105331.000000
106073.000000
106829.000000
107567.000000
108288.000000
109023.000000
109761.000000
110501.000000
111211.000000
111925.000000
112661.000000
113409.000000
114170.000000
114902.000000
115642.000000
116386.000000
117135.000000
117862.000000
118571.000000
119297.000000
120040.000000
120788.000000
121520.000000
122252.000000
123010.000000
123785.000000
124563.000000
125298.000000
126035.000000
126783.000000
127524.000000
128256.000000
128969.000000
129694.000000
130436.000000
131172.000000
131894.000000
132642.000000
133412.000000
134184.000000
134918.000000
135647.000000
136386.000000
137122.000000
137852.000000
138572.000000
139316.000000
140079.000000
140864.000000
141613.000000
142360.000000
143127.000000
143907.000000
144702.000000
145451.000000
146188.000000
146938.000000
147690.000000
148425.000000
149139.000000
149870.000000
150620.000000
151387.000000
152128.000000
152875.000000
153641.000000
154431.000000
155180.000000
155911.000000
156649.000000
157390.000000
158115.000000
158828.000000
159565.000000
160312.000000
161071.000000
161799.000000
162530.000000
163281.000000
164034.000000
164768.000000
165481.000000
166214.000000
166981.000000
167726.000000
168453.000000
169203.000000
169955.000000
170682.000000
171379.000000
172064.000000
172749.000000
173426.000000
174108.000000
174812.000000
175543.000000
176286.000000
177008.000000
177732.000000
178461.000000
179192.000000
179897.000000
180583.000000
181265.000000
181944.000000
182622.000000
183321.000000
184039.000000
184773.000000
185491.000000
186222.000000
186962.000000
187703.000000
188409.000000
189108.000000
189817.000000
190544.000000
191278.000000
191998.000000
192720.000000
193467.000000
194229.000000
194978.000000
195706.000000
196460.000000
197222.000000
197972.000000
198689.000000
199414.000000
200153.000000
200904.000000
201645.000000
202366.000000
203105.000000
203854.000000
204613.000000
205339.000000
206078.000000
206833.000000
207600.000000
208361.000000
209094.000000
209844.000000
210614.000000
211377.000000
212119.000000
212882.000000
213659.000000
214452.000000
215211.000000
215941.000000
216671.000000
217418.000000
218176.000000
218951.000000
219737.000000
220493.000000
221236.000000
221992.000000
222764.000000
223536.000000
224272.000000
224992.000000
225723.000000
226457.000000
227207.000000
227960.000000
228685.000000
229424.000000
230190.000000
230979.000000
231737.000000
232482.000000
233240.000000
233997.000000
234744.000000
235470.000000
236207.000000
236959.000000
237734.000000
238477.000000
239219.000000
239984.000000
240752.000000
241508.000000
242236.000000
242976.000000
243726.000000
244479.000000
245201.000000
245935.000000
246681.000000
247429.000000
248168.000000
248897.000000
249640.000000
250377.000000
251102.000000
251810.000000
252528.000000
253257.000000
253991.000000
254700.000000
255426.000000
256165.000000
256914.000000
257634.000000
258359.000000
259103.000000
259847.000000
260564.000000
261272.000000
261996.000000
262731.000000
263461.000000
264167.000000
264893.000000
265655.000000
266433.000000
267157.000000
267874.000000
268599.000000
269326.000000
270043.000000
270741.000000
271453.000000
272187.000000
272939.000000
273662.000000
274388.000000
275142.000000
275905.000000
276646.000000
277362.000000
278082.000000
278806.000000
279529.000000
280228.000000
280939.000000
281668.000000
282424.000000
283142.000000
283839.000000
284522.000000
285192.000000
285859.000000
286534.000000
287221.000000
287921.000000
288613.000000
289284.000000
289956.000000
290641.000000
291326.000000
292025.000000
292756.000000
293504.000000
294240.000000
294950.000000
295668.000000
296403.000000
297155.000000
297893.000000
298625.000000
299370.000000
300125.000000
300913.000000
301658.000000
302389.000000
303133.000000
303899.000000
304677.000000
305446.000000
306180.000000
306929.000000
307682.000000
308436.000000
309160.000000
309877.000000
310603.000000
311348.000000
312104.000000
312850.000000
313567.000000
314288.000000
315017.000000
315747.000000
316456.000000
317169.000000
317894.000000
318641.000000
319403.000000
320145.000000
320868.000000
321599.000000
322336.000000
323082.000000
323786.000000
324491.000000
325202.000000
325918.000000
326655.000000
327397.000000
328119.000000
328835.000000
329569.000000
330318.000000
331058.000000
331779.000000
332519.000000
333265.000000
334006.000000
334717.000000
335417.000000
336130.000000
336848.000000
337573.000000
338286.000000
339009.000000
339751.000000
340501.000000
341235.000000
341943.000000
342655.000000
343373.000000
344093.000000
344803.000000
345502.000000
346215.000000
346946.000000
347678.000000
348399.000000
349107.000000
349838.000000
350574.000000
351302.000000
352005.000000
352721.000000
353448.000000
354181.000000
354894.000000
355611.000000
356344.000000
357075.000000
357794.000000
358497.000000
359211.000000
359930.000000
360651.000000
361364.000000
362051.000000
362737.000000
363417.000000
364083.000000
364751.000000
365431.000000
366112.000000
366807.000000
367529.000000
368259.000000
368970.000000
369662.000000
370356.000000
371066.000000
371791.000000
372527.000000
373241.000000
373957.000000
374699.000000
375461.000000
376245.000000
376983.000000
377706.000000
378430.000000
379168.000000
379931.000000
380678.000000
381460.000000
382236.000000
382963.000000
383721.000000
384476.000000
385202.000000
385910.000000
386629.000000
387359.000000
388107.000000
388854.000000
389583.000000
390299.000000
391030.000000
391767.000000
392495.000000
393231.000000
393936.000000
394660.000000
395371.000000
396075.000000
396772.000000
397478.000000
398216.000000
398975.000000
399711.000000
400452.000000
401217.000000
402005.000000
402793.000000
403534.000000
404289.000000
405045.000000
405806.000000
406541.000000
407273.000000
408031.000000
408824.000000
409651.000000
410445.000000
411221.000000
412016.000000
412819.000000
413600.000000
414343.000000
415091.000000
415862.000000
416644.000000
417416.000000
418159.000000
418910.000000
419646.000000
420353.000000
421082.000000
421810.000000
422551.000000
423336.000000
424174.000000
424968.000000
425751.000000
426546.000000
427340.000000
428081.000000
428836.000000
429616.000000
430407.000000
431174.000000
431963.000000
432759.000000
433562.000000
434341.000000
435087.000000
435828.000000
436593.000000
437398.000000
438205.000000
438960.000000
439703.000000
440466.000000
441235.000000
441998.000000
442724.000000
443464.000000
444224.000000
444987.000000
445716.000000
446449.000000
447203.000000
447968.000000
448698.000000
449415.000000
450131.000000
450866.000000
451621.000000
452380.000000
453109.000000
453822.000000
454549.000000
455283.000000
456020.000000
456736.000000
457457.000000
458201.000000
458971.000000
459718.000000
460445.000000
461189.000000
461927.000000
462648.000000
463356.000000
464085.000000
464839.000000
465601.000000
466343.000000
467071.000000
467817.000000
468570.000000
469308.000000
470023.000000
470714.000000
471389.000000
472074.000000
472769.000000
473487.000000
474209.000000
474924.000000
475664.000000
476422.000000
477180.000000
477897.000000
478617.000000
479341.000000
480061.000000
480763.000000
481465.000000
482187.000000
482921.000000
483657.000000
484378.000000
485121.000000
485878.000000
486632.000000
487349.000000
488063.000000
488782.000000
489497.000000
490197.000000
490884.000000
491571.000000
492272.000000
492982.000000
493703.000000
494405.000000
495107.000000
495832.000000
496554.000000
497263.000000
497955.000000
498642.000000
499336.000000
500042.000000
500760.000000
501460.000000
502160.000000
502876.000000
503604.000000
504323.000000
505023.000000
505730.000000
506442.000000
507150.000000
507842.000000
508532.000000
509237.000000
509970.000000
510723.000000
511476.000000
512195.000000
512916.000000
513649.000000
514373.000000
515080.000000
515773.000000
516477.000000
517191.000000
517914.000000
518620.000000
519325.000000
520046.000000
520772.000000
521504.000000
522215.000000
522923.000000
523643.000000
524360.000000
525065.000000
525774.000000
526503.000000
527226.000000
527938.000000
528626.000000
529319.000000
530018.000000
530723.000000
531416.000000
532114.000000
532835.000000
533562.000000
534273.000000
534972.000000
535680.000000
536396.000000
537109.000000
537800.000000
538497.000000
539204.000000
539914.000000
540616.000000
541309.000000
542013.000000
542729.000000
543446.000000
544142.000000
544842.000000
545561.000000
546287.000000
546992.000000
547684.000000
548378.000000
549092.000000
549785.000000
550472.000000
551161.000000
551860.000000
552585.000000
553280.000000
553967.000000
554657.000000
555355.000000
556063.000000
556771.000000
557461.000000
558158.000000
558863.000000
559567.000000
560255.000000
560951.000000
561656.000000
562366.000000
563068.000000
563758.000000
564457.000000
565165.000000
565884.000000
566583.000000
567284.000000
568002.000000
568716.000000
569418.000000
570105.000000
570790.000000
571484.000000
572197.000000
572937.000000
573633.000000
574331.000000
575036.000000
575743.000000
576437.000000
577104.000000
577765.000000
578436.000000
579147.000000
579830.000000
580488.000000
581150.000000
581829.000000
582507.000000
583198.000000
583909.000000
584634.000000
585351.000000
586054.000000
586770.000000
587498.000000
588229.000000
588937.000000
589631.000000
590335.000000
591065.000000
591776.000000
592504.000000
593215.000000
593946.000000
594687.000000
595451.000000
596187.000000
596910.000000
597648.000000
598418.000000
599170.000000
599895.000000
600636.000000
601398.000000
602147.000000
602877.000000
603595.000000
604329.000000
605061.000000
605786.000000
606497.000000
607219.000000
607957.000000
608709.000000
609457.000000
610191.000000
610934.000000
611683.000000
612428.000000
613152.000000
613861.000000
614576.000000
615308.000000
616049.000000
616768.000000
617485.000000
618216.000000
618947.000000
619668.000000
620369.000000
621076.000000
621796.000000
622528.000000
623248.000000
623968.000000
624700.000000
625435.000000
626139.000000
626832.000000
627541.000000
628252.000000
628965.000000
629670.000000
630385.000000
631113.000000
631847.000000
632549.000000
633251.000000
633961.000000
634680.000000
635386.000000
636081.000000
636791.000000
637514.000000
638247.000000
638960.000000
639676.000000
640409.000000
641142.000000
641873.000000
642583.000000
643304.000000
644036.000000
644784.000000
645510.000000
646231.000000
646974.000000
647731.000000
648485.000000
649210.000000
649951.000000
650702.000000
651458.000000
652186.000000
652919.000000
653660.000000
654391.000000
655114.000000
655868.000000
656646.000000
657442.000000
658203.000000
658951.000000
659711.000000
659988.000000
