ECG (ms)
362.000000
1612.000000
2514.000000
3355.000000
4254.000000
5283.000000
6447.000000
7412.000000
8278.000000
9155.000000
10049.000000
10972.000000
11894.000000
12743.000000
13687.000000
14872.000000
15913.000000
16783.000000
17674.000000
18600.000000
19504.000000
20396.000000
21490.000000
22735.000000
23850.000000
24708.000000
25518.000000
26361.000000
27296.000000
28512.000000
29433.000000
30368.000000
31403.000000
32365.000000
33261.000000
34222.000000
35215.000000
36108.000000
36976.000000
37901.000000
38844.000000
39761.000000
40603.000000
41431.000000
42305.000000
43281.000000
44197.000000
45055.000000
45961.000000
46891.000000
47831.000000
48714.000000
49519.000000
50325.000000
51112.000000
51845.000000
52587.000000
53441.000000
54552.000000
55358.000000
56196.000000
57071.000000
57986.000000
58948.000000
59903.000000
60735.000000
61520.000000
62351.000000
63300.000000
64296.000000
65311.000000
66140.000000
66984.000000
67855.000000
68742.000000
69694.000000
70610.000000
71416.000000
72275.000000
73406.000000
74488.000000
75436.000000
76238.000000
77012.000000
77811.000000
78713.000000
79923.000000
80878.000000
81728.000000
82597.000000
83554.000000
84545.000000
85477.000000
86298.000000
87139.000000
88050.000000
89050.000000
89918.000000
90726.000000
91580.000000
92523.000000
93570.000000
94477.000000
95364.000000
96348.000000
97408.000000
98358.000000
99265.000000
100216.000000
101262.000000
102318.000000
103241.000000
104213.000000
105214.000000
106139.000000
106985.000000
107908.000000
109205.000000
110296.000000
111202.000000
112145.000000
113139.000000
114091.000000
114969.000000
115896.000000
116916.000000
117963.000000
118857.000000
119750.000000
120634.000000
121547.000000
122476.000000
123377.000000
124229.000000
125131.000000
126148.000000
127266.000000
128195.000000
129050.000000
129917.000000
130817.000000
131821.000000
132873.000000
133783.000000
134751.000000
135787.000000
136842.000000
137721.000000
138635.000000
139570.000000
140533.000000
141447.000000
142293.000000
143198.000000
144224.000000
145326.000000
146278.000000
147221.000000
148141.000000
148994.000000
149796.000000
150643.000000
151626.000000
152690.000000
153791.000000
154857.000000
155742.000000
156556.000000
157373.000000
158223.000000
159131.000000
159963.000000
160742.000000
161566.000000
162875.000000
164062.000000
164951.000000
165782.000000
166614.000000
167516.000000
168443.000000
169279.000000
170237.000000
171494.000000
172583.000000
173487.000000
174324.000000
175193.000000
176169.000000
177230.000000
178158.000000
179052.000000
179980.000000
180939.000000
181914.000000
182902.000000
183861.000000
184791.000000
185667.000000
186469.000000
187305.000000
188245.000000
189377.000000
190501.000000
191496.000000
192379.000000
193181.000000
194020.000000
194987.000000
196207.000000
197143.000000
197984.000000
198899.000000
200007.000000
201187.000000
202080.000000
202998.000000
203906.000000
204778.000000
205672.000000
206677.000000
207908.000000
208851.000000
209839.000000
210862.000000
211870.000000
212763.000000
213684.000000
214658.000000
215681.000000
216612.000000
217610.000000
218635.000000
219564.000000
220442.000000
221347.000000
222340.000000
223372.000000
224276.000000
225110.000000
225970.000000
226888.000000
227860.000000
228837.000000
229835.000000
230745.000000
231588.000000
232459.000000
233411.000000
234376.000000
235337.000000
236192.000000
237076.000000
237997.000000
238942.000000
239937.000000
240884.000000
241751.000000
242644.000000
243537.000000
244452.000000
245388.000000
246301.000000
247212.000000
248013.000000
248808.000000
249611.000000
250477.000000
251387.000000
252286.000000
253115.000000
254034.000000
255298.000000
256398.000000
257307.000000
258158.000000
258969.000000
259829.000000
260666.000000
261463.000000
262347.000000
263603.000000
264695.000000
265615.000000
266462.000000
267284.000000
268092.000000
268898.000000
269719.000000
270501.000000
271273.000000
272115.000000
272930.000000
273700.000000
274504.000000
275364.000000
276232.000000
277073.000000
277842.000000
278609.000000
279395.000000
280230.000000
281105.000000
281905.000000
282693.000000
283526.000000
284499.000000
285413.000000
286223.000000
287072.000000
287965.000000
288908.000000
289724.000000
290573.000000
291832.000000
292763.000000
293678.000000
294572.000000
295489.000000
296354.000000
297265.000000
298269.000000
299282.000000
300194.000000
301148.000000
302093.000000
302983.000000
303829.000000
304729.000000
305683.000000
306613.000000
307526.000000
308480.000000
309431.000000
310369.000000
311314.000000
312282.000000
313248.000000
314150.000000
314990.000000
315867.000000
316828.000000
317861.000000
318792.000000
319634.000000
320506.000000
321427.000000
322396.000000
323343.000000
324249.000000
325226.000000
326267.000000
327273.000000
328224.000000
329116.000000
329972.000000
330867.000000
331798.000000
332759.000000
333648.000000
334470.000000
335338.000000
336247.000000
337181.000000
338057.000000
338922.000000
339833.000000
340838.000000
341764.000000
342697.000000
343633.000000
344595.000000
345481.000000
346360.000000
347281.000000
348238.000000
349120.000000
349962.000000
350855.000000
351851.000000
352836.000000
353737.000000
354665.000000
355618.000000
356573.000000
357476.000000
358405.000000
359332.000000
360287.000000
361196.000000
362126.000000
363044.000000
363913.000000
364758.000000
365662.000000
366524.000000
367355.000000
368220.000000
369023.000000
369796.000000
370599.000000
371366.000000
372147.000000
372996.000000
374034.000000
374873.000000
375706.000000
376565.000000
377448.000000
378247.000000
379111.000000
380223.000000
381491.000000
382402.000000
383325.000000
384227.000000
385087.000000
385941.000000
387230.000000
388449.000000
389610.000000
390613.000000
391500.000000
392377.000000
393323.000000
394358.000000
395336.000000
396339.000000
397420.000000
398488.000000
399412.000000
400306.000000
401202.000000
402141.000000
403126.000000
404138.000000
405184.000000
406102.000000
407023.000000
407981.000000
408975.000000
409985.000000
410929.000000
411887.000000
412862.000000
413867.000000
414800.000000
415661.000000
416531.000000
417445.000000
418409.000000
419382.000000
420279.000000
421236.000000
422221.000000
423198.000000
424151.000000
425096.000000
426035.000000
426954.000000
427821.000000
428659.000000
429568.000000
430562.000000
431582.000000
432469.000000
433288.000000
434116.000000
434977.000000
435821.000000
436643.000000
437644.000000
438904.000000
439950.000000
440917.000000
441837.000000
442709.000000
443622.000000
444559.000000
445439.000000
446390.000000
447369.000000
448293.000000
449236.000000
450160.000000
451053.000000
451963.000000
452888.000000
453777.000000
454628.000000
455515.000000
456461.000000
457360.000000
458234.000000
459128.000000
460026.000000
460876.000000
461768.000000
462724.000000
463659.000000
464587.000000
465560.000000
466512.000000
467419.000000
468372.000000
469307.000000
470184.000000
471103.000000
472017.000000
472912.000000
473916.000000
474900.000000
475789.000000
476779.000000
477872.000000
478794.000000
479727.000000
480684.000000
481616.000000
482587.000000
483554.000000
484506.000000
485483.000000
486471.000000
487423.000000
488358.000000
489208.000000
490001.000000
490851.000000
491830.000000
492757.000000
493688.000000
494713.000000
495603.000000
496506.000000
497430.000000
498313.000000
499236.000000
500190.000000
501105.000000
502076.000000
503085.000000
504084.000000
505028.000000
505972.000000
506885.000000
507788.000000
508699.000000
509580.000000
510456.000000
511381.000000
512316.000000
513226.000000
514170.000000
515153.000000
516101.000000
517005.000000
517898.000000
518808.000000
519674.000000
520549.000000
521463.000000
522408.000000
523311.000000
524228.000000
525139.000000
526040.000000
526876.000000
527737.000000
528608.000000
529478.000000
530302.000000
531164.000000
532069.000000
532938.000000
533767.000000
534679.000000
535624.000000
536482.000000
537355.000000
538216.000000
539056.000000
539953.000000
540984.000000
542044.000000
542960.000000
543900.000000
544822.000000
545718.000000
546574.000000
547483.000000
548435.000000
549291.000000
550161.000000
551079.000000
551923.000000
552695.000000
553422.000000
554136.000000
554916.000000
556190.000000
557383.000000
558507.000000
559543.000000
560508.000000
561398.000000
562192.000000
563007.000000
563877.000000
565002.000000
566139.000000
567200.000000
568147.000000
569032.000000
569848.000000
570711.000000
571618.000000
572572.000000
573564.000000
574531.000000
575551.000000
576583.000000
577597.000000
578515.000000
579428.000000
580333.000000
581262.000000
582192.000000
583116.000000
584074.000000
585017.000000
585872.000000
586778.000000
587715.000000
588651.000000
589497.000000
590381.000000
591294.000000
592191.000000
593068.000000
593947.000000
594759.000000
595548.000000
596325.000000
597103.000000
597846.000000
598605.000000
599408.000000
600188.000000
601028.000000
601950.000000
602925.000000
603772.000000
604664.000000
605542.000000
606392.000000
607227.000000
608100.000000
609012.000000
609862.000000
610670.000000
611518.000000
612417.000000
613305.000000
614175.000000
615157.000000
616106.000000
617034.000000
617887.000000
618763.000000
619660.000000
620506.000000
621362.000000
622231.000000
623085.000000
623926.000000
624806.000000
625700.000000
626521.000000
627359.000000
628230.000000
629110.000000
629992.000000
630986.000000
632057.000000
632974.000000
633900.000000
634799.000000
635661.000000
636561.000000
637514.000000
638472.000000
639365.000000
640311.000000
641286.000000
642190.000000
643097.000000
643996.000000
644851.000000
645683.000000
646556.000000
647407.000000
648229.000000
649162.000000
650094.000000
650942.000000
651831.000000
652722.000000
653583.000000
654544.000000
655480.000000
656312.000000
657232.000000
658238.000000
659144.000000
660109.000000
661078.000000
661961.000000
662917.000000
663926.000000
664832.000000
665761.000000
666692.000000
667555.000000
668481.000000
669389.000000
670244.000000
671186.000000
672171.000000
673112.000000
673978.000000
674883.000000
675843.000000
676689.000000
677485.000000
678329.000000
679270.000000
680161.000000
681055.000000
682023.000000
682964.000000
683853.000000
684757.000000
685628.000000
686454.000000
687297.000000
688185.000000
689111.000000
689963.000000
690824.000000
691688.000000
692509.000000
693366.000000
694396.000000
695284.000000
696130.000000
697025.000000
697874.000000
698730.000000
699661.000000
700546.000000
701394.000000
702362.000000
703639.000000
704661.000000
705624.000000
706510.000000
707355.000000
708270.000000
709298.000000
710242.000000
711275.000000
712321.000000
713285.000000
714236.000000
715168.000000
716062.000000
716996.000000
717944.000000
718858.000000
719740.000000
720627.000000
721522.000000
722381.000000
723317.000000
724286.000000
725203.000000
726159.000000
727138.000000
728043.000000
728963.000000
729879.000000
730759.000000
731682.000000
732634.000000
733567.000000
734426.000000
735311.000000
736223.000000
737130.000000
738046.000000
738985.000000
739871.000000
740716.000000
741589.000000
742441.000000
743270.000000
744187.000000
745102.000000
746082.000000
747390.000000
748314.000000
749213.000000
750137.000000
751030.000000
751989.000000
753268.000000
754262.000000
755276.000000
756191.000000
757126.000000
758204.000000
759187.000000
760196.000000
761250.000000
762176.000000
763161.000000
764118.000000
765058.000000
766036.000000
767015.000000
768016.000000
769086.000000
770055.000000
770954.000000
771842.000000
772640.000000
773390.000000
774119.000000
774841.000000
775671.000000
776925.000000
778089.000000
779190.000000
780265.000000
781230.000000
782182.000000
783067.000000
783928.000000
784829.000000
785771.000000
786733.000000
787689.000000
788519.000000
789348.000000
790197.000000
791123.000000
792080.000000
792976.000000
793841.000000
794730.000000
795656.000000
796580.000000
797483.000000
798345.000000
799234.000000
800137.000000
801047.000000
801958.000000
802806.000000
803643.000000
804492.000000
805380.000000
806306.000000
807185.000000
808109.000000
809061.000000
810067.000000
811002.000000
811952.000000
812861.000000
813730.000000
814606.000000
815482.000000
816323.000000
817134.000000
817978.000000
818892.000000
819819.000000
820703.000000
821626.000000
822544.000000
823407.000000
824222.000000
825049.000000
825908.000000
826724.000000
827562.000000
828464.000000
829423.000000
830282.000000
831157.000000
832086.000000
832956.000000
833808.000000
834728.000000
835621.000000
836485.000000
837408.000000
838287.000000
839115.000000
840058.000000
841145.000000
842027.000000
842943.000000
843866.000000
844746.000000
845611.000000
846600.000000
847518.000000
848347.000000
849235.000000
850214.000000
851108.000000
852017.000000
852968.000000
853875.000000
854698.000000
855572.000000
856496.000000
857398.000000
858210.000000
859077.000000
859942.000000
860854.000000
861892.000000
862735.000000
863529.000000
864339.000000
865229.000000
866203.000000
867092.000000
867904.000000
868755.000000
869699.000000
870721.000000
871768.000000
872676.000000
873548.000000
874431.000000
875343.000000
876314.000000
877195.000000
878040.000000
878950.000000
879913.000000
880760.000000
881580.000000
882477.000000
883458.000000
884492.000000
885375.000000
886268.000000
887223.000000
888345.000000
889425.000000
890416.000000
891318.000000
892232.000000
893155.000000
894039.000000
894844.000000
895707.000000
896635.000000
897597.000000
898500.000000
899421.000000
900348.000000
901255.000000
902106.000000
902954.000000
903829.000000
904762.000000
905669.000000
906589.000000
907439.000000
908194.000000
908923.000000
909644.000000
910413.000000
911671.000000
912753.000000
913678.000000
914581.000000
915448.000000
916287.000000
917138.000000
918015.000000
918878.000000
919733.000000
920522.000000
921341.000000
922147.000000
922909.000000
923642.000000
924397.000000
925173.000000
925942.000000
926753.000000
927584.000000
928387.000000
929128.000000
929876.000000
930632.000000
931420.000000
932169.000000
932944.000000
933793.000000
934696.000000
935559.000000
936376.000000
937247.000000
938150.000000
938984.000000
939814.000000
940667.000000
941555.000000
942400.000000
943222.000000
944133.000000
945169.000000
946098.000000
946928.000000
947807.000000
948746.000000
949731.000000
950653.000000
951506.000000
952473.000000
953470.000000
954499.000000
955548.000000
956417.000000
957252.000000
958092.000000
959007.000000
960002.000000
960910.000000
961767.000000
962674.000000
963692.000000
964723.000000
965588.000000
966426.000000
967294.000000
968312.000000
969348.000000
970254.000000
971114.000000
972025.000000
973016.000000
973984.000000
974880.000000
975866.000000
977138.000000
978060.000000
978982.000000
979878.000000
980797.000000
981699.000000
982721.000000
983900.000000
984901.000000
985833.000000
986787.000000
987792.000000
988767.000000
989788.000000
990778.000000
991737.000000
992712.000000
993712.000000
994628.000000
995535.000000
996489.000000
997437.000000
998328.000000
999296.000000
1000345.000000
1001263.000000
1002209.000000
1003136.000000
1004028.000000
1004964.000000
1005961.000000
1006987.000000
1007910.000000
1008896.000000
1009924.000000
1010850.000000
1011814.000000
1012793.000000
1013641.000000
1014520.000000
1015403.000000
1016313.000000
1017181.000000
1018142.000000
1019079.000000
1019908.000000
1020736.000000
1021529.000000
1022322.000000
1023291.000000
1024106.000000
1024996.000000
1025953.000000
1026856.000000
1027645.000000
1028455.000000
1029327.000000
1030239.000000
1031176.000000
1032053.000000
1032890.000000
1033746.000000
1034644.000000
1035565.000000
1036432.000000
1037223.000000
1038052.000000
1038962.000000
1039949.000000
1040964.000000
1041881.000000
1042724.000000
1043605.000000
1044576.000000
1045586.000000
1046717.000000
1047696.000000
1048586.000000
1049515.000000
1050508.000000
1051549.000000
1052508.000000
1053428.000000
1054391.000000
1055384.000000
1056393.000000
1057341.000000
1058302.000000
1059246.000000
1060131.000000
1061003.000000
1061922.000000
1062889.000000
1063831.000000
1064670.000000
1065544.000000
1066484.000000
1067413.000000
1068326.000000
1069275.000000
1070248.000000
1071146.000000
1072075.000000
1073029.000000
1073954.000000
1074864.000000
1075810.000000
1076755.000000
1077588.000000
1078394.000000
1079207.000000
1080078.000000
1080864.000000
1081623.000000
1082498.000000
1083373.000000
1084153.000000
1085013.000000
1085985.000000
1086869.000000
1087993.000000
1089135.000000
1090075.000000
1090957.000000
1091818.000000
1092702.000000
1093553.000000
1094346.000000
1095201.000000
1096188.000000
1097382.000000
1098297.000000
1099233.000000
1100154.000000
1101036.000000
1101913.000000
1102861.000000
1103860.000000
1104805.000000
1105749.000000
1106690.000000
1107589.000000
1108448.000000
1109336.000000
1110294.000000
1111152.000000
1112000.000000
1112894.000000
1113869.000000
1114797.000000
1115626.000000
1116506.000000
1117437.000000
1118380.000000
1119283.000000
1120122.000000
1121006.000000
1121929.000000
1122875.000000
1123832.000000
1124727.000000
1125611.000000
1126524.000000
1127461.000000
1128344.000000
1129152.000000
1130001.000000
1130891.000000
1131852.000000
1132830.000000
1133772.000000
1134596.000000
1135430.000000
1136316.000000
1137287.000000
1138234.000000
1139093.000000
1139901.000000
1140742.000000
1141634.000000
1142586.000000
1143477.000000
1144309.000000
1145202.000000
1146133.000000
1147062.000000
1147926.000000
1148821.000000
1149722.000000
1150597.000000
1151441.000000
1152349.000000
1153316.000000
1154184.000000
1155038.000000
1155916.000000
1156774.000000
1157585.000000
1158422.000000
1159271.000000
1160089.000000
1160901.000000
1161754.000000
1162600.000000
1163405.000000
1164237.000000
1165077.000000
1165855.000000
1166587.000000
1167295.000000
1168021.000000
1168788.000000
1169657.000000
1170588.000000
1171492.000000
1172428.000000
1173369.000000
1174277.000000
1175186.000000
1176111.000000
1176921.000000
1177768.000000
1178664.000000
1179602.000000
1180556.000000
1181434.000000
1182264.000000
1183120.000000
1184028.000000
1184963.000000
1185810.000000
1186619.000000
1187493.000000
1188434.000000
1189360.000000
1190196.000000
1190981.000000
1191797.000000
1192668.000000
1193559.000000
1194430.000000
1195277.000000
1196059.000000
1196861.000000
1197708.000000
1198581.000000
1199420.000000
1200237.000000
1201091.000000
1202013.000000
1202881.000000
1203655.000000
1204457.000000
1205276.000000
1206118.000000
1206927.000000
1207696.000000
1208511.000000
1209385.000000
1210291.000000
1211158.000000
1212039.000000
1212924.000000
1213821.000000
1214651.000000
1215493.000000
1216356.000000
1217238.000000
1218105.000000
1218904.000000
1219739.000000
1220610.000000
1221505.000000
1222358.000000
1223215.000000
1224087.000000
1224989.000000
1225822.000000
1226618.000000
1227449.000000
1228314.000000
1229219.000000
1230038.000000
1230872.000000
1231780.000000
1232737.000000
1233627.000000
1234545.000000
1235488.000000
1236394.000000
1237251.000000
1238089.000000
1238928.000000
1239814.000000
1240640.000000
1241428.000000
1242249.000000
1243110.000000
1243924.000000
1244734.000000
1245616.000000
1246520.000000
1247367.000000
1248223.000000
1249096.000000
1249926.000000
1250767.000000
1251638.000000
1252486.000000
1253317.000000
1254193.000000
1255095.000000
1255957.000000
1256869.000000
1257814.000000
1258667.000000
1259520.000000
1260390.000000
1261287.000000
1262123.000000
1263000.000000
1263899.000000
1264759.000000
1265642.000000
1266548.000000
1267415.000000
1268247.000000
1269082.000000
1269948.000000
1270770.000000
1271566.000000
1272422.000000
1273297.000000
1274130.000000
1274995.000000
1275901.000000
1276747.000000
1277596.000000
1278455.000000
1279320.000000
1280156.000000
1281070.000000
1282037.000000
1282883.000000
1283746.000000
1284619.000000
1285514.000000
1286357.000000
1287290.000000
1288543.000000
1289543.000000
1290441.000000
1291329.000000
1292242.000000
1293140.000000
1294124.000000
1295155.000000
1296110.000000
1297066.000000
1298124.000000
1299075.000000
1300066.000000
1301072.000000
1302003.000000
1302948.000000
1303905.000000
1304842.000000
1305762.000000
1306717.000000
1307625.000000
1308476.000000
1309379.000000
1310341.000000
1311329.000000
1312286.000000
1313281.000000
1314253.000000
1315163.000000
1316098.000000
1317044.000000
1317935.000000
1318835.000000
1319778.000000
1320698.000000
1321562.000000
1322476.000000
1323300.000000
1324066.000000
1324807.000000
1325521.000000
1326273.000000
1327189.000000
1328429.000000
1329562.000000
1330650.000000
1331579.000000
1332387.000000
1333140.000000
1333906.000000
1334691.000000
1335432.000000
1336207.000000
1337068.000000
1338015.000000
1338971.000000
1339912.000000
1340820.000000
1341636.000000
1342486.000000
1343346.000000
1344239.000000
1345151.000000
1346112.000000
1346991.000000
1347861.000000
1348747.000000
1349619.000000
1350466.000000
1351403.000000
1352349.000000
1353206.000000
1354035.000000
1354910.000000
1355876.000000
1356860.000000
1357768.000000
1358593.000000
1359501.000000
1360600.000000
1361828.000000
1362851.000000
1363736.000000
1364657.000000
1365588.000000
1366619.000000
1367613.000000
1368637.000000
1369863.000000
1371002.000000
1371965.000000
1372870.000000
1373769.000000
1374676.000000
1375556.000000
1376515.000000
1377595.000000
1378639.000000
1379610.000000
1380496.000000
1381410.000000
1382353.000000
1383283.000000
1384189.000000
1385181.000000
1386197.000000
1387072.000000
1387975.000000
1388956.000000
1389911.000000
1390938.000000
1392046.000000
1393044.000000
1394050.000000
1395039.000000
1395977.000000
1396938.000000
1397899.000000
1398869.000000
1399850.000000
1400810.000000
1401741.000000
1402587.000000
1403455.000000
1404315.000000
1405150.000000
1405958.000000
1406832.000000
1407816.000000
1408687.000000
1409646.000000
1410725.000000
1411640.000000
1412607.000000
1413516.000000
1414364.000000
1415306.000000
1416280.000000
1417142.000000
1418014.000000
1418972.000000
1420065.000000
1420966.000000
1421895.000000
1422843.000000
1423738.000000
1424643.000000
1425709.000000
1426628.000000
1427508.000000
1428463.000000
1429490.000000
1430422.000000
1431413.000000
1432461.000000
1433516.000000
1434484.000000
1435455.000000
1436420.000000
1437384.000000
1438280.000000
1439207.000000
1440088.000000
1440904.000000
1441734.000000
1442740.000000
1443762.000000
1444682.000000
1445709.000000
1446777.000000
1447717.000000
1448668.000000
1449612.000000
1450535.000000
1451501.000000
1452495.000000
1453435.000000
1454274.000000
1455136.000000
1456044.000000
1456940.000000
1457805.000000
1458708.000000
1459546.000000
1460341.000000
1461176.000000
1461988.000000
1462871.000000
1463789.000000
1464639.000000
1465530.000000
1466462.000000
1467305.000000
1468124.000000
1468987.000000
1469899.000000
1470768.000000
1471609.000000
1472537.000000
1473509.000000
1474434.000000
1475637.000000
1476619.000000
1477481.000000
1478335.000000
1479284.000000
1480273.000000
1481244.000000
1482237.000000
1483279.000000
1484268.000000
1485290.000000
1486229.000000
1487132.000000
1488039.000000
1488979.000000
1489863.000000
1490731.000000
1491600.000000
1492514.000000
1493358.000000
1494234.000000
1495183.000000
1496084.000000
1496919.000000
1497770.000000
1498639.000000
1499486.000000
1500291.000000
1501138.000000
1502020.000000
1502857.000000
1503646.000000
1504470.000000
1505320.000000
1506131.000000
1506928.000000
1507766.000000
1508652.000000
1509489.000000
1510358.000000
1511239.000000
1512079.000000
1512918.000000
1513797.000000
1514713.000000
1515562.000000
1516427.000000
1517373.000000
1518338.000000
1519193.000000
1520099.000000
1521033.000000
1521919.000000
1522781.000000
1523652.000000
1524541.000000
1525385.000000
1526266.000000
1527189.000000
1528096.000000
1528931.000000
1529758.000000
1530596.000000
1531398.000000
1532136.000000
1532840.000000
1533549.000000
1534288.000000
1535106.000000
1535903.000000
1536658.000000
1537509.000000
1538349.000000
1539168.000000
1540033.000000
1540962.000000
1541815.000000
1542589.000000
1543391.000000
1544233.000000
1545127.000000
1545983.000000
1546817.000000
1547757.000000
1548810.000000
1549770.000000
1550654.000000
1551450.000000
1552284.000000
1553220.000000
1554235.000000
1555141.000000
1556091.000000
1557350.000000
1558358.000000
1559300.000000
1560214.000000
1561151.000000
1562112.000000
1563142.000000
1564291.000000
1565279.000000
1566249.000000
1567223.000000
1568195.000000
1569083.000000
1570040.000000
1571051.000000
1571967.000000
1572909.000000
1573943.000000
1575029.000000
1575974.000000
1576891.000000
1577840.000000
1578782.000000
1579698.000000
1580681.000000
1581651.000000
1582592.000000
1583570.000000
1584539.000000
1585453.000000
1586397.000000
1587353.000000
1588254.000000
1589205.000000
1590175.000000
1591091.000000
1592046.000000
1592965.000000
1593823.000000
1594733.000000
1595615.000000
1596558.000000
1597576.000000
1598620.000000
1599498.000000
1600360.000000
1601233.000000
1602156.000000
1603116.000000
1604023.000000
1605006.000000
1606041.000000
1607082.000000
1608101.000000
1609072.000000
1610037.000000
1611000.000000
1611941.000000
1612897.000000
1613857.000000
1614781.000000
1615600.000000
1616446.000000
1617346.000000
1618255.000000
1619081.000000
1619950.000000
1620902.000000
1621854.000000
1622728.000000
1623695.000000
1624642.000000
1625492.000000
1626414.000000
1627304.000000
1628182.000000
1628993.000000
1629888.000000
1630896.000000
1631937.000000
1632813.000000
1633621.000000
1634500.000000
1635773.000000
1636913.000000
1637839.000000
1638771.000000
1639726.000000
1640743.000000
1641905.000000
1642952.000000
1643979.000000
1644975.000000
1645990.000000
1647031.000000
1647964.000000
1648803.000000
1649672.000000
1650614.000000
1651643.000000
1652575.000000
1653550.000000
1654600.000000
1655557.000000
1656567.000000
1657522.000000
1658397.000000
1659287.000000
1660207.000000
1661107.000000
1661917.000000
1662816.000000
1663832.000000
1664776.000000
1665672.000000
1666671.000000
1667708.000000
1668675.000000
1669518.000000
1670378.000000
1671260.000000
1672181.000000
1673117.000000
1673995.000000
1674915.000000
1675849.000000
1676759.000000
1677608.000000
1678503.000000
1679436.000000
1680404.000000
1681344.000000
1682211.000000
1683116.000000
1684071.000000
1685052.000000
1685996.000000
1686858.000000
1687730.000000
1688609.000000
1689525.000000
1690372.000000
1691227.000000
1692117.000000
1693074.000000
1694016.000000
1694882.000000
1695775.000000
1696681.000000
1697567.000000
1698425.000000
1699292.000000
1700200.000000
1701174.000000
1702091.000000
1703029.000000
1703980.000000
1704887.000000
1705737.000000
1706634.000000
1707553.000000
1708411.000000
1709307.000000
1710235.000000
1711140.000000
1712049.000000
1713026.000000
1714041.000000
1714970.000000
1715913.000000
1716847.000000
1717733.000000
1718614.000000
1719571.000000
1720610.000000
1721510.000000
1722382.000000
1723291.000000
1724238.000000
1725130.000000
1726064.000000
1727046.000000
1728005.000000
1728905.000000
1729836.000000
1730795.000000
1731756.000000
1732670.000000
1733508.000000
1734309.000000
1735145.000000
1736087.000000
1737089.000000
1738018.000000
1738907.000000
1739853.000000
1740825.000000
1741787.000000
1742708.000000
1743651.000000
1744619.000000
1745591.000000
1746506.000000
1747410.000000
1748321.000000
1749250.000000
1750209.000000
1751097.000000
1751924.000000
1752783.000000
1753663.000000
1754504.000000
1755318.000000
1756230.000000
1757181.000000
1758030.000000
1758910.000000
1759834.000000
1760710.000000
1761547.000000
1762430.000000
1763347.000000
1764191.000000
1765085.000000
1766029.000000
1766910.000000
1767785.000000
1768709.000000
1769664.000000
1770513.000000
1771416.000000
1772322.000000
1773181.000000
1774053.000000
1774986.000000
1775967.000000
1776883.000000
1777895.000000
1778919.000000
1779830.000000
1780745.000000
1781649.000000
1782522.000000
1783367.000000
1784279.000000
1785317.000000
1786310.000000
1787195.000000
1788122.000000
1789047.000000
1789956.000000
1790861.000000
1791802.000000
1792678.000000
1793518.000000
1794410.000000
1795540.000000
1796456.000000
1797335.000000
1798229.000000
1799145.000000
1800021.000000
1800411.000000
