ECG (ms)
985.000000
2219.000000
3442.000000
4654.000000
5874.000000
7098.000000
8324.000000
9552.000000
10780.000000
12007.000000
13235.000000
14458.000000
15694.000000
16924.000000
18159.000000
19402.000000
20644.000000
21880.000000
23123.000000
24359.000000
25589.000000
26823.000000
28063.000000
29296.000000
30530.000000
31762.000000
32989.000000
34214.000000
35439.000000
36656.000000
37878.000000
39099.000000
40318.000000
41534.000000
42760.000000
43985.000000
45212.000000
46433.000000
47662.000000
48896.000000
50126.000000
51363.000000
52602.000000
53830.000000
55053.000000
56282.000000
57502.000000
58718.000000
59936.000000
61143.000000
62350.000000
63555.000000
64752.000000
65957.000000
67159.000000
68359.000000
69572.000000
70791.000000
72012.000000
73228.000000
74456.000000
75689.000000
76920.000000
78140.000000
79364.000000
80589.000000
81821.000000
83064.000000
84306.000000
85544.000000
86791.000000
88028.000000
89260.000000
90496.000000
91729.000000
92953.000000
94184.000000
95411.000000
96640.000000
97870.000000
99095.000000
100320.000000
101543.000000
102761.000000
103973.000000
105181.000000
106389.000000
107596.000000
108810.000000
110019.000000
111228.000000
112437.000000
113641.000000
114847.000000
116060.000000
117275.000000
118492.000000
119699.000000
120909.000000
122115.000000
123329.000000
124546.000000
125772.000000
126999.000000
128226.000000
129453.000000
130683.000000
131920.000000
133151.000000
134386.000000
135618.000000
136847.000000
138078.000000
139309.000000
140539.000000
141763.000000
142987.000000
144203.000000
145417.000000
146632.000000
147851.000000
149078.000000
150303.000000
151526.000000
152753.000000
153978.000000
155212.000000
156436.000000
157653.000000
158869.000000
160087.000000
161311.000000
162511.000000
163550.000000
164523.000000
165545.000000
166756.000000
167880.000000
168915.000000
169992.000000
171224.000000
172448.000000
173682.000000
174918.000000
176171.000000
177427.000000
178683.000000
179946.000000
181207.000000
182460.000000
183717.000000
184967.000000
186220.000000
187474.000000
188734.000000
189993.000000
191251.000000
192504.000000
193763.000000
195033.000000
196293.000000
197555.000000
198811.000000
200068.000000
201317.000000
202558.000000
203801.000000
205043.000000
206290.000000
207533.000000
208775.000000
210026.000000
211279.000000
212537.000000
213799.000000
215059.000000
216314.000000
217567.000000
218818.000000
220067.000000
221314.000000
222560.000000
223807.000000
225050.000000
226291.000000
227535.000000
228776.000000
230015.000000
231253.000000
232500.000000
233742.000000
234987.000000
236226.000000
237467.000000
238704.000000
239949.000000
241192.000000
242437.000000
243685.000000
244931.000000
246171.000000
247410.000000
248644.000000
249841.000000
250912.000000
251981.000000
253160.000000
254423.000000
255662.000000
256899.000000
258146.000000
259400.000000
260653.000000
261902.000000
263153.000000
264402.000000
265656.000000
266918.000000
268180.000000
269442.000000
270694.000000
271956.000000
273218.000000
274477.000000
275750.000000
277024.000000
278291.000000
279556.000000
280816.000000
282069.000000
283325.000000
284574.000000
285817.000000
287062.000000
288305.000000
289543.000000
290785.000000
292027.000000
293266.000000
294504.000000
295739.000000
296973.000000
298203.000000
299433.000000
300662.000000
301896.000000
303125.000000
304356.000000
305591.000000
306819.000000
308052.000000
309284.000000
310513.000000
311736.000000
312954.000000
314170.000000
315386.000000
316592.000000
317797.000000
318985.000000
320094.000000
321097.000000
322158.000000
323359.000000
324551.000000
325755.000000
326963.000000
328189.000000
329410.000000
330642.000000
331877.000000
333113.000000
334353.000000
335608.000000
336861.000000
338119.000000
339374.000000
340630.000000
341883.000000
343138.000000
344385.000000
345626.000000
346874.000000
348115.000000
349356.000000
350607.000000
351857.000000
353101.000000
354338.000000
355574.000000
356804.000000
358037.000000
359266.000000
360498.000000
361735.000000
362967.000000
364202.000000
365430.000000
366654.000000
367879.000000
369095.000000
370316.000000
371534.000000
372751.000000
373973.000000
375197.000000
376423.000000
377655.000000
378886.000000
380115.000000
381347.000000
382578.000000
383816.000000
385058.000000
386295.000000
387531.000000
388766.000000
389995.000000
391225.000000
392457.000000
393685.000000
394912.000000
396144.000000
397372.000000
398600.000000
399831.000000
401062.000000
402297.000000
403537.000000
404772.000000
406010.000000
407254.000000
408490.000000
409736.000000
410976.000000
412217.000000
413458.000000
414701.000000
415951.000000
417203.000000
418452.000000
419705.000000
420962.000000
422213.000000
423469.000000
424721.000000
425968.000000
427215.000000
428459.000000
429699.000000
430939.000000
432179.000000
433419.000000
434657.000000
435888.000000
437119.000000
438354.000000
439589.000000
440817.000000
442011.000000
443192.000000
444275.000000
445413.000000
446661.000000
447897.000000
449139.000000
450396.000000
451648.000000
452899.000000
454151.000000
455404.000000
456659.000000
457908.000000
459156.000000
460412.000000
461667.000000
462921.000000
464177.000000
465432.000000
466685.000000
467940.000000
469189.000000
470442.000000
471701.000000
472952.000000
474206.000000
475458.000000
476706.000000
477952.000000
479198.000000
480443.000000
481690.000000
482941.000000
484185.000000
485433.000000
486684.000000
487931.000000
489173.000000
490413.000000
491651.000000
492890.000000
494127.000000
495378.000000
496623.000000
497870.000000
499121.000000
500371.000000
501626.000000
502879.000000
504125.000000
505357.000000
506581.000000
507798.000000
509011.000000
510223.000000
511446.000000
512678.000000
513912.000000
515153.000000
516388.000000
517594.000000
518652.000000
519726.000000
520908.000000
522150.000000
523361.000000
524583.000000
525812.000000
527046.000000
528276.000000
529512.000000
530752.000000
531991.000000
533227.000000
534471.000000
535715.000000
536963.000000
538216.000000
539473.000000
540725.000000
541975.000000
543214.000000
544450.000000
545690.000000
546929.000000
548169.000000
549411.000000
550654.000000
551895.000000
553138.000000
554374.000000
555615.000000
556851.000000
558080.000000
559304.000000
560526.000000
561742.000000
562961.000000
564180.000000
565400.000000
566619.000000
567845.000000
569067.000000
570281.000000
571493.000000
572708.000000
573928.000000
575147.000000
576365.000000
577589.000000
578820.000000
580048.000000
581282.000000
582491.000000
583529.000000
584572.000000
585596.000000
586772.000000
588024.000000
589251.000000
590489.000000
591726.000000
592972.000000
594213.000000
595462.000000
596720.000000
597979.000000
599241.000000
600506.000000
601771.000000
603024.000000
604281.000000
605526.000000
606776.000000
608026.000000
609273.000000
610530.000000
611780.000000
613009.000000
614246.000000
615477.000000
616712.000000
617963.000000
619228.000000
620493.000000
621763.000000
623037.000000
624307.000000
625577.000000
626851.000000
628112.000000
629365.000000
630620.000000
631871.000000
633130.000000
634378.000000
635637.000000
636899.000000
638158.000000
639425.000000
640686.000000
641949.000000
643216.000000
644480.000000
645746.000000
647010.000000
648270.000000
649533.000000
650783.000000
652045.000000
653307.000000
654570.000000
655836.000000
657098.000000
658358.000000
659625.000000
660889.000000
662150.000000
663412.000000
664667.000000
665912.000000
667163.000000
668408.000000
669656.000000
670902.000000
672155.000000
673405.000000
674650.000000
675898.000000
677143.000000
678385.000000
679626.000000
680858.000000
682093.000000
683323.000000
684550.000000
685787.000000
687023.000000
688260.000000
689497.000000
690730.000000
691971.000000
693216.000000
694463.000000
695720.000000
696978.000000
698236.000000
699491.000000
700740.000000
701986.000000
703232.000000
704470.000000
705708.000000
706956.000000
708202.000000
709447.000000
710694.000000
711935.000000
713172.000000
714417.000000
715652.000000
716888.000000
718117.000000
719348.000000
720575.000000
721808.000000
723032.000000
724248.000000
725465.000000
726682.000000
727904.000000
729127.000000
730343.000000
731562.000000
732791.000000
734022.000000
735259.000000
736500.000000
737742.000000
738984.000000
740220.000000
741454.000000
742684.000000
743918.000000
745144.000000
746369.000000
747589.000000
748811.000000
750038.000000
751270.000000
752503.000000
753740.000000
754982.000000
756221.000000
757463.000000
758717.000000
759968.000000
761216.000000
762473.000000
763723.000000
764967.000000
766214.000000
767461.000000
768707.000000
769960.000000
771213.000000
772466.000000
773721.000000
774972.000000
776223.000000
777475.000000
778735.000000
779991.000000
781247.000000
782507.000000
783765.000000
785015.000000
786257.000000
787504.000000
788745.000000
789986.000000
791221.000000
792453.000000
793690.000000
794923.000000
796157.000000
797392.000000
798623.000000
799850.000000
801077.000000
802310.000000
803539.000000
804766.000000
805991.000000
807212.000000
808438.000000
809658.000000
810864.000000
812018.000000
812984.000000
813951.000000
814987.000000
816218.000000
817443.000000
818675.000000
819906.000000
821142.000000
822383.000000
823626.000000
824876.000000
826120.000000
827362.000000
828611.000000
829863.000000
831122.000000
832389.000000
833656.000000
834924.000000
836195.000000
837463.000000
838729.000000
839998.000000
841262.000000
842526.000000
843791.000000
845051.000000
846303.000000
847545.000000
848779.000000
850008.000000
851242.000000
852473.000000
853715.000000
854967.000000
856224.000000
857482.000000
858738.000000
859994.000000
861260.000000
862537.000000
863813.000000
865088.000000
866375.000000
867658.000000
868928.000000
870187.000000
871435.000000
872678.000000
873916.000000
875144.000000
876384.000000
877612.000000
878848.000000
880084.000000
881330.000000
882587.000000
883839.000000
885102.000000
886361.000000
887618.000000
888865.000000
890115.000000
891365.000000
892613.000000
893868.000000
895128.000000
896387.000000
897643.000000
898911.000000
900172.000000
901436.000000
902704.000000
903965.000000
905208.000000
906277.000000
907276.000000
908311.000000
909555.000000
910799.000000
912050.000000
913306.000000
914568.000000
915820.000000
917075.000000
918326.000000
919599.000000
920873.000000
922142.000000
923417.000000
924687.000000
925953.000000
927215.000000
928476.000000
929727.000000
930980.000000
932227.000000
933471.000000
934712.000000
935954.000000
937198.000000
938445.000000
939698.000000
940949.000000
942205.000000
943465.000000
944717.000000
945961.000000
947202.000000
948442.000000
949673.000000
950903.000000
952132.000000
953359.000000
954585.000000
955812.000000
957031.000000
958256.000000
959489.000000
960728.000000
961969.000000
963209.000000
964454.000000
965700.000000
966943.000000
968178.000000
969419.000000
970643.000000
971874.000000
973110.000000
974350.000000
975602.000000
976843.000000
978086.000000
979337.000000
980591.000000
981855.000000
983118.000000
984379.000000
985643.000000
986905.000000
988165.000000
989422.000000
990683.000000
991940.000000
993199.000000
994452.000000
995704.000000
996953.000000
998199.000000
999440.000000
1000684.000000
1001936.000000
1003187.000000
1004441.000000
1005700.000000
1006949.000000
1008203.000000
1009459.000000
1010707.000000
1011952.000000
1013194.000000
1014436.000000
1015676.000000
1016928.000000
1018170.000000
1019417.000000
1020668.000000
1021918.000000
1023170.000000
1024427.000000
1025675.000000
1026915.000000
1028155.000000
1029394.000000
1030641.000000
1031885.000000
1033130.000000
1034379.000000
1035630.000000
1036881.000000
1038144.000000
1039413.000000
1040671.000000
1041937.000000
1043206.000000
1044475.000000
1045740.000000
1046996.000000
1048251.000000
1049501.000000
1050744.000000
1051992.000000
1053236.000000
1054476.000000
1055724.000000
1056974.000000
1058231.000000
1059492.000000
1060755.000000
1062025.000000
1063299.000000
1064569.000000
1065844.000000
1067119.000000
1068390.000000
1069647.000000
1070892.000000
1072133.000000
1073367.000000
1074608.000000
1075848.000000
1077083.000000
1078315.000000
1079562.000000
1080817.000000
1082089.000000
1083361.000000
1084633.000000
1085910.000000
1087190.000000
1088457.000000
1089732.000000
1091002.000000
1092261.000000
1093514.000000
1094774.000000
1096033.000000
1097301.000000
1098560.000000
1099827.000000
1101103.000000
1102380.000000
1103658.000000
1104935.000000
1106205.000000
1107474.000000
1108743.000000
1110005.000000
1111260.000000
1112508.000000
1113763.000000
1115023.000000
1116287.000000
1117549.000000
1118805.000000
1120059.000000
1121315.000000
1122576.000000
1123834.000000
1125092.000000
1126351.000000
1127603.000000
1128846.000000
1130094.000000
1131334.000000
1132569.000000
1133806.000000
1135045.000000
1136286.000000
1137532.000000
1138779.000000
1140020.000000
1141271.000000
1142519.000000
1143757.000000
1144999.000000
1146233.000000
1147474.000000
1148716.000000
1149970.000000
1151217.000000
1152464.000000
1153725.000000
1154987.000000
1156256.000000
1157529.000000
1158796.000000
1160059.000000
1161322.000000
1162585.000000
1163808.000000
1164804.000000
1165847.000000
1166929.000000
1168188.000000
1169440.000000
1170702.000000
1171958.000000
1173177.000000
1174306.000000
1175378.000000
1176620.000000
1177887.000000
1179142.000000
1180408.000000
1181685.000000
1182968.000000
1184247.000000
1185526.000000
1186812.000000
1188086.000000
1189359.000000
1190639.000000
1191917.000000
1193187.000000
1194449.000000
1195717.000000
1196992.000000
1198271.000000
1199551.000000
1200837.000000
1202119.000000
1203416.000000
