ECG (ms)
804.000000
1745.000000
2832.000000
4034.000000
5251.000000
6238.000000
7304.000000
8489.000000
9744.000000
10789.000000
11767.000000
12918.000000
13926.000000
15000.000000
16112.000000
17056.000000
17915.000000
18903.000000
20032.000000
20986.000000
21887.000000
23019.000000
24112.000000
25078.000000
25950.000000
26866.000000
27832.000000
28801.000000
29693.000000
30588.000000
31572.000000
32608.000000
33546.000000
34439.000000
35371.000000
36202.000000
36956.000000
37672.000000
38553.000000
39465.000000
40367.000000
41218.000000
42079.000000
43076.000000
44102.000000
45227.000000
46193.000000
47112.000000
48089.000000
49104.000000
50152.000000
51104.000000
51977.000000
52904.000000
53954.000000
54964.000000
55902.000000
56960.000000
58158.000000
59329.000000
60379.000000
61302.000000
62318.000000
63425.000000
64527.000000
65502.000000
66654.000000
67803.000000
68817.000000
69909.000000
71067.000000
72111.000000
73117.000000
74174.000000
75261.000000
76337.000000
77310.000000
78124.000000
78901.000000
79743.000000
80995.000000
82081.000000
83077.000000
84182.000000
85262.000000
86284.000000
87185.000000
88167.000000
89245.000000
90363.000000
91316.000000
92205.000000
93211.000000
94299.000000
95476.000000
96531.000000
97572.000000
98616.000000
99556.000000
100506.000000
101542.000000
102660.000000
103647.000000
104537.000000
105544.000000
106562.000000
107518.000000
108380.000000
109341.000000
110398.000000
111445.000000
112292.000000
113099.000000
113854.000000
114604.000000
115661.000000
116486.000000
117304.000000
118290.000000
119336.000000
120245.000000
121148.000000
122171.000000
123193.000000
124055.000000
124958.000000
125918.000000
126869.000000
127723.000000
128629.000000
129586.000000
130544.000000
131388.000000
132301.000000
133273.000000
134208.000000
135068.000000
136028.000000
137017.000000
137909.000000
138806.000000
139797.000000
140701.000000
141568.000000
142510.000000
143531.000000
144491.000000
145358.000000
146330.000000
147288.000000
148189.000000
149056.000000
150001.000000
150977.000000
151865.000000
152713.000000
153639.000000
154611.000000
155604.000000
156539.000000
157575.000000
158622.000000
159626.000000
160534.000000
161541.000000
162626.000000
163679.000000
164598.000000
165633.000000
166732.000000
167735.000000
168647.000000
169776.000000
170875.000000
171899.000000
172950.000000
174034.000000
175098.000000
176130.000000
177058.000000
178053.000000
179126.000000
180210.000000
181216.000000
182124.000000
183155.000000
184265.000000
185335.000000
186279.000000
187386.000000
188532.000000
189616.000000
190520.000000
191560.000000
192664.000000
193656.000000
194558.000000
195648.000000
196799.000000
197777.000000
198666.000000
199661.000000
200844.000000
201822.000000
202729.000000
203576.000000
204353.000000
205268.000000
206301.000000
207186.000000
208344.000000
209552.000000
210641.000000
211578.000000
212552.000000
213584.000000
214621.000000
215531.000000
216494.000000
217601.000000
218632.000000
219582.000000
220649.000000
221705.000000
222675.000000
223587.000000
224675.000000
225727.000000
226719.000000
227709.000000
228757.000000
229843.000000
230796.000000
231795.000000
232859.000000
233929.000000
234876.000000
235914.000000
237051.000000
238083.000000
239048.000000
240010.000000
241108.000000
242148.000000
243092.000000
244234.000000
245422.000000
246530.000000
247497.000000
248630.000000
249761.000000
250779.000000
251706.000000
252726.000000
253967.000000
255077.000000
256092.000000
257202.000000
258343.000000
259372.000000
260259.000000
261285.000000
262435.000000
263463.000000
264484.000000
265641.000000
266701.000000
267682.000000
268730.000000
269827.000000
270800.000000
271771.000000
272838.000000
273863.000000
274775.000000
275769.000000
276842.000000
277795.000000
278693.000000
279715.000000
280751.000000
281624.000000
282487.000000
283277.000000
284025.000000
285310.000000
286350.000000
287217.000000
288159.000000
289206.000000
290187.000000
291111.000000
292171.000000
293270.000000
294303.000000
295202.000000
296187.000000
297319.000000
298393.000000
299423.000000
300495.000000
301554.000000
302501.000000
303535.000000
304574.000000
305541.000000
306438.000000
307504.000000
308654.000000
309744.000000
310677.000000
311711.000000
312794.000000
313829.000000
314736.000000
315771.000000
316827.000000
317862.000000
318766.000000
319720.000000
320758.000000
321744.000000
322582.000000
323474.000000
324407.000000
325328.000000
326176.000000
327123.000000
328084.000000
329013.000000
329878.000000
330824.000000
331808.000000
332699.000000
333563.000000
334508.000000
335423.000000
336284.000000
337211.000000
338174.000000
339092.000000
339946.000000
340847.000000
341785.000000
342670.000000
343497.000000
344380.000000
345306.000000
346213.000000
347066.000000
347956.000000
348922.000000
349821.000000
350656.000000
351464.000000
352207.000000
352964.000000
353847.000000
354669.000000
355439.000000
356290.000000
357211.000000
358170.000000
359038.000000
359924.000000
360859.000000
361807.000000
362672.000000
363503.000000
364390.000000
365322.000000
366258.000000
367133.000000
368028.000000
369007.000000
369953.000000
370813.000000
371720.000000
372684.000000
373709.000000
374599.000000
375579.000000
376588.000000
377574.000000
378478.000000
379651.000000
380778.000000
381848.000000
382801.000000
383960.000000
385054.000000
386015.000000
386982.000000
388056.000000
389249.000000
390231.000000
391201.000000
392256.000000
393242.000000
394156.000000
395282.000000
396475.000000
397461.000000
398382.000000
399371.000000
400407.000000
401316.000000
402303.000000
403365.000000
404389.000000
405279.000000
406235.000000
407274.000000
408291.000000
409260.000000
410366.000000
411483.000000
412570.000000
413535.000000
414579.000000
415667.000000
416715.000000
417684.000000
418715.000000
419885.000000
420974.000000
421977.000000
423063.000000
424223.000000
425308.000000
426322.000000
427348.000000
428465.000000
429541.000000
430537.000000
431484.000000
432686.000000
433800.000000
434714.000000
435655.000000
436784.000000
437896.000000
438895.000000
439716.000000
440498.000000
441291.000000
442521.000000
443507.000000
444486.000000
445577.000000
446607.000000
447508.000000
448449.000000
449474.000000
450530.000000
451489.000000
452372.000000
453362.000000
454397.000000
455402.000000
456332.000000
457378.000000
458501.000000
459500.000000
460397.000000
461383.000000
462406.000000
463395.000000
464281.000000
465280.000000
466284.000000
467228.000000
468183.000000
469222.000000
470239.000000
471125.000000
471999.000000
472943.000000
473920.000000
474791.000000
475665.000000
476673.000000
477652.000000
478544.000000
479587.000000
480616.000000
481530.000000
482429.000000
483413.000000
484381.000000
485251.000000
486149.000000
487075.000000
487975.000000
488774.000000
489547.000000
490285.000000
491098.000000
491936.000000
492722.000000
493599.000000
494524.000000
495388.000000
496221.000000
497114.000000
498022.000000
498861.000000
499690.000000
500578.000000
501423.000000
502201.000000
503027.000000
503865.000000
504703.000000
505487.000000
506350.000000
507233.000000
508068.000000
508872.000000
509722.000000
510609.000000
511466.000000
512274.000000
513121.000000
514008.000000
514838.000000
515628.000000
516487.000000
517408.000000
518278.000000
519100.000000
520008.000000
520917.000000
521764.000000
522615.000000
523545.000000
524475.000000
525328.000000
526221.000000
527242.000000
528194.000000
529052.000000
530012.000000
531125.000000
532160.000000
533072.000000
534088.000000
535123.000000
536063.000000
536912.000000
537898.000000
538941.000000
539867.000000
540811.000000
542053.000000
543244.000000
544220.000000
545076.000000
545816.000000
546683.000000
547902.000000
548914.000000
549801.000000
550858.000000
552022.000000
553143.000000
554137.000000
555051.000000
555896.000000
556680.000000
557549.000000
558832.000000
560022.000000
561003.000000
562003.000000
563023.000000
564012.000000
564945.000000
565849.000000
566819.000000
567703.000000
568607.000000
569531.000000
570359.000000
571137.000000
572002.000000
572958.000000
573886.000000
574741.000000
575607.000000
576597.000000
577639.000000
578543.000000
579438.000000
580398.000000
581352.000000
582275.000000
583120.000000
584046.000000
585071.000000
586131.000000
587190.000000
588141.000000
589188.000000
590269.000000
591288.000000
592215.000000
593219.000000
594378.000000
595522.000000
596533.000000
597485.000000
598540.000000
599686.000000
600757.000000
601696.000000
602729.000000
603871.000000
604940.000000
605890.000000
606908.000000
608035.000000
609186.000000
610174.000000
611084.000000
612102.000000
613238.000000
614297.000000
615206.000000
616232.000000
617339.000000
618441.000000
619343.000000
620223.000000
621043.000000
621809.000000
622561.000000
623343.000000
624379.000000
625320.000000
626121.000000
626908.000000
627657.000000
628453.000000
629323.000000
630103.000000
630960.000000
631885.000000
632835.000000
633665.000000
634506.000000
635395.000000
636337.000000
637245.000000
638098.000000
639026.000000
640033.000000
640935.000000
641799.000000
642774.000000
643740.000000
644641.000000
645504.000000
646477.000000
647533.000000
648495.000000
649402.000000
650455.000000
651496.000000
652428.000000
653383.000000
654398.000000
655381.000000
656253.000000
657187.000000
658410.000000
659552.000000
660471.000000
661420.000000
662401.000000
663425.000000
664339.000000
665637.000000
666864.000000
667852.000000
668904.000000
669994.000000
670991.000000
671938.000000
672992.000000
674113.000000
675142.000000
676124.000000
677251.000000
678332.000000
679359.000000
680338.000000
681469.000000
682589.000000
683586.000000
684538.000000
685615.000000
686790.000000
687792.000000
688893.000000
690074.000000
691191.000000
692173.000000
693187.000000
694271.000000
695295.000000
696237.000000
697473.000000
698635.000000
699658.000000
700696.000000
701782.000000
702844.000000
703800.000000
704779.000000
705897.000000
706993.000000
707936.000000
709002.000000
710165.000000
711155.000000
712083.000000
713070.000000
714284.000000
715324.000000
716310.000000
717466.000000
718601.000000
719541.000000
720505.000000
721604.000000
722687.000000
723618.000000
724678.000000
725840.000000
726858.000000
727720.000000
728544.000000
729318.000000
730082.000000
730851.000000
731582.000000
732311.000000
733292.000000
734217.000000
735048.000000
736115.000000
737249.000000
738223.000000
739120.000000
740126.000000
741157.000000
742107.000000
742970.000000
743895.000000
744904.000000
745891.000000
746836.000000
747980.000000
749176.000000
750197.000000
751155.000000
752368.000000
753513.000000
754541.000000
755500.000000
756626.000000
757745.000000
758760.000000
759796.000000
760944.000000
762025.000000
763049.000000
763971.000000
764969.000000
766075.000000
767110.000000
768059.000000
769161.000000
770302.000000
771300.000000
772232.000000
773321.000000
774405.000000
775339.000000
776155.000000
776930.000000
777691.000000
778959.000000
779980.000000
780887.000000
782009.000000
783135.000000
784082.000000
785077.000000
786092.000000
787007.000000
787852.000000
788809.000000
789829.000000
790787.000000
791637.000000
792734.000000
793938.000000
794930.000000
795853.000000
796858.000000
797851.000000
798731.000000
799552.000000
800328.000000
801079.000000
801998.000000
802880.000000
803674.000000
804751.000000
805935.000000
806922.000000
807901.000000
808903.000000
809869.000000
810761.000000
811782.000000
812806.000000
813802.000000
814704.000000
815845.000000
817020.000000
817992.000000
818985.000000
820121.000000
821247.000000
822214.000000
823375.000000
824525.000000
825566.000000
826553.000000
827676.000000
828770.000000
829820.000000
830795.000000
831898.000000
833013.000000
833953.000000
834876.000000
835986.000000
837191.000000
838167.000000
839109.000000
840356.000000
841548.000000
842642.000000
843606.000000
844880.000000
846136.000000
847354.000000
848420.000000
849561.000000
850789.000000
851899.000000
852839.000000
853902.000000
854929.000000
855898.000000
856712.000000
857496.000000
858311.000000
859622.000000
860904.000000
862082.000000
863004.000000
863829.000000
864563.000000
865351.000000
866603.000000
867725.000000
868737.000000
869948.000000
871052.000000
872082.000000
873114.000000
874201.000000
875297.000000
876344.000000
877307.000000
878449.000000
879621.000000
880670.000000
881682.000000
882803.000000
883883.000000
884877.000000
885881.000000
887046.000000
888133.000000
889108.000000
890119.000000
891227.000000
892235.000000
893131.000000
894137.000000
895250.000000
896233.000000
897159.000000
898342.000000
899491.000000
900456.000000
901371.000000
902373.000000
903610.000000
904632.000000
905644.000000
906738.000000
907759.000000
908659.000000
909899.000000
911024.000000
912012.000000
913101.000000
914209.000000
915237.000000
916165.000000
917257.000000
918442.000000
919425.000000
920448.000000
921644.000000
922803.000000
923800.000000
925007.000000
926196.000000
927179.000000
928129.000000
929271.000000
930476.000000
931539.000000
932725.000000
933838.000000
934743.000000
935764.000000
936831.000000
937799.000000
938742.000000
939762.000000
940796.000000
941689.000000
942684.000000
943794.000000
944834.000000
945700.000000
946673.000000
947734.000000
948737.000000
949634.000000
950667.000000
951803.000000
952806.000000
953698.000000
954635.000000
955569.000000
956446.000000
957288.000000
958173.000000
959072.000000
959874.000000
960622.000000
961382.000000
962113.000000
962855.000000
963762.000000
964629.000000
965458.000000
966388.000000
967397.000000
968403.000000
969319.000000
970241.000000
971192.000000
972200.000000
973155.000000
974022.000000
974962.000000
975949.000000
976918.000000
977759.000000
978678.000000
979929.000000
981127.000000
981996.000000
982793.000000
983646.000000
984899.000000
986111.000000
987201.000000
988148.000000
989325.000000
990443.000000
991502.000000
992512.000000
993585.000000
994724.000000
995779.000000
996786.000000
997818.000000
998912.000000
999952.000000
1000890.000000
1001699.000000
1002501.000000
1003827.000000
1004997.000000
1005911.000000
1006981.000000
1008065.000000
1009085.000000
1009982.000000
1010936.000000
1012017.000000
1013153.000000
1014082.000000
1015010.000000
1015976.000000
1017040.000000
1017947.000000
1019176.000000
1020449.000000
1021464.000000
1022445.000000
1023681.000000
1024785.000000
1025689.000000
1026668.000000
1027912.000000
1029107.000000
1030168.000000
1031392.000000
1032593.000000
1033608.000000
1034621.000000
1035672.000000
1036787.000000
1037809.000000
1038759.000000
1040006.000000
1041261.000000
1042351.000000
1043364.000000
1044480.000000
1045643.000000
1046682.000000
1047632.000000
1048775.000000
1049851.000000
1050865.000000
1051942.000000
1053049.000000
1054154.000000
1055144.000000
1056251.000000
1057408.000000
1058501.000000
1059493.000000
1060547.000000
1061708.000000
1062826.000000
1063801.000000
1064844.000000
1065974.000000
1067071.000000
1068056.000000
1069142.000000
1070263.000000
1071308.000000
1072318.000000
1073448.000000
1074545.000000
1075550.000000
1076630.000000
1077755.000000
1078823.000000
1079793.000000
1080869.000000
1081950.000000
1082945.000000
1083826.000000
1084916.000000
1085989.000000
1087020.000000
1087904.000000
1088711.000000
1089538.000000
1090637.000000
1091577.000000
1092550.000000
1093801.000000
1094960.000000
1095972.000000
1096882.000000
1097883.000000
1099014.000000
1100068.000000
1101084.000000
1102322.000000
1103467.000000
1104502.000000
1105444.000000
1106582.000000
1107786.000000
1108876.000000
1109790.000000
1110889.000000
1111992.000000
1112933.000000
1113959.000000
1115126.000000
1116140.000000
1117111.000000
1118305.000000
1119491.000000
1120485.000000
1121512.000000
1122588.000000
1123642.000000
1124558.000000
1125576.000000
1126653.000000
1127598.000000
1128578.000000
1129869.000000
1131062.000000
1132022.000000
1133067.000000
1134086.000000
1135033.000000
1135942.000000
1137110.000000
1138148.000000
1139124.000000
1140220.000000
1141349.000000
1142389.000000
1143355.000000
1144399.000000
1145525.000000
1146513.000000
1147508.000000
1148730.000000
1149871.000000
1150866.000000
1152080.000000
1153271.000000
1154378.000000
1155524.000000
1156625.000000
1157531.000000
1158339.000000
1159059.000000
1159908.000000
1161207.000000
1162328.000000
1163431.000000
1164651.000000
1165799.000000
1166800.000000
1167843.000000
1168931.000000
1170032.000000
1170975.000000
1172010.000000
1173278.000000
1174498.000000
1175476.000000
1176547.000000
1177762.000000
1178910.000000
1179990.000000
1181172.000000
1182281.000000
1183199.000000
1184348.000000
1185523.000000
1186505.000000
1187332.000000
1188124.000000
1188890.000000
1190161.000000
1191312.000000
1192290.000000
1193441.000000
1194576.000000
