ECG (ms)
201.000000
1057.000000
1918.000000
2759.000000
3595.000000
4461.000000
5326.000000
6160.000000
6988.000000
7833.000000
8647.000000
9462.000000
10300.000000
11112.000000
11919.000000
12758.000000
13594.000000
14419.000000
15247.000000
16095.000000
16954.000000
17798.000000
18645.000000
19511.000000
20384.000000
21247.000000
22087.000000
22926.000000
23777.000000
24632.000000
25494.000000
26343.000000
27165.000000
27979.000000
28803.000000
29632.000000
30466.000000
31302.000000
32117.000000
32932.000000
33778.000000
34638.000000
35493.000000
36318.000000
37128.000000
37949.000000
38771.000000
39580.000000
40402.000000
41254.000000
42095.000000
42913.000000
43741.000000
44575.000000
45399.000000
46220.000000
47071.000000
47931.000000
48788.000000
49634.000000
50480.000000
51349.000000
52213.000000
53082.000000
53933.000000
54770.000000
55626.000000
56506.000000
57371.000000
58200.000000
59016.000000
59842.000000
60662.000000
61454.000000
62237.000000
63021.000000
63811.000000
64622.000000
65442.000000
66261.000000
67094.000000
67951.000000
68821.000000
69681.000000
70532.000000
71403.000000
72279.000000
73157.000000
73997.000000
74844.000000
75703.000000
76570.000000
77442.000000
78293.000000
79122.000000
79966.000000
80817.000000
81671.000000
82497.000000
83317.000000
84150.000000
84995.000000
85847.000000
86677.000000
87518.000000
88397.000000
89251.000000
90082.000000
90930.000000
91781.000000
92605.000000
93466.000000
94333.000000
95184.000000
96012.000000
96865.000000
97729.000000
98581.000000
99403.000000
100246.000000
101094.000000
101933.000000
102750.000000
103571.000000
104416.000000
105261.000000
106078.000000
106890.000000
107717.000000
108541.000000
109337.000000
110144.000000
110968.000000
111787.000000
112608.000000
113462.000000
114323.000000
115180.000000
116022.000000
116878.000000
117737.000000
118584.000000
119414.000000
120251.000000
121087.000000
121923.000000
122738.000000
123552.000000
124388.000000
125226.000000
126063.000000
126885.000000
127731.000000
128586.000000
129417.000000
130224.000000
131029.000000
131822.000000
132595.000000
133377.000000
134166.000000
134946.000000
135768.000000
136612.000000
137457.000000
138289.000000
139144.000000
140004.000000
140868.000000
141711.000000
142546.000000
143389.000000
144225.000000
145059.000000
145881.000000
146705.000000
147567.000000
148438.000000
149305.000000
150158.000000
151008.000000
151886.000000
152780.000000
153648.000000
154494.000000
155334.000000
156168.000000
156968.000000
157768.000000
158591.000000
159433.000000
160259.000000
161082.000000
161937.000000
162780.000000
163608.000000
164411.000000
165224.000000
166021.000000
166802.000000
167569.000000
168337.000000
169122.000000
169923.000000
170720.000000
171524.000000
172354.000000
173205.000000
174061.000000
174906.000000
175773.000000
176640.000000
177507.000000
178353.000000
179203.000000
180067.000000
180936.000000
181781.000000
182629.000000
183500.000000
184379.000000
185258.000000
186128.000000
186967.000000
187812.000000
188663.000000
189522.000000
190386.000000
191237.000000
192076.000000
192922.000000
193808.000000
194705.000000
195562.000000
196405.000000
197260.000000
198106.000000
198933.000000
199790.000000
200658.000000
201495.000000
202380.000000
203264.000000
204104.000000
204943.000000
205800.000000
206642.000000
207482.000000
208333.000000
209186.000000
210021.000000
210854.000000
211690.000000
212506.000000
213316.000000
214140.000000
214958.000000
215799.000000
216662.000000
217543.000000
218425.000000
219316.000000
220183.000000
221058.000000
221928.000000
222800.000000
223639.000000
224470.000000
225331.000000
226201.000000
227070.000000
227915.000000
228757.000000
229646.000000
230538.000000
231384.000000
232209.000000
233048.000000
233882.000000
234689.000000
235502.000000
236321.000000
237113.000000
237898.000000
238687.000000
239482.000000
240301.000000
241138.000000
241980.000000
242478.000000
243700.000000
244584.000000
245442.000000
246277.000000
247138.000000
248023.000000
248903.000000
249785.000000
250640.000000
251492.000000
252353.000000
253221.000000
254072.000000
254916.000000
255781.000000
256667.000000
257551.000000
258431.000000
259264.000000
260085.000000
260912.000000
261714.000000
262519.000000
263333.000000
264188.000000
265052.000000
265916.000000
266768.000000
267611.000000
268468.000000
269341.000000
270209.000000
271072.000000
271958.000000
272861.000000
273770.000000
274650.000000
275528.000000
276429.000000
277336.000000
278247.000000
279151.000000
280052.000000
280947.000000
281817.000000
282699.000000
283586.000000
284479.000000
285354.000000
286206.000000
287054.000000
287927.000000
288811.000000
289705.000000
290564.000000
291410.000000
292283.000000
293154.000000
293996.000000
294838.000000
295712.000000
296561.000000
297418.000000
298306.000000
299168.000000
300013.000000
300876.000000
301733.000000
302571.000000
303405.000000
304258.000000
305120.000000
305982.000000
306850.000000
307701.000000
308555.000000
309417.000000
310279.000000
311149.000000
312001.000000
312875.000000
313765.000000
314661.000000
315530.000000
316396.000000
317294.000000
318193.000000
319066.000000
319923.000000
320820.000000
321704.000000
322544.000000
323368.000000
324198.000000
325008.000000
325803.000000
326611.000000
327411.000000
328204.000000
329002.000000
329800.000000
330584.000000
331371.000000
332156.000000
332950.000000
333767.000000
334593.000000
335429.000000
336257.000000
337104.000000
337961.000000
338825.000000
339672.000000
340517.000000
341376.000000
342236.000000
343076.000000
343934.000000
344798.000000
345677.000000
346549.000000
347402.000000
348245.000000
349131.000000
350038.000000
350952.000000
351838.000000
352708.000000
353614.000000
354529.000000
355404.000000
356251.000000
357077.000000
357917.000000
358722.000000
359528.000000
360368.000000
361189.000000
361998.000000
362821.000000
363667.000000
364500.000000
365346.000000
366210.000000
367084.000000
367939.000000
368791.000000
369650.000000
370523.000000
371416.000000
372322.000000
373229.000000
374130.000000
375028.000000
375937.000000
376851.000000
377763.000000
378659.000000
379517.000000
380398.000000
381288.000000
382186.000000
383079.000000
383916.000000
384741.000000
385573.000000
386407.000000
387206.000000
388011.000000
388804.000000
389608.000000
390435.000000
391284.000000
392110.000000
392952.000000
393838.000000
394747.000000
395655.000000
396559.000000
397440.000000
398320.000000
399219.000000
400127.000000
401054.000000
401976.000000
402886.000000
403763.000000
404652.000000
405547.000000
406439.000000
407331.000000
408201.000000
409060.000000
409931.000000
410812.000000
411651.000000
412510.000000
413396.000000
414243.000000
415080.000000
415937.000000
416798.000000
417633.000000
418513.000000
419387.000000
420250.000000
421086.000000
421932.000000
422789.000000
423651.000000
424514.000000
425405.000000
426316.000000
427231.000000
428125.000000
429027.000000
429933.000000
430826.000000
431687.000000
432543.000000
433041.000000
434305.000000
435145.000000
435983.000000
436860.000000
437758.000000
438650.000000
439523.000000
440383.000000
441266.000000
442111.000000
442960.000000
443833.000000
444669.000000
445512.000000
446369.000000
447209.000000
448080.000000
448943.000000
449776.000000
450603.000000
451437.000000
452276.000000
453108.000000
453947.000000
454804.000000
455679.000000
456546.000000
457425.000000
458316.000000
459211.000000
460092.000000
460944.000000
461803.000000
462682.000000
463555.000000
464396.000000
465227.000000
466082.000000
466941.000000
467777.000000
468622.000000
469516.000000
470431.000000
471335.000000
472198.000000
473095.000000
474003.000000
474864.000000
475692.000000
476509.000000
477304.000000
478099.000000
478886.000000
479676.000000
480498.000000
481336.000000
482178.000000
483026.000000
483887.000000
484774.000000
485684.000000
486595.000000
487489.000000
488385.000000
489298.000000
490214.000000
491128.000000
491991.000000
492859.000000
493737.000000
494629.000000
495524.000000
496413.000000
497278.000000
498167.000000
499075.000000
499982.000000
500851.000000
501724.000000
502607.000000
503478.000000
504326.000000
505201.000000
506090.000000
506934.000000
507795.000000
508673.000000
509510.000000
510370.000000
511227.000000
512062.000000
512889.000000
513751.000000
514624.000000
515494.000000
516352.000000
517224.000000
518101.000000
518983.000000
519846.000000
520680.000000
521536.000000
522393.000000
523244.000000
524081.000000
524913.000000
525762.000000
526639.000000
527486.000000
528334.000000
529215.000000
530090.000000
530941.000000
531817.000000
532691.000000
533560.000000
534420.000000
535266.000000
536120.000000
536968.000000
537807.000000
538639.000000
539480.000000
540333.000000
541178.000000
542035.000000
542920.000000
543813.000000
544682.000000
545542.000000
546415.000000
547279.000000
548131.000000
548951.000000
549753.000000
550554.000000
551324.000000
552084.000000
552834.000000
553593.000000
554367.000000
555141.000000
555938.000000
556778.000000
557619.000000
558462.000000
559330.000000
560214.000000
561079.000000
561955.000000
562840.000000
563723.000000
564608.000000
565490.000000
566354.000000
567203.000000
568071.000000
568943.000000
569821.000000
570672.000000
571514.000000
572372.000000
573237.000000
574087.000000
574927.000000
575761.000000
576641.000000
577532.000000
578373.000000
579195.000000
580040.000000
580844.000000
581643.000000
582423.000000
583215.000000
584033.000000
584853.000000
585668.000000
586499.000000
587349.000000
588209.000000
589064.000000
589919.000000
590802.000000
591692.000000
592594.000000
593486.000000
594353.000000
595227.000000
596122.000000
597032.000000
597952.000000
598869.000000
599756.000000
600659.000000
601565.000000
602478.000000
603355.000000
604223.000000
605116.000000
606023.000000
606932.000000
607812.000000
608673.000000
609537.000000
610411.000000
611269.000000
612119.000000
613016.000000
613925.000000
614830.000000
615687.000000
616548.000000
617430.000000
618323.000000
619199.000000
620029.000000
620848.000000
621684.000000
622518.000000
623331.000000
624141.000000
624948.000000
625772.000000
626623.000000
627457.000000
628290.000000
629145.000000
629990.000000
630820.000000
631654.000000
632483.000000
633302.000000
634108.000000
634929.000000
635758.000000
636594.000000
637419.000000
638254.000000
639109.000000
639955.000000
640792.000000
641635.000000
642496.000000
643354.000000
644216.000000
645062.000000
645925.000000
646793.000000
647657.000000
648509.000000
649352.000000
650228.000000
651115.000000
651963.000000
652798.000000
653645.000000
654456.000000
655252.000000
656056.000000
656862.000000
657653.000000
658448.000000
659260.000000
660071.000000
660879.000000
661717.000000
662561.000000
663407.000000
664246.000000
665077.000000
665929.000000
666786.000000
667632.000000
668468.000000
669293.000000
670130.000000
670985.000000
671850.000000
672711.000000
673554.000000
674416.000000
675294.000000
676179.000000
677050.000000
677894.000000
678771.000000
679641.000000
680500.000000
681344.000000
682207.000000
683068.000000
683917.000000
684762.000000
685621.000000
686490.000000
687344.000000
688184.000000
689032.000000
689885.000000
690702.000000
691514.000000
692309.000000
693117.000000
693914.000000
694710.000000
695522.000000
696358.000000
697198.000000
698031.000000
698878.000000
699754.000000
700639.000000
701530.000000
702423.000000
703299.000000
704185.000000
705081.000000
705966.000000
706846.000000
707721.000000
708568.000000
709410.000000
710271.000000
711130.000000
711996.000000
712841.000000
713681.000000
714538.000000
715399.000000
716231.000000
717071.000000
717923.000000
718779.000000
719636.000000
720495.000000
721394.000000
722269.000000
723142.000000
724000.000000
724843.000000
725696.000000
726552.000000
727391.000000
728220.000000
729076.000000
729939.000000
730797.000000
731628.000000
732439.000000
733241.000000
734049.000000
734856.000000
735660.000000
736466.000000
737298.000000
738144.000000
738982.000000
739841.000000
740713.000000
741582.000000
742441.000000
743314.000000
744190.000000
745076.000000
745955.000000
746822.000000
747704.000000
748588.000000
749461.000000
750335.000000
751209.000000
752086.000000
752951.000000
753814.000000
754702.000000
755588.000000
756452.000000
757301.000000
758171.000000
759040.000000
759878.000000
760700.000000
761515.000000
762331.000000
763118.000000
763900.000000
764668.000000
765442.000000
766227.000000
767022.000000
767829.000000
768683.000000
769555.000000
770428.000000
771293.000000
772164.000000
773051.000000
773936.000000
774811.000000
775700.000000
776598.000000
777503.000000
778406.000000
779292.000000
780151.000000
781005.000000
781870.000000
782735.000000
783584.000000
784437.000000
785304.000000
786180.000000
787035.000000
787906.000000
788787.000000
789654.000000
790492.000000
791339.000000
792185.000000
793017.000000
793833.000000
794663.000000
795498.000000
796324.000000
797169.000000
798039.000000
798919.000000
799769.000000
800611.000000
801474.000000
802346.000000
803206.000000
804050.000000
804889.000000
805730.000000
806575.000000
807401.000000
808233.000000
809085.000000
809938.000000
810768.000000
811597.000000
812434.000000
813270.000000
814080.000000
814884.000000
815698.000000
816487.000000
817270.000000
818042.000000
818815.000000
819599.000000
820398.000000
821191.000000
821997.000000
822828.000000
823680.000000
824543.000000
825401.000000
826271.000000
827155.000000
828043.000000
828895.000000
829747.000000
830627.000000
831521.000000
832420.000000
833311.000000
834176.000000
835038.000000
835918.000000
836795.000000
837666.000000
838513.000000
839372.000000
840261.000000
841149.000000
841977.000000
842787.000000
843607.000000
844402.000000
845194.000000
846000.000000
846802.000000
847599.000000
848442.000000
849309.000000
850168.000000
851008.000000
851882.000000
852769.000000
853657.000000
854522.000000
855395.000000
856273.000000
857141.000000
858016.000000
858889.000000
859762.000000
860638.000000
861507.000000
862384.000000
863266.000000
864125.000000
864981.000000
865853.000000
866748.000000
867616.000000
868454.000000
869303.000000
870156.000000
870976.000000
871783.000000
872601.000000
873398.000000
874188.000000
874971.000000
875749.000000
876541.000000
877354.000000
878174.000000
879001.000000
879860.000000
880742.000000
881626.000000
882493.000000
883364.000000
884238.000000
885090.000000
885939.000000
886790.000000
887639.000000
888482.000000
889321.000000
890183.000000
891051.000000
891928.000000
892777.000000
893633.000000
894506.000000
895373.000000
896223.000000
897063.000000
897926.000000
898784.000000
899624.000000
900460.000000
