ECG (ms)
718.000000
1528.000000
2346.000000
3290.000000
4164.000000
5043.000000
6025.000000
6987.000000
7892.000000
8802.000000
9593.000000
10340.000000
11133.000000
12067.000000
13068.000000
14075.000000
14931.000000
15711.000000
16553.000000
17608.000000
18614.000000
19598.000000
20552.000000
21512.000000
22497.000000
23447.000000
24281.000000
25145.000000
26153.000000
27090.000000
27971.000000
29014.000000
30037.000000
30909.000000
31728.000000
32794.000000
33799.000000
34725.000000
35681.000000
36633.000000
37456.000000
38311.000000
39305.000000
40194.000000
41100.000000
42098.000000
43018.000000
43906.000000
44835.000000
45745.000000
46660.000000
47711.000000
48646.000000
49567.000000
50539.000000
51484.000000
52403.000000
53290.000000
54224.000000
55053.000000
55920.000000
56951.000000
57935.000000
58873.000000
59854.000000
60846.000000
61772.000000
62687.000000
63668.000000
64611.000000
65529.000000
66413.000000
67327.000000
68182.000000
69159.000000
70136.000000
70954.000000
71846.000000
72839.000000
73699.000000
74573.000000
75548.000000
76494.000000
77357.000000
78332.000000
79359.000000
80250.000000
81180.000000
82219.000000
83239.000000
84233.000000
85179.000000
86166.000000
87161.000000
88119.000000
89094.000000
90067.000000
90962.000000
91792.000000
92511.000000
93250.000000
94235.000000
95096.000000
96025.000000
96981.000000
97869.000000
98845.000000
99844.000000
100751.000000
101676.000000
102614.000000
103548.000000
104407.000000
105367.000000
106339.000000
107240.000000
108186.000000
109145.000000
110076.000000
110964.000000
111904.000000
112848.000000
113743.000000
114674.000000
115624.000000
116487.000000
117282.000000
118193.000000
119192.000000
120080.000000
121038.000000
121998.000000
122814.000000
123599.000000
124538.000000
125544.000000
126505.000000
127465.000000
128372.000000
129218.000000
129944.000000
130666.000000
131382.000000
132107.000000
133132.000000
134131.000000
135123.000000
136134.000000
137156.000000
138187.000000
139216.000000
140237.000000
141234.000000
142236.000000
143234.000000
144144.000000
145006.000000
145841.000000
146604.000000
147390.000000
148297.000000
149238.000000
150106.000000
150979.000000
151961.000000
152843.000000
153677.000000
154527.000000
155366.000000
156149.000000
157020.000000
158003.000000
158865.000000
159766.000000
160669.000000
161547.000000
162438.000000
163370.000000
164304.000000
165215.000000
166139.000000
167073.000000
167987.000000
168888.000000
169833.000000
170794.000000
171705.000000
172606.000000
173539.000000
174481.000000
175355.000000
176292.000000
177277.000000
178211.000000
179158.000000
180133.000000
181055.000000
181981.000000
182901.000000
183781.000000
184604.000000
185408.000000
186357.000000
187336.000000
188211.000000
189138.000000
190109.000000
191031.000000
191959.000000
192907.000000
193853.000000
194750.000000
195682.000000
196638.000000
197549.000000
198434.000000
199369.000000
200299.000000
201174.000000
202092.000000
203033.000000
203955.000000
204878.000000
205840.000000
206785.000000
207690.000000
208639.000000
209605.000000
210519.000000
211450.000000
212394.000000
213327.000000
214204.000000
215115.000000
216059.000000
216977.000000
217918.000000
218903.000000
219907.000000
220842.000000
221824.000000
222810.000000
223746.000000
224625.000000
225464.000000
226465.000000
227355.000000
228298.000000
229291.000000
230221.000000
231110.000000
232082.000000
232991.000000
233857.000000
234847.000000
235817.000000
236745.000000
237707.000000
238678.000000
239598.000000
240550.000000
241506.000000
242428.000000
243299.000000
244179.000000
245152.000000
246001.000000
246882.000000
247891.000000
248817.000000
249737.000000
250696.000000
251661.000000
252573.000000
253531.000000
254477.000000
255372.000000
256261.000000
257017.000000
257724.000000
258532.000000
259360.000000
260292.000000
261285.000000
262176.000000
263067.000000
264016.000000
264957.000000
265866.000000
266809.000000
267759.000000
268665.000000
269581.000000
270525.000000
271478.000000
272386.000000
273352.000000
274338.000000
275296.000000
276142.000000
276912.000000
277723.000000
278526.000000
279354.000000
280422.000000
281435.000000
282451.000000
283472.000000
284445.000000
285432.000000
286415.000000
287370.000000
288287.000000
289195.000000
290047.000000
290893.000000
291895.000000
292908.000000
293886.000000
294860.000000
295769.000000
296592.000000
297426.000000
298513.000000
299497.000000
300505.000000
301495.000000
302416.000000
303380.000000
304341.000000
305240.000000
306177.000000
307142.000000
308059.000000
308967.000000
309931.000000
310880.000000
311792.000000
312737.000000
313706.000000
314690.000000
315689.000000
316670.000000
317663.000000
318656.000000
319507.000000
320240.000000
321025.000000
321817.000000
322756.000000
323860.000000
324875.000000
325820.000000
326821.000000
327846.000000
328792.000000
329703.000000
330773.000000
331710.000000
332569.000000
333466.000000
334530.000000
335447.000000
336410.000000
337341.000000
338182.000000
338976.000000
339747.000000
340489.000000
341195.000000
341877.000000
342554.000000
343239.000000
344216.000000
345199.000000
346195.000000
347208.000000
348232.000000
349256.000000
350275.000000
351287.000000
352198.000000
353088.000000
354072.000000
355047.000000
355973.000000
356920.000000
357880.000000
358848.000000
359790.000000
360781.000000
361776.000000
362701.000000
363658.000000
364714.000000
365702.000000
366572.000000
367455.000000
368465.000000
369312.000000
370199.000000
371214.000000
372097.000000
373003.000000
373948.000000
374896.000000
375788.000000
376727.000000
377675.000000
378562.000000
379482.000000
380428.000000
381331.000000
382197.000000
383093.000000
384006.000000
384883.000000
385789.000000
386720.000000
387604.000000
388520.000000
389453.000000
390332.000000
391200.000000
392103.000000
393019.000000
393889.000000
394801.000000
395738.000000
396643.000000
397552.000000
398506.000000
399442.000000
400340.000000
401287.000000
402257.000000
403180.000000
404081.000000
404929.000000
405830.000000
406631.000000
407453.000000
408419.000000
409379.000000
410222.000000
411244.000000
412261.000000
413193.000000
414138.000000
415097.000000
416014.000000
416866.000000
417782.000000
418733.000000
419579.000000
420522.000000
421561.000000
422480.000000
423369.000000
424334.000000
425349.000000
426271.000000
427221.000000
428179.000000
429115.000000
430010.000000
430940.000000
431913.000000
432832.000000
433742.000000
434717.000000
435710.000000
436687.000000
437619.000000
438522.000000
439403.000000
440194.000000
440924.000000
441664.000000
442692.000000
443625.000000
444564.000000
445533.000000
446489.000000
447435.000000
448286.000000
449008.000000
449717.000000
450468.000000
451535.000000
452558.000000
453546.000000
454486.000000
455501.000000
456513.000000
457451.000000
458414.000000
459320.000000
460245.000000
461134.000000
462039.000000
463051.000000
464042.000000
464920.000000
465844.000000
466948.000000
467952.000000
468904.000000
469731.000000
470508.000000
471235.000000
472031.000000
473064.000000
473988.000000
474976.000000
475996.000000
476942.000000
477916.000000
478929.000000
479922.000000
480829.000000
481797.000000
482793.000000
483748.000000
484620.000000
485665.000000
486667.000000
487601.000000
488542.000000
489525.000000
490475.000000
491392.000000
492212.000000
493073.000000
494105.000000
495042.000000
495964.000000
496930.000000
497901.000000
498809.000000
499764.000000
500707.000000
501591.000000
502496.000000
503417.000000
504302.000000
505130.000000
505966.000000
506916.000000
507766.000000
508669.000000
509635.000000
510615.000000
511541.000000
512498.000000
513458.000000
514367.000000
515278.000000
516197.000000
517116.000000
517990.000000
518918.000000
519872.000000
520803.000000
521732.000000
522690.000000
523645.000000
524568.000000
525503.000000
526467.000000
527328.000000
528233.000000
529237.000000
530165.000000
531058.000000
532017.000000
532970.000000
533863.000000
534811.000000
535772.000000
536703.000000
537626.000000
538573.000000
539545.000000
540461.000000
541392.000000
542343.000000
543256.000000
544147.000000
545068.000000
545998.000000
546859.000000
547710.000000
548706.000000
549633.000000
550513.000000
551456.000000
552409.000000
553312.000000
554233.000000
555165.000000
556082.000000
556939.000000
557768.000000
558520.000000
559234.000000
559989.000000
560802.000000
561707.000000
562727.000000
563632.000000
564472.000000
565207.000000
565918.000000
566627.000000
567402.000000
568446.000000
569454.000000
570483.000000
571506.000000
572530.000000
573548.000000
574568.000000
575531.000000
576457.000000
577235.000000
577996.000000
578977.000000
579886.000000
580738.000000
581586.000000
582485.000000
583430.000000
584312.000000
585237.000000
586265.000000
587262.000000
588187.000000
589158.000000
590132.000000
591063.000000
591967.000000
592922.000000
593909.000000
594842.000000
595811.000000
596805.000000
597796.000000
598726.000000
599671.000000
600635.000000
601527.000000
602391.000000
603429.000000
604406.000000
605337.000000
606276.000000
607247.000000
608190.000000
609144.000000
610140.000000
611107.000000
611983.000000
612911.000000
613931.000000
614834.000000
615770.000000
616798.000000
617792.000000
618706.000000
619666.000000
620676.000000
621539.000000
622345.000000
623096.000000
623804.000000
624591.000000
625574.000000
626483.000000
627445.000000
628429.000000
629354.000000
630318.000000
631293.000000
632218.000000
633117.000000
634045.000000
635021.000000
635877.000000
636752.000000
637763.000000
638688.000000
639601.000000
640558.000000
641515.000000
642434.000000
643409.000000
644375.000000
645311.000000
646287.000000
647262.000000
648197.000000
649114.000000
650061.000000
651024.000000
651937.000000
652828.000000
653827.000000
654796.000000
655733.000000
656702.000000
657668.000000
658601.000000
659554.000000
660493.000000
661420.000000
662327.000000
663271.000000
664258.000000
665188.000000
666138.000000
667112.000000
668087.000000
668961.000000
669836.000000
670880.000000
671821.000000
672698.000000
673629.000000
674553.000000
675352.000000
676144.000000
676902.000000
677688.000000
678704.000000
679578.000000
680510.000000
681454.000000
682338.000000
683253.000000
684201.000000
685123.000000
686009.000000
686947.000000
687901.000000
688843.000000
689732.000000
690667.000000
691623.000000
692537.000000
693511.000000
694487.000000
695411.000000
696312.000000
697264.000000
698227.000000
699136.000000
700060.000000
701010.000000
701960.000000
702867.000000
703806.000000
704749.000000
705645.000000
706429.000000
707203.000000
708043.000000
708997.000000
710020.000000
711000.000000
711925.000000
712872.000000
713825.000000
714779.000000
715664.000000
716544.000000
717531.000000
718466.000000
719379.000000
720344.000000
721308.000000
722194.000000
723174.000000
724194.000000
725169.000000
726096.000000
727062.000000
728032.000000
728962.000000
729833.000000
730762.000000
731772.000000
732699.000000
733629.000000
734597.000000
735503.000000
736328.000000
737214.000000
738250.000000
739152.000000
740085.000000
741036.000000
741942.000000
742846.000000
743780.000000
744748.000000
745579.000000
746513.000000
747543.000000
748445.000000
749247.000000
750090.000000
751063.000000
751978.000000
752909.000000
753923.000000
754858.000000
755743.000000
756612.000000
757458.000000
758439.000000
759408.000000
760235.000000
760987.000000
761691.000000
762453.000000
763244.000000
763991.000000
764728.000000
765473.000000
766238.000000
767013.000000
767849.000000
768699.000000
769480.000000
770256.000000
771010.000000
771745.000000
772446.000000
773135.000000
773839.000000
774588.000000
775371.000000
776160.000000
776975.000000
777796.000000
778624.000000
779465.000000
780272.000000
780993.000000
781694.000000
782423.000000
783369.000000
784320.000000
785280.000000
786201.000000
787220.000000
788225.000000
789224.000000
790167.000000
791154.000000
792132.000000
793050.000000
793910.000000
794816.000000
795786.000000
796618.000000
797573.000000
798625.000000
799531.000000
800481.000000
801408.000000
802303.000000
803211.000000
804173.000000
805074.000000
806037.000000
807007.000000
807949.000000
808893.000000
809873.000000
810859.000000
811842.000000
812834.000000
813807.000000
814708.000000
815549.000000
816449.000000
817368.000000
818245.000000
819279.000000
820223.000000
821132.000000
822105.000000
823075.000000
823995.000000
824944.000000
825912.000000
826869.000000
827780.000000
828731.000000
829710.000000
830662.000000
831620.000000
832612.000000
833606.000000
834541.000000
835504.000000
836484.000000
837434.000000
838371.000000
839332.000000
840311.000000
841175.000000
842095.000000
843141.000000
844115.000000
845058.000000
846047.000000
847025.000000
847980.000000
848940.000000
849945.000000
850935.000000
851863.000000
852829.000000
853795.000000
854726.000000
855661.000000
856631.000000
857602.000000
858524.000000
859483.000000
860461.000000
861415.000000
862349.000000
863336.000000
864300.000000
865224.000000
866201.000000
867184.000000
868113.000000
869032.000000
869950.000000
870899.000000
871745.000000
872652.000000
873676.000000
874595.000000
875532.000000
876528.000000
877435.000000
878325.000000
879308.000000
880320.000000
881210.000000
882171.000000
883188.000000
884138.000000
885182.000000
886179.000000
887103.000000
888071.000000
889063.000000
890005.000000
890981.000000
891974.000000
892957.000000
893910.000000
894901.000000
895891.000000
896810.000000
897784.000000
898777.000000
899712.000000
900650.000000
901643.000000
902646.000000
903601.000000
904556.000000
905540.000000
906560.000000
907451.000000
908359.000000
909387.000000
910392.000000
911322.000000
912350.000000
913360.000000
914308.000000
915295.000000
916286.000000
917248.000000
918083.000000
918999.000000
920086.000000
921084.000000
922029.000000
923009.000000
924000.000000
924980.000000
925932.000000
926920.000000
927907.000000
928886.000000
929829.000000
930732.000000
931693.000000
932707.000000
933598.000000
934513.000000
935521.000000
936531.000000
937424.000000
938414.000000
939419.000000
940362.000000
941334.000000
942324.000000
943277.000000
944239.000000
945188.000000
946135.000000
947013.000000
947929.000000
948752.000000
949547.000000
950552.000000
951467.000000
952478.000000
953545.000000
954523.000000
955485.000000
