ECG (ms)
682.000000
1440.000000
2182.000000
2910.000000
3658.000000
4429.000000
5197.000000
5956.000000
6716.000000
7477.000000
8203.000000
8944.000000
9688.000000
10424.000000
11158.000000
11873.000000
12582.000000
13289.000000
13986.000000
14672.000000
15383.000000
16105.000000
16847.000000
17585.000000
18321.000000
19049.000000
19772.000000
20493.000000
21202.000000
21909.000000
22600.000000
23271.000000
23947.000000
24630.000000
25329.000000
26052.000000
26797.000000
27564.000000
28319.000000
29058.000000
29789.000000
30530.000000
31252.000000
31962.000000
32650.000000
33332.000000
34020.000000
34717.000000
35422.000000
36130.000000
36854.000000
37585.000000
38295.000000
38993.000000
39703.000000
40402.000000
41089.000000
41784.000000
42481.000000
43168.000000
43842.000000
44505.000000
45164.000000
45826.000000
46490.000000
47168.000000
47853.000000
48541.000000
49211.000000
49890.000000
50558.000000
51234.000000
51907.000000
52578.000000
53250.000000
53920.000000
54608.000000
55302.000000
56008.000000
56730.000000
57456.000000
58168.000000
58864.000000
59561.000000
60247.000000
60921.000000
61602.000000
62313.000000
63008.000000
63681.000000
64355.000000
65044.000000
65722.000000
66404.000000
67107.000000
67799.000000
68488.000000
69202.000000
69900.000000
70583.000000
71261.000000
71941.000000
72606.000000
73268.000000
73924.000000
74596.000000
75269.000000
75940.000000
76627.000000
77312.000000
77987.000000
78661.000000
79335.000000
80002.000000
80656.000000
81308.000000
81949.000000
82591.000000
83237.000000
83874.000000
84502.000000
85122.000000
85738.000000
86384.000000
87040.000000
87690.000000
88348.000000
89016.000000
89704.000000
90389.000000
91064.000000
91766.000000
92512.000000
93259.000000
93986.000000
94736.000000
95488.000000
96220.000000
96940.000000
97680.000000
98424.000000
99167.000000
99882.000000
100596.000000
101309.000000
102017.000000
102725.000000
103443.000000
104182.000000
104948.000000
105727.000000
106504.000000
107250.000000
107989.000000
108738.000000
109483.000000
110221.000000
110965.000000
111688.000000
112396.000000
113103.000000
113809.000000
114518.000000
115220.000000
115928.000000
116658.000000
117386.000000
118096.000000
118783.000000
119466.000000
120161.000000
120859.000000
121543.000000
122230.000000
122932.000000
123635.000000
124324.000000
125022.000000
125733.000000
126436.000000
127125.000000
127800.000000
128478.000000
129185.000000
129886.000000
130594.000000
131325.000000
132019.000000
132681.000000
133359.000000
134054.000000
134799.000000
135561.000000
136342.000000
137111.000000
137877.000000
138635.000000
139384.000000
140126.000000
140870.000000
141594.000000
142289.000000
142992.000000
143726.000000
144478.000000
145209.000000
145970.000000
146717.000000
147441.000000
148172.000000
148891.000000
149585.000000
150302.000000
151037.000000
151768.000000
152481.000000
153165.000000
153840.000000
154538.000000
155246.000000
155952.000000
156641.000000
157333.000000
158050.000000
158787.000000
159511.000000
160213.000000
160946.000000
161662.000000
162357.000000
163019.000000
163660.000000
164306.000000
164970.000000
165683.000000
166426.000000
167172.000000
167935.000000
168704.000000
169452.000000
170170.000000
170902.000000
171641.000000
172403.000000
173158.000000
173891.000000
174619.000000
175343.000000
176062.000000
176788.000000
177512.000000
178236.000000
178946.000000
179681.000000
180431.000000
181175.000000
181892.000000
182603.000000
183362.000000
184108.000000
184825.000000
185521.000000
186218.000000
186927.000000
187643.000000
188334.000000
189069.000000
189842.000000
190598.000000
191338.000000
192099.000000
192847.000000
193584.000000
194287.000000
194989.000000
195698.000000
196393.000000
197065.000000
197738.000000
198439.000000
199148.000000
199859.000000
200558.000000
201271.000000
202002.000000
202744.000000
203431.000000
204113.000000
204810.000000
205523.000000
206230.000000
206931.000000
207649.000000
208384.000000
209113.000000
209824.000000
210558.000000
211321.000000
212061.000000
212776.000000
213479.000000
214192.000000
214952.000000
215675.000000
216392.000000
217152.000000
217873.000000
218578.000000
219274.000000
219978.000000
220685.000000
221383.000000
222059.000000
222750.000000
223468.000000
224156.000000
224822.000000
225493.000000
226191.000000
226900.000000
227608.000000
228303.000000
229003.000000
229736.000000
230488.000000
231224.000000
231986.000000
232704.000000
233413.000000
234097.000000
234799.000000
235529.000000
236296.000000
237055.000000
237784.000000
238500.000000
239200.000000
239888.000000
240572.000000
241306.000000
242085.000000
242828.000000
243582.000000
244367.000000
245133.000000
245901.000000
246638.000000
247367.000000
248088.000000
248817.000000
249528.000000
250217.000000
250888.000000
251565.000000
252252.000000
252937.000000
253674.000000
254434.000000
255174.000000
255899.000000
256624.000000
257338.000000
258065.000000
258779.000000
259524.000000
260257.000000
260952.000000
261630.000000
262313.000000
263022.000000
263726.000000
264409.000000
265101.000000
265808.000000
266548.000000
267276.000000
267985.000000
268704.000000
269440.000000
270177.000000
270895.000000
271594.000000
272313.000000
273037.000000
273751.000000
274440.000000
275118.000000
275803.000000
276493.000000
277227.000000
277963.000000
278702.000000
279443.000000
280177.000000
280890.000000
281588.000000
282311.000000
283050.000000
283795.000000
284499.000000
285201.000000
285918.000000
286658.000000
287365.000000
288093.000000
288832.000000
289586.000000
290324.000000
291048.000000
291759.000000
292452.000000
293129.000000
293851.000000
294604.000000
295350.000000
296076.000000
296785.000000
297484.000000
298199.000000
298936.000000
299672.000000
300383.000000
301094.000000
301789.000000
302505.000000
303250.000000
303992.000000
304732.000000
305449.000000
306204.000000
306957.000000
307665.000000
308356.000000
309065.000000
309811.000000
310594.000000
311329.000000
312041.000000
312776.000000
313522.000000
314282.000000
315024.000000
315730.000000
316419.000000
317119.000000
317842.000000
318611.000000
319333.000000
320029.000000
320737.000000
321487.000000
322245.000000
322983.000000
323709.000000
324445.000000
325163.000000
325860.000000
326549.000000
327242.000000
327934.000000
328605.000000
329290.000000
329985.000000
330689.000000
331382.000000
332070.000000
332774.000000
333496.000000
334221.000000
334927.000000
335607.000000
336292.000000
336986.000000
337671.000000
338351.000000
339029.000000
339728.000000
340433.000000
341115.000000
341786.000000
342469.000000
343160.000000
343838.000000
344510.000000
345173.000000
345847.000000
346512.000000
347180.000000
347865.000000
348567.000000
349247.000000
349914.000000
350584.000000
351258.000000
351932.000000
352609.000000
353287.000000
353991.000000
354703.000000
355389.000000
356060.000000
356748.000000
357446.000000
358158.000000
358848.000000
359519.000000
360197.000000
360881.000000
361548.000000
362195.000000
362845.000000
363522.000000
364227.000000
364906.000000
365594.000000
366294.000000
366995.000000
367676.000000
368345.000000
369024.000000
369722.000000
370411.000000
371086.000000
371749.000000
372424.000000
373112.000000
373793.000000
374454.000000
375115.000000
375787.000000
376495.000000
377197.000000
377900.000000
378609.000000
379315.000000
380002.000000
380691.000000
381408.000000
382118.000000
382811.000000
383499.000000
384194.000000
384894.000000
385567.000000
386241.000000
386921.000000
387602.000000
388270.000000
388935.000000
389592.000000
390266.000000
390953.000000
391631.000000
392326.000000
393048.000000
393761.000000
394444.000000
395127.000000
395811.000000
396504.000000
397198.000000
397893.000000
398598.000000
399347.000000
400082.000000
400788.000000
401479.000000
402175.000000
402876.000000
403591.000000
404294.000000
404987.000000
405686.000000
406403.000000
407090.000000
407762.000000
408430.000000
409123.000000
409832.000000
410534.000000
411230.000000
411958.000000
412686.000000
413403.000000
414105.000000
414809.000000
415525.000000
416226.000000
416912.000000
417591.000000
418273.000000
418960.000000
419653.000000
420334.000000
421003.000000
421671.000000
422362.000000
423078.000000
423805.000000
424513.000000
425194.000000
425885.000000
426573.000000
427252.000000
427944.000000
428630.000000
429302.000000
429987.000000
430700.000000
431395.000000
432088.000000
432787.000000
433504.000000
434220.000000
434907.000000
435584.000000
436278.000000
436977.000000
437666.000000
438346.000000
439053.000000
439800.000000
440510.000000
441207.000000
441930.000000
442664.000000
443384.000000
444081.000000
444778.000000
445485.000000
446182.000000
446855.000000
447523.000000
448196.000000
448877.000000
449585.000000
450269.000000
450953.000000
451641.000000
452329.000000
452992.000000
453654.000000
454328.000000
455012.000000
455672.000000
456328.000000
456979.000000
457646.000000
458299.000000
458943.000000
459592.000000
460283.000000
461014.000000
461748.000000
462511.000000
463271.000000
464010.000000
464735.000000
465455.000000
466173.000000
466883.000000
467555.000000
468226.000000
468906.000000
469622.000000
470363.000000
471072.000000
471771.000000
472485.000000
473196.000000
473912.000000
474605.000000
475286.000000
475991.000000
476712.000000
477433.000000
478132.000000
478846.000000
479552.000000
480272.000000
480959.000000
481642.000000
482332.000000
483035.000000
483751.000000
484451.000000
485122.000000
485792.000000
486475.000000
487163.000000
487851.000000
488530.000000
489204.000000
489895.000000
490590.000000
491300.000000
491987.000000
492685.000000
493382.000000
494064.000000
494764.000000
495469.000000
496181.000000
496877.000000
497578.000000
498304.000000
499029.000000
499717.000000
500411.000000
501117.000000
501845.000000
502536.000000
503213.000000
503886.000000
504571.000000
505262.000000
505960.000000
506655.000000
507405.000000
508168.000000
508910.000000
509635.000000
510343.000000
511069.000000
511792.000000
512515.000000
513224.000000
513913.000000
514582.000000
515279.000000
515985.000000
516697.000000
517410.000000
518109.000000
518826.000000
519559.000000
520291.000000
521006.000000
521711.000000
522406.000000
523101.000000
523767.000000
524437.000000
525106.000000
525772.000000
526457.000000
527184.000000
527923.000000
528649.000000
529367.000000
530096.000000
530834.000000
531542.000000
532238.000000
532953.000000
533676.000000
534393.000000
535078.000000
535771.000000
536483.000000
537187.000000
537873.000000
538547.000000
539223.000000
539914.000000
540604.000000
541281.000000
541958.000000
542647.000000
543349.000000
544045.000000
544743.000000
545437.000000
546142.000000
546815.000000
547474.000000
548141.000000
548808.000000
549494.000000
550181.000000
550867.000000
551571.000000
552275.000000
552959.000000
553671.000000
554411.000000
555146.000000
555887.000000
556595.000000
557285.000000
557994.000000
558729.000000
559467.000000
560197.000000
560918.000000
561656.000000
562391.000000
563107.000000
563832.000000
564587.000000
565343.000000
566096.000000
566817.000000
567522.000000
568241.000000
568969.000000
569689.000000
570407.000000
571113.000000
571818.000000
572497.000000
573170.000000
573868.000000
574610.000000
575361.000000
576082.000000
576803.000000
577571.000000
578342.000000
579106.000000
579859.000000
580575.000000
581276.000000
581978.000000
582699.000000
583414.000000
584110.000000
584800.000000
585494.000000
586210.000000
586916.000000
587609.000000
588297.000000
589004.000000
589727.000000
590432.000000
591132.000000
591841.000000
592562.000000
593284.000000
593992.000000
594694.000000
595397.000000
596126.000000
596840.000000
597536.000000
598216.000000
598917.000000
599655.000000
600378.000000
601083.000000
601804.000000
602555.000000
603306.000000
604051.000000
604790.000000
605527.000000
606272.000000
607002.000000
607730.000000
608464.000000
609220.000000
609972.000000
610719.000000
611468.000000
612233.000000
612965.000000
613690.000000
614431.000000
615173.000000
615901.000000
616627.000000
617327.000000
618024.000000
618724.000000
619438.000000
620150.000000
620841.000000
621560.000000
622325.000000
623089.000000
623842.000000
624584.000000
625362.000000
626128.000000
626865.000000
627567.000000
628280.000000
629026.000000
629784.000000
630513.000000
631215.000000
631926.000000
632639.000000
633347.000000
634044.000000
634756.000000
635478.000000
636207.000000
636904.000000
637604.000000
638315.000000
639039.000000
639737.000000
640443.000000
641140.000000
641837.000000
642528.000000
643209.000000
643882.000000
644562.000000
645243.000000
645915.000000
646612.000000
647366.000000
648111.000000
648831.000000
649541.000000
650271.000000
651006.000000
651717.000000
652425.000000
653135.000000
653845.000000
654559.000000
655250.000000
655924.000000
656627.000000
657347.000000
658071.000000
658767.000000
659453.000000
660133.000000
660841.000000
661583.000000
662325.000000
663047.000000
663748.000000
664454.000000
665178.000000
665907.000000
666622.000000
667335.000000
668055.000000
668772.000000
669469.000000
670137.000000
670803.000000
671470.000000
672138.000000
672810.000000
673478.000000
674181.000000
674907.000000
675641.000000
676364.000000
677072.000000
677789.000000
678497.000000
679191.000000
679878.000000
680586.000000
681334.000000
682083.000000
682785.000000
683483.000000
684175.000000
684869.000000
685574.000000
686273.000000
686959.000000
687653.000000
688368.000000
689071.000000
689753.000000
690445.000000
691157.000000
691895.000000
692631.000000
693352.000000
694051.000000
694758.000000
695467.000000
696173.000000
696857.000000
697526.000000
698210.000000
698919.000000
699661.000000
700370.000000
701081.000000
701801.000000
702533.000000
703237.000000
703937.000000
704667.000000
705425.000000
706166.000000
706882.000000
707596.000000
708329.000000
709048.000000
709763.000000
710482.000000
711222.000000
711960.000000
712670.000000
713358.000000
714078.000000
714822.000000
715535.000000
716240.000000
716941.000000
717664.000000
718386.000000
719077.000000
719744.000000
720409.000000
721070.000000
721748.000000
722427.000000
723151.000000
723948.000000
724753.000000
725530.000000
726307.000000
727084.000000
727847.000000
728573.000000
729294.000000
730022.000000
730750.000000
731452.000000
732159.000000
732863.000000
733576.000000
734295.000000
735000.000000
735698.000000
736432.000000
737165.000000
737899.000000
738611.000000
739329.000000
740054.000000
740778.000000
741483.000000
742186.000000
742891.000000
743620.000000
744362.000000
745065.000000
745748.000000
746445.000000
747148.000000
747862.000000
748578.000000
749283.000000
749985.000000
750710.000000
751461.000000
752172.000000
752871.000000
753585.000000
754320.000000
755074.000000
755812.000000
756539.000000
757255.000000
757973.000000
758674.000000
759360.000000
760076.000000
760849.000000
761604.000000
762331.000000
763049.000000
763794.000000
764537.000000
765283.000000
766002.000000
766714.000000
767452.000000
768170.000000
768920.000000
769679.000000
770401.000000
771093.000000
771777.000000
772471.000000
773168.000000
773868.000000
774557.000000
775236.000000
775938.000000
776665.000000
777392.000000
778097.000000
778801.000000
779519.000000
780234.000000
780935.000000
781639.000000
782317.000000
782981.000000
783666.000000
784375.000000
785094.000000
785812.000000
786542.000000
787326.000000
788111.000000
788857.000000
789581.000000
790302.000000
791013.000000
791741.000000
792437.000000
793132.000000
793857.000000
794596.000000
795312.000000
796026.000000
796770.000000
797532.000000
798273.000000
798985.000000
799696.000000
800419.000000
801168.000000
801880.000000
802577.000000
803264.000000
803966.000000
804662.000000
805336.000000
806003.000000
806690.000000
807401.000000
808149.000000
808889.000000
809603.000000
810327.000000
811034.000000
811746.000000
812454.000000
813144.000000
813867.000000
814585.000000
815300.000000
815979.000000
816650.000000
817332.000000
818040.000000
818784.000000
819519.000000
820235.000000
820955.000000
821706.000000
822454.000000
823194.000000
823907.000000
824602.000000
825299.000000
826006.000000
826689.000000
827376.000000
828077.000000
828793.000000
829500.000000
830194.000000
830877.000000
831575.000000
832285.000000
832988.000000
833688.000000
834386.000000
835101.000000
835833.000000
836543.000000
837249.000000
837946.000000
838666.000000
839408.000000
840142.000000
840868.000000
841570.000000
842257.000000
842953.000000
843676.000000
844401.000000
845110.000000
845796.000000
846501.000000
847209.000000
847917.000000
848604.000000
849275.000000
849962.000000
850667.000000
851373.000000
852060.000000
852744.000000
853462.000000
854214.000000
854958.000000
855671.000000
856397.000000
857124.000000
857837.000000
858528.000000
859217.000000
859914.000000
860640.000000
861364.000000
862083.000000
862799.000000
863529.000000
864279.000000
864993.000000
865693.000000
866402.000000
867125.000000
867851.000000
868558.000000
869246.000000
869944.000000
870668.000000
871394.000000
872106.000000
872800.000000
873535.000000
874292.000000
875026.000000
875735.000000
876456.000000
877199.000000
877926.000000
878623.000000
879312.000000
880021.000000
880740.000000
881439.000000
882147.000000
882891.000000
883645.000000
884391.000000
885121.000000
885883.000000
886623.000000
887355.000000
888062.000000
888764.000000
889483.000000
890199.000000
890903.000000
891621.000000
892333.000000
893044.000000
893735.000000
894420.000000
895094.000000
895795.000000
896531.000000
897255.000000
897943.000000
898627.000000
899337.000000
900071.000000
900778.000000
901478.000000
902174.000000
902869.000000
903587.000000
904310.000000
905032.000000
905777.000000
906543.000000
907300.000000
908035.000000
908762.000000
909500.000000
910271.000000
911052.000000
911829.000000
912615.000000
913386.000000
914145.000000
914902.000000
915656.000000
916417.000000
917173.000000
917933.000000
918680.000000
919441.000000
920219.000000
921007.000000
921790.000000
922561.000000
923323.000000
924080.000000
924834.000000
925577.000000
926319.000000
927065.000000
927826.000000
928605.000000
929371.000000
930139.000000
930909.000000
931672.000000
932419.000000
933156.000000
933898.000000
934640.000000
935369.000000
936090.000000
936810.000000
937544.000000
938294.000000
939055.000000
939813.000000
940573.000000
941353.000000
942137.000000
942924.000000
943702.000000
944483.000000
945257.000000
946011.000000
946754.000000
947491.000000
948217.000000
948937.000000
949665.000000
950401.000000
951161.000000
951928.000000
952698.000000
953453.000000
954201.000000
954957.000000
955709.000000
956463.000000
957215.000000
957957.000000
958696.000000
959439.000000
960171.000000
960894.000000
961615.000000
962352.000000
963105.000000
963869.000000
964618.000000
965374.000000
966149.000000
966924.000000
967701.000000
968459.000000
969204.000000
969959.000000
970711.000000
971452.000000
972184.000000
972913.000000
973643.000000
974381.000000
975132.000000
975878.000000
976620.000000
977379.000000
978153.000000
978922.000000
979666.000000
980404.000000
981146.000000
981881.000000
982612.000000
983330.000000
984056.000000
984786.000000
985520.000000
986249.000000
986979.000000
987729.000000
988479.000000
989235.000000
989979.000000
990719.000000
991464.000000
992203.000000
992925.000000
993629.000000
994325.000000
995048.000000
995793.000000
996553.000000
997301.000000
998044.000000
998808.000000
999569.000000
1000337.000000
1001075.000000
1001785.000000
1002489.000000
1003207.000000
1003950.000000
1004685.000000
1005410.000000
1006137.000000
1006855.000000
1007562.000000
1008272.000000
1009009.000000
1009727.000000
1010438.000000
1011160.000000
1011888.000000
1012612.000000
1013325.000000
1014036.000000
1014755.000000
1015473.000000
1016180.000000
1016893.000000
1017631.000000
1018398.000000
1019146.000000
1019877.000000
1020614.000000
1021360.000000
1022119.000000
1022850.000000
1023557.000000
1024280.000000
1025010.000000
1025766.000000
1026493.000000
1027204.000000
1027938.000000
1028708.000000
1029468.000000
1030217.000000
1030968.000000
1031709.000000
1032457.000000
1033197.000000
1033917.000000
1034658.000000
1035411.000000
1036161.000000
1036891.000000
1037608.000000
1038342.000000
1039082.000000
1039806.000000
1040523.000000
1041223.000000
1041929.000000
1042638.000000
1043327.000000
1044013.000000
1044709.000000
1045422.000000
1046163.000000
1046887.000000
1047598.000000
1048291.000000
1048988.000000
1049695.000000
1050389.000000
1051072.000000
1051757.000000
1052487.000000
1053247.000000
1053993.000000
1054733.000000
1055488.000000
1056241.000000
1056984.000000
1057709.000000
1058415.000000
1059147.000000
1059881.000000
1060602.000000
1061320.000000
1062020.000000
1062738.000000
1063475.000000
1064212.000000
1064927.000000
1065639.000000
1066380.000000
1067119.000000
1067830.000000
1068528.000000
1069255.000000
1069973.000000
1070690.000000
1071413.000000
1072164.000000
1072918.000000
1073672.000000
1074415.000000
1075143.000000
1075851.000000
1076581.000000
1077281.000000
1077971.000000
1078680.000000
1079418.000000
1080182.000000
1080923.000000
1081663.000000
1082420.000000
1083180.000000
1083929.000000
1084674.000000
1085402.000000
1086129.000000
1086853.000000
1087571.000000
1088295.000000
1089027.000000
1089763.000000
1090495.000000
1091250.000000
1092006.000000
1092713.000000
1093400.000000
1094067.000000
1094756.000000
1095440.000000
1096120.000000
1096767.000000
1097413.000000
1098057.000000
1098696.000000
1099365.000000
1100058.000000
1100773.000000
1101457.000000
1102154.000000
1102854.000000
1103544.000000
1104228.000000
1104912.000000
1105622.000000
1106357.000000
1107076.000000
1107778.000000
1108504.000000
1109228.000000
1109973.000000
1110680.000000
1111381.000000
1112097.000000
1112834.000000
1113592.000000
1114318.000000
1115055.000000
1115820.000000
1116581.000000
1117334.000000
1118063.000000
1118802.000000
1119567.000000
1120335.000000
1121085.000000
1121802.000000
1122518.000000
1123241.000000
1123989.000000
1124734.000000
1125452.000000
1126205.000000
1126968.000000
1127733.000000
1128476.000000
1129209.000000
1129975.000000
1130749.000000
1131540.000000
1132297.000000
1133055.000000
1133792.000000
1134486.000000
1135165.000000
1135843.000000
1136587.000000
1137418.000000
1138249.000000
1139042.000000
1139844.000000
1140660.000000
1141479.000000
1142277.000000
1143084.000000
1143888.000000
1144684.000000
1145453.000000
1146216.000000
1146970.000000
1147721.000000
1148464.000000
1149208.000000
1149931.000000
1150658.000000
1151405.000000
1152180.000000
1152958.000000
1153736.000000
1154521.000000
1155317.000000
1156112.000000
1156888.000000
1157667.000000
1158441.000000
1159187.000000
1159926.000000
1160682.000000
1161443.000000
1162189.000000
1162939.000000
1163701.000000
1164471.000000
1165236.000000
1165989.000000
1166746.000000
1167506.000000
1168248.000000
1168991.000000
1169742.000000
1170508.000000
1171284.000000
1172056.000000
1172822.000000
1173598.000000
1174371.000000
1175129.000000
1175871.000000
1176622.000000
1177373.000000
1178121.000000
1178858.000000
1179602.000000
1180353.000000
1181114.000000
1181875.000000
1182645.000000
1183421.000000
1184194.000000
1184955.000000
1185717.000000
1186476.000000
1187229.000000
1187965.000000
1188705.000000
1189452.000000
1190206.000000
1190950.000000
1191705.000000
1192474.000000
1193256.000000
1194031.000000
1194796.000000
1195568.000000
1196328.000000
1197070.000000
1197806.000000
1198544.000000
1199286.000000
1200031.000000
1200762.000000
1201495.000000
1202238.000000
1202978.000000
1203703.000000
1204428.000000
1205145.000000
1205883.000000
1206624.000000
1207361.000000
1208109.000000
1208865.000000
1209616.000000
1210357.000000
1211092.000000
1211836.000000
1212569.000000
1213287.000000
1214002.000000
1214723.000000
1215461.000000
1216203.000000
1216948.000000
1217710.000000
1218469.000000
1219215.000000
1219958.000000
1220699.000000
1221410.000000
1222124.000000
1222821.000000
1223484.000000
1224127.000000
1224768.000000
1225413.000000
1226092.000000
1226797.000000
1227505.000000
1228195.000000
1228909.000000
1229621.000000
1230318.000000
1231007.000000
1231717.000000
1232468.000000
1233205.000000
1233922.000000
1234685.000000
1235457.000000
1236188.000000
1236894.000000
1237608.000000
1238346.000000
1239090.000000
1239818.000000
1240560.000000
1241327.000000
1242083.000000
1242818.000000
1243529.000000
1244256.000000
1245003.000000
1245724.000000
1246417.000000
1247123.000000
1247861.000000
1248615.000000
1249340.000000
1250051.000000
1250788.000000
1251535.000000
1252245.000000
1252948.000000
1253663.000000
1254420.000000
1255167.000000
1255894.000000
1256617.000000
1257344.000000
1258063.000000
1258765.000000
1259446.000000
1260121.000000
1260837.000000
1261589.000000
1262344.000000
1263089.000000
1263851.000000
1264619.000000
1265388.000000
1266134.000000
1266878.000000
1267625.000000
1268376.000000
1269107.000000
1269827.000000
1270566.000000
1271298.000000
1272038.000000
1272764.000000
1273474.000000
1274204.000000
1274947.000000
1275683.000000
1276412.000000
1277150.000000
1277916.000000
1278686.000000
1279443.000000
1280207.000000
1280986.000000
1281764.000000
1282534.000000
1283280.000000
1284019.000000
1284747.000000
1285468.000000
1286172.000000
1286869.000000
1287593.000000
1288355.000000
1289132.000000
1289895.000000
1290660.000000
1291450.000000
1292240.000000
1293024.000000
1293787.000000
1294515.000000
1295246.000000
1295988.000000
1296721.000000
1297442.000000
1298170.000000
1298929.000000
1299677.000000
1300414.000000
1301150.000000
1301908.000000
1302670.000000
1303402.000000
1304108.000000
1304806.000000
1305515.000000
1306236.000000
1306959.000000
1307675.000000
1308424.000000
1309209.000000
1310011.000000
1310778.000000
1311543.000000
1312310.000000
1313066.000000
1313797.000000
1314511.000000
1315265.000000
1316027.000000
1316799.000000
1317570.000000
1318325.000000
1319086.000000
1319849.000000
1320609.000000
1321361.000000
1322128.000000
1322907.000000
1323688.000000
1324459.000000
1325224.000000
1325985.000000
1326743.000000
1327491.000000
1328227.000000
1328970.000000
1329724.000000
1330490.000000
1331252.000000
1332012.000000
1332779.000000
1333541.000000
1334289.000000
1335041.000000
1335799.000000
1336552.000000
1337290.000000
1338020.000000
1338760.000000
1339508.000000
1340254.000000
1341007.000000
1341759.000000
1342493.000000
1343232.000000
1343974.000000
1344702.000000
1345400.000000
1346083.000000
1346774.000000
1347510.000000
1348233.000000
1348942.000000
1349641.000000
1350363.000000
1351101.000000
1351850.000000
1352587.000000
1353306.000000
1354039.000000
1354781.000000
1355529.000000
1356280.000000
1357028.000000
1357787.000000
1358527.000000
1359251.000000
1360001.000000
1360724.000000
1361437.000000
1362143.000000
1362853.000000
1363585.000000
1364319.000000
1365033.000000
1365751.000000
1366472.000000
1367206.000000
1367950.000000
1368678.000000
1369384.000000
1370081.000000
1370800.000000
1371542.000000
1372260.000000
1372970.000000
1373688.000000
1374438.000000
1375161.000000
1375863.000000
1376558.000000
1377253.000000
1377978.000000
1378717.000000
1379432.000000
1380131.000000
1380842.000000
1381569.000000
1382294.000000
1383014.000000
1383726.000000
1384459.000000
1385209.000000
1385924.000000
1386618.000000
1387321.000000
1388040.000000
1388746.000000
1389433.000000
1390124.000000
1390831.000000
1391538.000000
1392257.000000
1392961.000000
1393709.000000
1394482.000000
1395219.000000
1395933.000000
1396673.000000
1397426.000000
1398180.000000
1398894.000000
1399607.000000
1400325.000000
1401063.000000
1401823.000000
1402538.000000
1403235.000000
1403922.000000
1404612.000000
1405361.000000
1406127.000000
1406881.000000
1407659.000000
1408447.000000
1409228.000000
1410002.000000
1410794.000000
1411576.000000
1412342.000000
1413094.000000
1413837.000000
1414584.000000
1415320.000000
1416050.000000
1416798.000000
1417552.000000
1418316.000000
1419067.000000
1419833.000000
1420604.000000
1421372.000000
1422128.000000
1422877.000000
1423629.000000
1424366.000000
1425075.000000
1425776.000000
1426459.000000
1427194.000000
1427937.000000
1428663.000000
1429391.000000
1430134.000000
1430888.000000
1431646.000000
1432399.000000
1433164.000000
1433935.000000
1434703.000000
1435470.000000
1436237.000000
1437008.000000
1437776.000000
1438539.000000
1439275.000000
1440005.000000
1440736.000000
1441464.000000
1442197.000000
1442924.000000
1443673.000000
1444448.000000
1445230.000000
1446006.000000
1446777.000000
1447550.000000
1448305.000000
1449035.000000
1449741.000000
1450446.000000
1451154.000000
1451897.000000
1452664.000000
1453430.000000
1454239.000000
1455065.000000
1455865.000000
1456651.000000
1457452.000000
1458262.000000
1459047.000000
1459820.000000
1460568.000000
1461320.000000
1462092.000000
1462875.000000
1463659.000000
1464444.000000
1465236.000000
1466007.000000
1466764.000000
1467523.000000
1468301.000000
1469104.000000
1469915.000000
1470708.000000
1471491.000000
1472270.000000
1473044.000000
1473791.000000
1474520.000000
1475257.000000
1475997.000000
1476740.000000
1477482.000000
1478223.000000
1478982.000000
1479754.000000
1480516.000000
1481255.000000
1481997.000000
1482733.000000
1483471.000000
1484193.000000
1484913.000000
1485657.000000
1486415.000000
1487160.000000
1487899.000000
1488646.000000
1489400.000000
1490149.000000
1490887.000000
1491640.000000
1492384.000000
1493114.000000
1493829.000000
1494527.000000
1495236.000000
1495941.000000
1496639.000000
1497348.000000
1498074.000000
1498836.000000
1499594.000000
1500335.000000
1501068.000000
1501819.000000
1502577.000000
1503334.000000
1504072.000000
1504806.000000
1505543.000000
1506278.000000
1507013.000000
1507742.000000
1508470.000000
1509203.000000
1509923.000000
1510630.000000
1511324.000000
1512052.000000
1512795.000000
1513515.000000
1514204.000000
1514889.000000
1515586.000000
1516272.000000
1516953.000000
1517614.000000
1518282.000000
1518977.000000
1519707.000000
1520441.000000
1521163.000000
1521920.000000
1522702.000000
1523464.000000
1524200.000000
1524934.000000
1525673.000000
1526416.000000
1527141.000000
1527852.000000
1528586.000000
1529318.000000
1530033.000000
1530729.000000
1531430.000000
1532153.000000
1532903.000000
1533616.000000
1534320.000000
1535024.000000
1535757.000000
1536498.000000
1537223.000000
1537962.000000
1538714.000000
1539457.000000
1540183.000000
1540894.000000
1541607.000000
1542357.000000
1543129.000000
1543875.000000
1544605.000000
1545331.000000
1546097.000000
1546882.000000
1547656.000000
1548420.000000
1549201.000000
1549985.000000
1550751.000000
1551474.000000
1552152.000000
1552822.000000
1553553.000000
1554327.000000
1555095.000000
1555866.000000
1556653.000000
1557454.000000
1558260.000000
1559048.000000
1559842.000000
1560636.000000
1561411.000000
1562168.000000
1562917.000000
1563666.000000
1564418.000000
1565170.000000
1565914.000000
1566648.000000
1567379.000000
1568108.000000
1568841.000000
1569555.000000
1570261.000000
1570957.000000
1571651.000000
1572348.000000
1573038.000000
1573748.000000
1574442.000000
1575128.000000
1575844.000000
1576552.000000
1577250.000000
1577929.000000
1578624.000000
1579350.000000
1580076.000000
1580781.000000
1581485.000000
1582191.000000
1582847.000000
1583513.000000
1584182.000000
1584849.000000
1585542.000000
1586271.000000
1586983.000000
1587674.000000
1588359.000000
1589042.000000
1589739.000000
1590410.000000
1591070.000000
1591745.000000
1592446.000000
1593151.000000
1593841.000000
1594541.000000
1595274.000000
1596021.000000
1596756.000000
1597489.000000
1598207.000000
1598909.000000
1599606.000000
1600320.000000
1601018.000000
1601712.000000
1602419.000000
1603165.000000
1603905.000000
1604617.000000
1605313.000000
1606024.000000
1606740.000000
1607463.000000
1608159.000000
1608873.000000
1609594.000000
1610313.000000
1611021.000000
1611716.000000
1612415.000000
1613105.000000
1613813.000000
1614509.000000
1615209.000000
1615943.000000
1616692.000000
1617452.000000
1618195.000000
1618902.000000
1619596.000000
1620302.000000
1621024.000000
1621762.000000
1622490.000000
1623212.000000
1623974.000000
1624748.000000
1625512.000000
1626233.000000
1626938.000000
1627664.000000
1628404.000000
1629151.000000
1629881.000000
1630613.000000
1631364.000000
1632125.000000
1632879.000000
1633619.000000
1634348.000000
1635098.000000
1635852.000000
1636610.000000
1637364.000000
1638115.000000
1638856.000000
1639593.000000
1640345.000000
1641103.000000
1641855.000000
1642612.000000
1643373.000000
1644165.000000
1644962.000000
1645766.000000
1646540.000000
1647298.000000
1648064.000000
1648825.000000
1649582.000000
1650317.000000
1651051.000000
1651775.000000
1652501.000000
1653242.000000
1653964.000000
1654689.000000
1655478.000000
1656273.000000
1657011.000000
1657744.000000
1658511.000000
1659259.000000
1659989.000000
1660694.000000
1661397.000000
1662123.000000
1662867.000000
1663594.000000
1664323.000000
1665062.000000
1665826.000000
1666604.000000
1667370.000000
1668121.000000
1668891.000000
1669661.000000
1670427.000000
1671182.000000
1671957.000000
1672742.000000
1673514.000000
1674269.000000
1675010.000000
1675751.000000
1676490.000000
1677230.000000
1677967.000000
1678698.000000
1679473.000000
1680254.000000
1681031.000000
1681798.000000
1682587.000000
1683381.000000
1684175.000000
1684947.000000
1685691.000000
1686427.000000
1687160.000000
1687890.000000
1688615.000000
1689337.000000
1690071.000000
1690814.000000
1691540.000000
1692260.000000
1692991.000000
1693727.000000
1694444.000000
1695141.000000
1695849.000000
1696567.000000
1697277.000000
1697954.000000
1698625.000000
1699311.000000
1700007.000000
1700694.000000
1701374.000000
1702055.000000
1702767.000000
1703501.000000
1704186.000000
1704851.000000
1705503.000000
1706159.000000
1706788.000000
1707397.000000
1708017.000000
1708640.000000
1709262.000000
1709922.000000
1710589.000000
1711255.000000
1711898.000000
1712539.000000
1713213.000000
1713902.000000
1714581.000000
1715246.000000
1715937.000000
1716654.000000
1717350.000000
1718032.000000
1718735.000000
1719426.000000
1720118.000000
1720797.000000
1721480.000000
1722179.000000
1722868.000000
1723544.000000
1724243.000000
1724962.000000
1725676.000000
1726376.000000
1727096.000000
1727833.000000
1728552.000000
1729253.000000
1729943.000000
1730644.000000
1731372.000000
1732078.000000
1732768.000000
1733443.000000
1734152.000000
1734892.000000
1735611.000000
1736320.000000
1737018.000000
1737714.000000
1738397.000000
1739065.000000
1739738.000000
1740438.000000
1741175.000000
1741891.000000
1742609.000000
1743375.000000
1744155.000000
1744892.000000
1745602.000000
1746338.000000
1747075.000000
1747793.000000
1748486.000000
1749160.000000
1749858.000000
1750575.000000
1751278.000000
1751972.000000
1752663.000000
1753367.000000
1754091.000000
1754805.000000
1755506.000000
1756216.000000
1756937.000000
1757673.000000
1758381.000000
1759088.000000
1759830.000000
1760560.000000
1761258.000000
1761935.000000
1762614.000000
1763301.000000
1763996.000000
1764704.000000
1765386.000000
1766095.000000
1766846.000000
1767590.000000
1768307.000000
1769025.000000
1769774.000000
1770507.000000
1771246.000000
1771960.000000
1772680.000000
1773435.000000
1774172.000000
1774892.000000
1775592.000000
1776299.000000
1777024.000000
1777733.000000
1778418.000000
1779093.000000
1779772.000000
1780463.000000
1781141.000000
1781814.000000
1782475.000000
1783181.000000
1783942.000000
1784696.000000
1785448.000000
1786189.000000
1786938.000000
1787666.000000
1788396.000000
1789121.000000
1789857.000000
1790598.000000
1791340.000000
1792077.000000
1792812.000000
1793540.000000
1794273.000000
1795009.000000
1795750.000000
1796499.000000
1797245.000000
1798002.000000
1798764.000000
1799511.000000
1800251.000000
