ECG (ms)
121.000000
1118.000000
2125.000000
3093.000000
4049.000000
5048.000000
6036.000000
7008.000000
8013.000000
9024.000000
10007.000000
10969.000000
11967.000000
12970.000000
13946.000000
14944.000000
15957.000000
16965.000000
17946.000000
18945.000000
19926.000000
20903.000000
21891.000000
22860.000000
23829.000000
24815.000000
25798.000000
26755.000000
27743.000000
28726.000000
29690.000000
30656.000000
31633.000000
32599.000000
33541.000000
34509.000000
35472.000000
36439.000000
37395.000000
38384.000000
39367.000000
40321.000000
41281.000000
42273.000000
43251.000000
44208.000000
45168.000000
46152.000000
47128.000000
48090.000000
49076.000000
50083.000000
51058.000000
52035.000000
53029.000000
54029.000000
55000.000000
55961.000000
56939.000000
57925.000000
58883.000000
59832.000000
60809.000000
61786.000000
62744.000000
63689.000000
64672.000000
65658.000000
66635.000000
67596.000000
68593.000000
69587.000000
70573.000000
71530.000000
72510.000000
73497.000000
74471.000000
75445.000000
76436.000000
77431.000000
78394.000000
79381.000000
80371.000000
81376.000000
82356.000000
83356.000000
84374.000000
85398.000000
86387.000000
87411.000000
88430.000000
89435.000000
90428.000000
91450.000000
92482.000000
93483.000000
94508.000000
95542.000000
96559.000000
97566.000000
98582.000000
99603.000000
100581.000000
101541.000000
102531.000000
103547.000000
104568.000000
105560.000000
106575.000000
107583.000000
108591.000000
109572.000000
110595.000000
111596.000000
112570.000000
113578.000000
114597.000000
115581.000000
116533.000000
117535.000000
118555.000000
119571.000000
120551.000000
121557.000000
122568.000000
123574.000000
124540.000000
125505.000000
126493.000000
127496.000000
128494.000000
129465.000000
130452.000000
131445.000000
132421.000000
133391.000000
134369.000000
135347.000000
136300.000000
137249.000000
138212.000000
139197.000000
140159.000000
141133.000000
142110.000000
143088.000000
144037.000000
144978.000000
145930.000000
146911.000000
147894.000000
148856.000000
149830.000000
150804.000000
151775.000000
152760.000000
153750.000000
154742.000000
155705.000000
156693.000000
157681.000000
158657.000000
159631.000000
160613.000000
161608.000000
162590.000000
163577.000000
164578.000000
165560.000000
166533.000000
167521.000000
168515.000000
169490.000000
170473.000000
171468.000000
172475.000000
173478.000000
174456.000000
175421.000000
176409.000000
177406.000000
178388.000000
179345.000000
180321.000000
181307.000000
182278.000000
183218.000000
184183.000000
185147.000000
186120.000000
187099.000000
188070.000000
189061.000000
190058.000000
191054.000000
192048.000000
193045.000000
194050.000000
195024.000000
196020.000000
197009.000000
197999.000000
198962.000000
199961.000000
200953.000000
201919.000000
202932.000000
203882.000000
204842.000000
205816.000000
206807.000000
207802.000000
208775.000000
209737.000000
210728.000000
211729.000000
212707.000000
213680.000000
214675.000000
215677.000000
216658.000000
217641.000000
218644.000000
219650.000000
220642.000000
221633.000000
222625.000000
223593.000000
224584.000000
225570.000000
226565.000000
227567.000000
228575.000000
229567.000000
230535.000000
231526.000000
232520.000000
233492.000000
234486.000000
235492.000000
236487.000000
237473.000000
238479.000000
239479.000000
240440.000000
241416.000000
242389.000000
243353.000000
244299.000000
245272.000000
246258.000000
247240.000000
248194.000000
249182.000000
250180.000000
251163.000000
252138.000000
253108.000000
254089.000000
255081.000000
256073.000000
257065.000000
257999.000000
258945.000000
259823.000000
260621.000000
261414.000000
262259.000000
263132.000000
263989.000000
264781.000000
265588.000000
266427.000000
267315.000000
268254.000000
269228.000000
270211.000000
271203.000000
272197.000000
273190.000000
274190.000000
275183.000000
276149.000000
277138.000000
278132.000000
279142.000000
280141.000000
281093.000000
282092.000000
283090.000000
284083.000000
285074.000000
286037.000000
287031.000000
288035.000000
289038.000000
290031.000000
291000.000000
291989.000000
292984.000000
293977.000000
294940.000000
295941.000000
296935.000000
297931.000000
298940.000000
299940.000000
300956.000000
301986.000000
302978.000000
304012.000000
305047.000000
306063.000000
307075.000000
308099.000000
309108.000000
310096.000000
311110.000000
312129.000000
313126.000000
314109.000000
315101.000000
316091.000000
317075.000000
318045.000000
319041.000000
320036.000000
321034.000000
322025.000000
323008.000000
324011.000000
325015.000000
326015.000000
327013.000000
328021.000000
329017.000000
330008.000000
330528.000000
331674.000000
332713.000000
333717.000000
334709.000000
335725.000000
336739.000000
337733.000000
338735.000000
339742.000000
340723.000000
341705.000000
342698.000000
343689.000000
344652.000000
345619.000000
346599.000000
347591.000000
348568.000000
349567.000000
350577.000000
351570.000000
352553.000000
353519.000000
354501.000000
355489.000000
356496.000000
357488.000000
358517.000000
359560.000000
360611.000000
361638.000000
362658.000000
363678.000000
364708.000000
365698.000000
366703.000000
367705.000000
368736.000000
369778.000000
370813.000000
371849.000000
372855.000000
373870.000000
374892.000000
375933.000000
376978.000000
378003.000000
379008.000000
380043.000000
381085.000000
382119.000000
383124.000000
384134.000000
385156.000000
386188.000000
387216.000000
388210.000000
389227.000000
390251.000000
391280.000000
392303.000000
393298.000000
394316.000000
395339.000000
396358.000000
397349.000000
398344.000000
399358.000000
400374.000000
401357.000000
402349.000000
403357.000000
404370.000000
405350.000000
406346.000000
407357.000000
408368.000000
409369.000000
410376.000000
411399.000000
412420.000000
413442.000000
414437.000000
415452.000000
416467.000000
417477.000000
418482.000000
419455.000000
420448.000000
421435.000000
422433.000000
423405.000000
424393.000000
425392.000000
426401.000000
427381.000000
428378.000000
429383.000000
430379.000000
431348.000000
432331.000000
433327.000000
434321.000000
435289.000000
436285.000000
437285.000000
438292.000000
439281.000000
440272.000000
441279.000000
442288.000000
443282.000000
444249.000000
445242.000000
446248.000000
447259.000000
448266.000000
449244.000000
450249.000000
451270.000000
452290.000000
453303.000000
454293.000000
455311.000000
456320.000000
457278.000000
458147.000000
458954.000000
459764.000000
460621.000000
461537.000000
462542.000000
463540.000000
464558.000000
465583.000000
466622.000000
467633.000000
468592.000000
469543.000000
470505.000000
471490.000000
472487.000000
473447.000000
474443.000000
475429.000000
476435.000000
477432.000000
478415.000000
479419.000000
480384.000000
481286.000000
482100.000000
482910.000000
483786.000000
484710.000000
485704.000000
486745.000000
487789.000000
488822.000000
489845.000000
490874.000000
491901.000000
492894.000000
493885.000000
494916.000000
495949.000000
496983.000000
498041.000000
499023.000000
500017.000000
501046.000000
502072.000000
503112.000000
504150.000000
505157.000000
506173.000000
507187.000000
508212.000000
509215.000000
510216.000000
511225.000000
512255.000000
513277.000000
514275.000000
515271.000000
516298.000000
517327.000000
518358.000000
519359.000000
520365.000000
521373.000000
522367.000000
523316.000000
524131.000000
524952.000000
525801.000000
526735.000000
527712.000000
528740.000000
529758.000000
530810.000000
531844.000000
532882.000000
533885.000000
534858.000000
535850.000000
536875.000000
537888.000000
538878.000000
539900.000000
540940.000000
541972.000000
542977.000000
544006.000000
545030.000000
546046.000000
547039.000000
548055.000000
549074.000000
550064.000000
551059.000000
552070.000000
553095.000000
554127.000000
555140.000000
556173.000000
557218.000000
558254.000000
559264.000000
560301.000000
561363.000000
562423.000000
563449.000000
564465.000000
565519.000000
566583.000000
567606.000000
568626.000000
569671.000000
570717.000000
571736.000000
572776.000000
573805.000000
574808.000000
575820.000000
576833.000000
577825.000000
578839.000000
579830.000000
580809.000000
581802.000000
582788.000000
583763.000000
584760.000000
585762.000000
586770.000000
587753.000000
588534.000000
589692.000000
590703.000000
591661.000000
592648.000000
593649.000000
594630.000000
595621.000000
596627.000000
597642.000000
598650.000000
599650.000000
600637.000000
601631.000000
602634.000000
603627.000000
604615.000000
605583.000000
606577.000000
607581.000000
608587.000000
609555.000000
610546.000000
611542.000000
612549.000000
613550.000000
614528.000000
615496.000000
616485.000000
617480.000000
618462.000000
619443.000000
620434.000000
621440.000000
622420.000000
623410.000000
624424.000000
625436.000000
626426.000000
627428.000000
628452.000000
629470.000000
630456.000000
631466.000000
632481.000000
633487.000000
634455.000000
635436.000000
636435.000000
637452.000000
638439.000000
639392.000000
640358.000000
641360.000000
642361.000000
643360.000000
644349.000000
645351.000000
646356.000000
647341.000000
648349.000000
649364.000000
650359.000000
651361.000000
652366.000000
653384.000000
654404.000000
655411.000000
656400.000000
657418.000000
658447.000000
659456.000000
660448.000000
661453.000000
662461.000000
663477.000000
664464.000000
665475.000000
666479.000000
667463.000000
668438.000000
669448.000000
670455.000000
671459.000000
672458.000000
673454.000000
674442.000000
675427.000000
676385.000000
677379.000000
678385.000000
679400.000000
680422.000000
681412.000000
682420.000000
683425.000000
684403.000000
685342.000000
686301.000000
687282.000000
688266.000000
689235.000000
690235.000000
691245.000000
692257.000000
693259.000000
694279.000000
695306.000000
696299.000000
697328.000000
698328.000000
699332.000000
700319.000000
701272.000000
702134.000000
703005.000000
703948.000000
704923.000000
705798.000000
706618.000000
707450.000000
708272.000000
709121.000000
710030.000000
710976.000000
711903.000000
712803.000000
713747.000000
714748.000000
715750.000000
716736.000000
717724.000000
718743.000000
719760.000000
720726.000000
721577.000000
722408.000000
723294.000000
724231.000000
725219.000000
726226.000000
727245.000000
728278.000000
729312.000000
730311.000000
731326.000000
732329.000000
733316.000000
734313.000000
735329.000000
736345.000000
737349.000000
738354.000000
739338.000000
740346.000000
741346.000000
742326.000000
743332.000000
744341.000000
745362.000000
746351.000000
747350.000000
748358.000000
749367.000000
750351.000000
751329.000000
752334.000000
753340.000000
754349.000000
755318.000000
756314.000000
757320.000000
758327.000000
759272.000000
760134.000000
760925.000000
761724.000000
762521.000000
763411.000000
764381.000000
765383.000000
766361.000000
767359.000000
768369.000000
769362.000000
770344.000000
771316.000000
772289.000000
773257.000000
774254.000000
775248.000000
776228.000000
777232.000000
778236.000000
779257.000000
780247.000000
781246.000000
782234.000000
783224.000000
784201.000000
785196.000000
786196.000000
787184.000000
788169.000000
789173.000000
790185.000000
791182.000000
792178.000000
793198.000000
794224.000000
795235.000000
796255.000000
797299.000000
798271.000000
799289.000000
800315.000000
801351.000000
802385.000000
803393.000000
804418.000000
805469.000000
806495.000000
807505.000000
808540.000000
809598.000000
810655.000000
811704.000000
812720.000000
813754.000000
814782.000000
815811.000000
816806.000000
817836.000000
818874.000000
819889.000000
820882.000000
821921.000000
822992.000000
824041.000000
825066.000000
826109.000000
827151.000000
828174.000000
829156.000000
830174.000000
831190.000000
832198.000000
833185.000000
834200.000000
835220.000000
836226.000000
837219.000000
838243.000000
839295.000000
840303.000000
841301.000000
842313.000000
843331.000000
844373.000000
845377.000000
846368.000000
847376.000000
848388.000000
849377.000000
850353.000000
851369.000000
852385.000000
853384.000000
854362.000000
855356.000000
856357.000000
857387.000000
858338.000000
859319.000000
860316.000000
861328.000000
862332.000000
863309.000000
864315.000000
865329.000000
866347.000000
867331.000000
868327.000000
869350.000000
870302.000000
871136.000000
871921.000000
872712.000000
873539.000000
874426.000000
875371.000000
876318.000000
877266.000000
878229.000000
879207.000000
880150.000000
881097.000000
882057.000000
883018.000000
883996.000000
884969.000000
885936.000000
886928.000000
887933.000000
888948.000000
889940.000000
890954.000000
891956.000000
892953.000000
893935.000000
894935.000000
895937.000000
896919.000000
897897.000000
898897.000000
