ECG (ms)
28.000000
812.000000
1546.000000
2252.000000
2945.000000
3750.000000
4582.000000
5393.000000
6159.000000
6855.000000
7540.000000
8237.000000
9046.000000
9839.000000
10696.000000
11585.000000
12454.000000
13357.000000
14210.000000
15049.000000
15882.000000
16696.000000
17469.000000
18238.000000
19047.000000
19903.000000
20740.000000
21556.000000
22399.000000
23233.000000
24039.000000
24848.000000
25680.000000
26522.000000
27328.000000
28136.000000
28925.000000
29693.000000
30496.000000
31307.000000
32132.000000
32997.000000
33853.000000
34694.000000
35561.000000
36406.000000
37212.000000
38034.000000
38871.000000
39678.000000
40489.000000
41314.000000
42139.000000
42927.000000
43727.000000
44542.000000
45355.000000
46154.000000
46948.000000
47754.000000
48569.000000
49343.000000
50095.000000
50869.000000
51661.000000
52454.000000
53216.000000
53970.000000
54755.000000
55545.000000
56293.000000
57027.000000
57778.000000
58548.000000
59300.000000
60069.000000
60866.000000
61681.000000
62513.000000
63318.000000
64143.000000
65007.000000
65865.000000
66718.000000
67580.000000
68383.000000
69175.000000
69973.000000
70775.000000
71542.000000
72339.000000
73143.000000
73936.000000
74695.000000
75453.000000
76161.000000
76919.000000
77662.000000
78462.000000
79274.000000
80049.000000
80849.000000
81653.000000
82434.000000
83206.000000
83990.000000
84788.000000
85556.000000
86344.000000
87147.000000
87962.000000
88756.000000
89558.000000
90366.000000
91148.000000
91927.000000
92729.000000
93524.000000
94299.000000
95099.000000
95903.000000
96693.000000
97469.000000
98261.000000
99057.000000
99817.000000
100603.000000
101401.000000
102231.000000
103029.000000
103839.000000
104643.000000
105433.000000
106201.000000
106996.000000
107794.000000
108578.000000
109340.000000
110130.000000
110933.000000
111694.000000
112443.000000
113237.000000
114031.000000
114804.000000
115576.000000
116370.000000
117166.000000
117936.000000
118713.000000
119511.000000
120276.000000
120997.000000
121771.000000
122525.000000
123276.000000
123993.000000
124769.000000
125515.000000
126215.000000
126924.000000
127622.000000
128322.000000
129132.000000
129840.000000
130606.000000
131365.000000
132132.000000
132842.000000
133606.000000
134374.000000
135174.000000
135931.000000
136656.000000
137357.000000
138130.000000
138873.000000
139576.000000
140385.000000
141218.000000
142031.000000
142843.000000
143672.000000
144480.000000
145264.000000
146072.000000
146896.000000
147692.000000
148495.000000
149300.000000
150106.000000
150904.000000
151746.000000
152585.000000
153377.000000
154145.000000
154899.000000
155660.000000
156439.000000
157220.000000
157970.000000
158751.000000
159550.000000
160331.000000
161115.000000
161912.000000
162712.000000
163498.000000
164336.000000
165165.000000
165956.000000
166747.000000
167564.000000
168402.000000
169217.000000
170045.000000
170904.000000
171762.000000
172566.000000
173372.000000
174186.000000
174996.000000
175798.000000
176626.000000
177471.000000
178269.000000
179078.000000
179906.000000
180749.000000
181551.000000
182369.000000
183187.000000
184017.000000
184803.000000
185593.000000
186379.000000
187157.000000
187923.000000
188740.000000
189608.000000
190433.000000
191255.000000
192081.000000
192904.000000
193667.000000
194442.000000
195201.000000
195966.000000
196757.000000
197518.000000
198319.000000
199171.000000
199969.000000
200774.000000
201591.000000
202381.000000
203135.000000
203918.000000
204723.000000
205508.000000
206292.000000
207095.000000
207914.000000
208706.000000
209516.000000
210342.000000
211171.000000
211967.000000
212783.000000
213604.000000
214402.000000
215195.000000
216000.000000
216816.000000
217606.000000
218397.000000
219185.000000
219936.000000
220650.000000
221408.000000
222143.000000
222827.000000
223550.000000
224250.000000
225094.000000
225877.000000
226684.000000
227524.000000
228341.000000
229127.000000
229922.000000
230733.000000
231510.000000
232278.000000
233062.000000
233863.000000
234638.000000
235433.000000
236248.000000
237066.000000
237854.000000
238679.000000
239522.000000
240331.000000
241140.000000
241955.000000
242742.000000
243513.000000
244312.000000
245110.000000
245868.000000
246623.000000
247388.000000
248135.000000
248880.000000
249642.000000
250420.000000
251243.000000
252073.000000
252850.000000
253658.000000
254470.000000
255246.000000
256006.000000
256793.000000
257598.000000
258377.000000
259159.000000
259978.000000
260807.000000
261602.000000
262409.000000
263248.000000
264101.000000
264896.000000
265707.000000
266532.000000
267340.000000
268124.000000
268939.000000
269784.000000
270600.000000
271442.000000
272287.000000
273111.000000
273919.000000
274739.000000
275558.000000
276344.000000
277117.000000
277895.000000
278683.000000
279464.000000
280282.000000
281075.000000
281873.000000
282727.000000
283567.000000
284376.000000
285214.000000
286043.000000
286842.000000
287648.000000
288427.000000
289179.000000
289922.000000
290614.000000
291391.000000
292130.000000
292918.000000
293743.000000
294549.000000
295353.000000
296183.000000
297011.000000
297794.000000
298582.000000
299378.000000
300192.000000
300979.000000
301786.000000
302627.000000
303478.000000
304289.000000
305173.000000
306093.000000
307008.000000
307890.000000
308752.000000
309640.000000
310460.000000
311268.000000
312103.000000
312936.000000
313765.000000
314612.000000
315540.000000
316471.000000
317316.000000
318124.000000
318918.000000
319687.000000
320480.000000
321331.000000
322369.000000
323325.000000
324174.000000
325020.000000
325853.000000
326663.000000
327455.000000
328289.000000
329092.000000
329866.000000
330597.000000
331501.000000
332344.000000
333158.000000
333994.000000
334825.000000
335609.000000
336432.000000
337258.000000
338101.000000
338916.000000
339771.000000
340664.000000
341502.000000
342356.000000
343224.000000
344075.000000
344877.000000
345705.000000
346551.000000
347427.000000
348256.000000
349121.000000
350030.000000
350928.000000
351754.000000
352595.000000
353451.000000
354302.000000
355126.000000
355950.000000
356747.000000
357572.000000
358402.000000
359232.000000
360089.000000
360949.000000
361773.000000
362633.000000
363484.000000
364285.000000
365103.000000
365934.000000
366762.000000
367567.000000
368395.000000
369266.000000
370095.000000
370975.000000
371871.000000
372728.000000
373578.000000
374441.000000
375305.000000
376145.000000
376993.000000
377858.000000
378679.000000
379496.000000
380279.000000
381047.000000
381892.000000
382732.000000
383600.000000
384479.000000
385306.000000
386122.000000
386961.000000
387825.000000
388633.000000
389428.000000
390255.000000
391119.000000
391927.000000
392763.000000
393615.000000
394424.000000
395247.000000
396118.000000
396980.000000
397786.000000
398624.000000
399478.000000
400298.000000
401122.000000
401978.000000
402874.000000
403705.000000
404564.000000
405490.000000
406361.000000
407248.000000
408188.000000
409101.000000
409971.000000
410798.000000
411628.000000
412478.000000
413297.000000
414151.000000
415035.000000
415918.000000
416774.000000
417667.000000
418580.000000
419437.000000
420290.000000
421136.000000
421951.000000
422775.000000
423619.000000
424520.000000
425389.000000
426283.000000
427175.000000
428023.000000
428884.000000
429754.000000
430621.000000
431438.000000
432283.000000
433155.000000
434032.000000
434861.000000
435715.000000
436614.000000
437486.000000
438340.000000
439240.000000
440145.000000
440970.000000
441783.000000
442586.000000
443359.000000
444150.000000
444931.000000
445779.000000
446747.000000
447658.000000
448530.000000
449457.000000
450384.000000
451244.000000
452087.000000
452952.000000
453839.000000
454689.000000
455555.000000
456466.000000
457378.000000
458207.000000
459031.000000
459851.000000
460674.000000
461452.000000
462272.000000
463099.000000
463864.000000
464564.000000
465262.000000
465973.000000
466736.000000
467497.000000
468197.000000
468899.000000
469606.000000
470315.000000
471086.000000
471851.000000
472614.000000
473372.000000
474079.000000
474802.000000
475498.000000
476206.000000
477029.000000
477821.000000
478625.000000
479412.000000
480112.000000
480938.000000
481718.000000
482499.000000
483207.000000
483994.000000
484803.000000
485588.000000
486366.000000
487171.000000
487994.000000
488777.000000
489607.000000
490466.000000
491281.000000
492119.000000
492975.000000
493803.000000
494651.000000
495498.000000
496307.000000
497138.000000
498003.000000
498841.000000
499653.000000
500495.000000
501353.000000
502180.000000
503016.000000
503878.000000
504751.000000
505590.000000
506443.000000
507299.000000
508120.000000
508954.000000
509800.000000
510622.000000
511409.000000
512220.000000
513052.000000
513875.000000
514679.000000
515536.000000
516408.000000
517231.000000
518065.000000
518911.000000
519750.000000
520579.000000
521417.000000
522233.000000
522987.000000
523721.000000
524432.000000
525137.000000
525820.000000
526503.000000
527176.000000
527859.000000
528593.000000
529323.000000
530006.000000
530767.000000
531526.000000
532301.000000
533047.000000
533817.000000
534597.000000
535362.000000
536067.000000
536878.000000
537690.000000
538503.000000
539345.000000
540263.000000
541143.000000
541959.000000
542767.000000
543572.000000
544348.000000
545146.000000
545945.000000
546782.000000
547692.000000
548568.000000
549445.000000
550315.000000
551143.000000
551990.000000
552853.000000
553700.000000
554481.000000
555263.000000
556065.000000
556868.000000
557696.000000
558537.000000
559350.000000
560176.000000
561011.000000
561821.000000
562617.000000
563425.000000
564239.000000
565009.000000
565797.000000
566558.000000
567366.000000
568152.000000
568945.000000
569774.000000
570607.000000
571414.000000
572243.000000
573066.000000
573891.000000
574729.000000
575567.000000
576364.000000
577182.000000
577974.000000
578746.000000
579513.000000
580372.000000
581289.000000
582183.000000
583135.000000
584079.000000
584943.000000
585782.000000
586622.000000
587457.000000
588256.000000
589068.000000
589922.000000
590792.000000
591609.000000
592413.000000
593253.000000
594142.000000
595002.000000
595857.000000
596720.000000
597566.000000
598394.000000
599223.000000
600104.000000
600992.000000
601984.000000
603024.000000
603983.000000
605081.000000
606123.000000
607008.000000
607922.000000
608778.000000
609607.000000
610410.000000
