ECG (ms)
654.000000
1526.000000
2421.000000
3305.000000
4195.000000
5097.000000
6020.000000
6918.000000
7861.000000
8821.000000
9901.000000
10865.000000
11798.000000
12747.000000
13668.000000
14570.000000
15450.000000
16362.000000
17240.000000
18152.000000
19053.000000
19949.000000
20874.000000
21782.000000
22686.000000
23622.000000
24559.000000
25484.000000
26427.000000
27361.000000
28270.000000
29195.000000
30104.000000
30979.000000
31874.000000
32757.000000
33618.000000
34504.000000
35388.000000
36252.000000
37149.000000
38032.000000
38905.000000
39752.000000
40480.000000
41186.000000
41895.000000
42666.000000
43542.000000
44427.000000
45349.000000
46304.000000
47221.000000
48118.000000
49003.000000
49846.000000
50689.000000
51571.000000
52456.000000
53355.000000
54267.000000
55137.000000
56009.000000
56914.000000
57805.000000
58670.000000
59569.000000
60483.000000
61382.000000
62358.000000
63347.000000
64300.000000
65272.000000
66217.000000
67124.000000
68051.000000
69015.000000
69906.000000
70843.000000
71808.000000
72810.000000
73851.000000
74817.000000
75799.000000
76767.000000
77720.000000
78722.000000
79706.000000
80687.000000
81673.000000
82595.000000
83517.000000
84433.000000
85351.000000
86360.000000
87368.000000
88363.000000
89405.000000
90399.000000
91370.000000
92344.000000
93244.000000
94146.000000
95034.000000
95902.000000
96832.000000
97785.000000
98686.000000
99622.000000
100565.000000
101496.000000
102469.000000
103437.000000
104376.000000
105352.000000
106288.000000
107200.000000
108114.000000
108998.000000
109857.000000
110773.000000
111694.000000
112631.000000
113613.000000
114563.000000
115508.000000
116486.000000
117407.000000
118268.000000
119130.000000
120002.000000
120857.000000
121797.000000
122762.000000
123673.000000
124623.000000
125566.000000
126470.000000
127413.000000
128367.000000
129291.000000
130282.000000
131287.000000
132222.000000
133150.000000
134057.000000
134962.000000
136119.000000
137278.000000
138410.000000
139563.000000
140646.000000
141719.000000
142775.000000
143750.000000
144743.000000
145729.000000
146663.000000
147630.000000
148596.000000
149508.000000
150457.000000
151400.000000
152307.000000
153257.000000
154208.000000
155124.000000
156090.000000
157040.000000
157931.000000
158835.000000
159756.000000
160625.000000
161514.000000
162405.000000
163254.000000
164124.000000
165039.000000
165899.000000
166788.000000
167708.000000
168581.000000
169486.000000
170428.000000
171340.000000
172290.000000
173239.000000
174120.000000
175036.000000
175956.000000
176845.000000
177781.000000
178716.000000
179640.000000
180642.000000
181633.000000
182557.000000
183482.000000
184429.000000
185349.000000
186339.000000
187361.000000
188333.000000
189374.000000
190421.000000
191420.000000
192461.000000
193491.000000
194436.000000
195377.000000
196209.000000
196929.000000
197621.000000
198353.000000
199395.000000
200377.000000
201402.000000
202394.000000
203317.000000
204262.000000
205194.000000
206060.000000
206955.000000
207847.000000
208694.000000
209616.000000
210589.000000
211509.000000
212448.000000
213369.000000
214263.000000
215198.000000
216150.000000
217086.000000
218050.000000
218999.000000
219942.000000
220900.000000
221844.000000
222742.000000
223687.000000
224666.000000
225672.000000
226669.000000
227665.000000
228687.000000
229649.000000
230575.000000
231522.000000
232477.000000
233413.000000
234391.000000
235337.000000
236274.000000
237244.000000
238204.000000
239150.000000
240119.000000
241083.000000
241996.000000
242928.000000
243861.000000
244734.000000
245634.000000
246562.000000
247456.000000
248347.000000
249263.000000
250169.000000
251040.000000
251980.000000
252930.000000
253831.000000
254768.000000
255699.000000
256573.000000
257457.000000
258379.000000
259267.000000
260186.000000
261131.000000
262023.000000
262911.000000
263838.000000
264723.000000
265569.000000
266436.000000
267334.000000
268217.000000
269147.000000
270080.000000
270979.000000
271915.000000
272844.000000
273725.000000
274633.000000
275560.000000
276443.000000
277365.000000
278326.000000
279232.000000
280137.000000
281063.000000
281935.000000
282829.000000
283748.000000
284620.000000
285441.000000
286297.000000
287175.000000
288026.000000
288928.000000
289848.000000
290729.000000
291650.000000
292602.000000
293497.000000
294416.000000
295350.000000
296220.000000
297107.000000
298023.000000
298904.000000
299827.000000
300826.000000
301775.000000
302758.000000
303750.000000
304680.000000
305651.000000
306618.000000
307520.000000
308430.000000
309339.000000
310204.000000
311097.000000
312015.000000
312901.000000
313852.000000
314799.000000
315716.000000
316666.000000
317622.000000
318504.000000
319411.000000
320303.000000
321171.000000
322072.000000
322954.000000
323791.000000
324686.000000
325605.000000
326474.000000
327383.000000
328305.000000
329191.000000
330127.000000
331071.000000
331966.000000
332899.000000
333850.000000
334740.000000
335651.000000
336571.000000
337460.000000
338389.000000
339329.000000
340233.000000
341167.000000
342126.000000
343053.000000
343930.000000
344833.000000
345772.000000
346706.000000
347725.000000
348737.000000
349725.000000
350745.000000
351727.000000
352684.000000
353674.000000
354623.000000
355506.000000
356367.000000
357193.000000
358013.000000
358934.000000
359979.000000
361000.000000
362086.000000
363141.000000
364166.000000
365212.000000
366240.000000
367219.000000
368205.000000
369158.000000
370136.000000
371146.000000
372115.000000
373108.000000
374093.000000
375048.000000
376029.000000
376986.000000
377934.000000
378903.000000
379848.000000
380796.000000
381783.000000
382741.000000
383649.000000
384579.000000
385514.000000
386443.000000
387393.000000
388364.000000
389278.000000
390217.000000
391146.000000
392034.000000
392942.000000
393847.000000
394709.000000
395657.000000
396706.000000
397722.000000
398811.000000
399873.000000
400915.000000
401980.000000
402962.000000
403973.000000
405003.000000
405920.000000
406831.000000
407768.000000
408641.000000
409552.000000
410535.000000
411457.000000
412426.000000
413448.000000
414395.000000
415369.000000
416358.000000
417265.000000
418191.000000
419188.000000
420117.000000
421004.000000
421912.000000
422848.000000
423779.000000
424753.000000
425726.000000
426641.000000
427569.000000
428543.000000
429473.000000
430438.000000
431427.000000
432363.000000
433314.000000
434249.000000
435091.000000
435933.000000
436801.000000
437657.000000
438560.000000
439523.000000
440439.000000
441333.000000
442255.000000
443150.000000
444060.000000
445017.000000
445946.000000
446859.000000
447800.000000
448718.000000
449600.000000
450488.000000
451385.000000
452222.000000
453088.000000
453985.000000
454831.000000
455710.000000
456631.000000
457527.000000
458401.000000
459325.000000
460275.000000
461182.000000
462110.000000
463056.000000
463951.000000
464844.000000
465752.000000
466623.000000
467520.000000
468421.000000
469275.000000
470208.000000
471188.000000
472117.000000
473072.000000
474038.000000
474946.000000
475889.000000
476865.000000
477779.000000
478692.000000
479595.000000
480448.000000
481324.000000
482252.000000
483142.000000
484037.000000
484955.000000
485837.000000
486698.000000
487589.000000
488513.000000
489435.000000
490419.000000
491389.000000
492304.000000
493234.000000
494149.000000
494984.000000
495825.000000
496672.000000
497490.000000
498378.000000
499348.000000
500274.000000
501212.000000
502177.000000
503093.000000
503996.000000
504929.000000
505853.000000
506727.000000
507614.000000
508513.000000
509373.000000
510289.000000
511236.000000
512155.000000
513127.000000
514102.000000
515012.000000
515934.000000
516903.000000
517842.000000
518753.000000
519680.000000
520613.000000
521510.000000
522458.000000
523393.000000
524260.000000
525137.000000
526042.000000
526907.000000
527773.000000
528676.000000
529591.000000
530450.000000
531339.000000
532245.000000
533121.000000
534025.000000
534961.000000
535831.000000
536729.000000
537678.000000
538597.000000
539475.000000
540356.000000
541231.000000
542071.000000
542949.000000
543829.000000
544695.000000
545517.000000
546386.000000
547314.000000
548203.000000
549068.000000
549902.000000
550704.000000
551575.000000
552541.000000
553456.000000
554405.000000
555364.000000
556266.000000
557176.000000
558104.000000
558967.000000
559800.000000
560650.000000
561525.000000
562361.000000
563242.000000
564131.000000
564991.000000
565900.000000
566802.000000
567668.000000
568572.000000
569468.000000
570313.000000
571184.000000
572092.000000
572945.000000
573823.000000
574717.000000
575575.000000
576447.000000
577337.000000
578243.000000
579107.000000
579970.000000
580862.000000
581734.000000
582556.000000
583397.000000
584276.000000
585134.000000
586026.000000
586984.000000
587895.000000
588825.000000
589758.000000
590655.000000
591590.000000
592529.000000
593418.000000
594324.000000
595246.000000
596107.000000
596982.000000
597932.000000
598898.000000
599859.000000
600808.000000
601693.000000
602613.000000
603586.000000
604519.000000
605476.000000
606434.000000
607340.000000
608287.000000
609269.000000
610195.000000
611146.000000
612103.000000
613018.000000
613914.000000
614800.000000
615615.000000
616426.000000
617301.000000
618229.000000
619152.000000
620138.000000
621145.000000
622100.000000
623089.000000
624054.000000
624971.000000
625812.000000
626645.000000
627529.000000
628407.000000
629266.000000
630202.000000
631147.000000
632050.000000
632976.000000
633949.000000
634889.000000
635877.000000
636867.000000
637819.000000
638779.000000
639748.000000
640698.000000
641706.000000
642717.000000
643658.000000
644605.000000
645577.000000
646520.000000
647516.000000
648583.000000
649603.000000
650548.000000
651560.000000
652534.000000
653498.000000
654488.000000
655452.000000
656364.000000
657384.000000
658469.000000
659477.000000
660539.000000
661574.000000
662559.000000
663565.000000
664515.000000
665433.000000
666385.000000
667335.000000
668253.000000
669218.000000
670185.000000
671133.000000
672116.000000
673068.000000
673991.000000
674937.000000
675900.000000
676805.000000
677735.000000
678688.000000
679614.000000
680582.000000
681564.000000
682487.000000
683406.000000
684329.000000
685194.000000
686090.000000
687053.000000
687973.000000
688938.000000
689921.000000
690847.000000
691814.000000
692793.000000
693691.000000
694609.000000
695505.000000
696372.000000
697303.000000
698321.000000
699312.000000
700362.000000
701405.000000
702420.000000
703467.000000
704483.000000
705429.000000
706395.000000
707359.000000
708270.000000
709209.000000
710145.000000
711050.000000
712001.000000
712983.000000
713917.000000
714846.000000
715812.000000
716759.000000
717701.000000
718679.000000
719643.000000
720536.000000
721468.000000
722417.000000
723317.000000
724241.000000
725180.000000
726077.000000
726978.000000
727891.000000
728800.000000
729675.000000
730586.000000
731529.000000
732438.000000
733388.000000
734341.000000
735252.000000
736145.000000
737052.000000
737870.000000
738669.000000
739449.000000
740261.000000
741186.000000
742181.000000
743130.000000
744133.000000
745126.000000
746054.000000
746918.000000
747816.000000
748741.000000
749622.000000
750535.000000
751475.000000
752340.000000
753193.000000
754101.000000
754984.000000
755912.000000
756893.000000
757827.000000
758772.000000
759724.000000
760632.000000
761535.000000
762452.000000
763373.000000
764240.000000
765121.000000
766054.000000
766956.000000
767881.000000
768844.000000
769765.000000
770570.000000
771366.000000
772217.000000
773048.000000
773955.000000
774918.000000
775867.000000
776817.000000
777805.000000
778777.000000
779696.000000
780623.000000
781569.000000
782461.000000
783358.000000
784268.000000
785151.000000
786027.000000
786932.000000
787836.000000
788689.000000
789568.000000
790479.000000
791352.000000
792239.000000
793155.000000
794043.000000
794892.000000
795719.000000
796517.000000
797296.000000
798125.000000
799058.000000
800035.000000
800979.000000
801999.000000
803011.000000
803976.000000
804979.000000
805976.000000
806928.000000
807983.000000
809072.000000
810070.000000
811116.000000
812131.000000
813098.000000
814102.000000
815112.000000
816068.000000
817050.000000
818019.000000
818921.000000
819843.000000
820778.000000
821677.000000
822611.000000
823596.000000
824542.000000
825423.000000
826321.000000
827292.000000
828296.000000
829295.000000
830352.000000
831398.000000
832369.000000
833373.000000
834359.000000
835274.000000
836162.000000
837070.000000
837931.000000
838854.000000
839844.000000
840740.000000
841650.000000
842587.000000
843449.000000
844344.000000
845236.000000
846085.000000
846997.000000
847937.000000
848853.000000
849802.000000
850779.000000
851693.000000
852628.000000
853590.000000
854486.000000
855387.000000
856336.000000
857270.000000
858263.000000
859283.000000
860233.000000
861208.000000
862228.000000
863205.000000
864148.000000
865126.000000
866086.000000
867001.000000
867978.000000
868958.000000
869873.000000
870798.000000
871720.000000
872590.000000
873482.000000
874426.000000
875322.000000
876245.000000
877198.000000
878102.000000
879025.000000
879945.000000
880828.000000
881676.000000
882525.000000
883389.000000
884250.000000
885193.000000
886194.000000
887187.000000
888167.000000
889099.000000
890009.000000
890883.000000
891650.000000
892356.000000
893054.000000
893750.000000
894430.000000
895157.000000
895943.000000
896891.000000
897825.000000
898695.000000
899634.000000
900584.000000
901516.000000
902467.000000
903411.000000
904313.000000
905257.000000
906221.000000
907142.000000
908084.000000
909036.000000
909949.000000
910884.000000
911858.000000
912814.000000
913817.000000
914823.000000
915775.000000
916687.000000
917625.000000
918579.000000
919486.000000
920403.000000
921300.000000
922142.000000
923007.000000
923924.000000
924824.000000
925767.000000
926767.000000
927715.000000
928619.000000
929557.000000
930474.000000
931351.000000
932266.000000
933205.000000
934124.000000
934973.000000
935788.000000
936599.000000
937393.000000
938188.000000
939061.000000
939975.000000
940847.000000
941755.000000
942715.000000
943608.000000
944539.000000
945487.000000
946372.000000
947280.000000
948205.000000
949062.000000
949950.000000
950871.000000
951735.000000
952630.000000
953558.000000
954462.000000
955398.000000
956371.000000
957279.000000
958208.000000
959125.000000
960011.000000
960852.000000
961694.000000
962571.000000
963452.000000
964362.000000
965310.000000
966247.000000
967162.000000
968109.000000
969018.000000
969869.000000
970732.000000
971613.000000
972483.000000
973409.000000
974393.000000
975353.000000
976266.000000
977212.000000
978172.000000
979080.000000
980012.000000
980934.000000
981821.000000
982730.000000
983698.000000
984622.000000
985561.000000
986500.000000
987404.000000
988268.000000
989169.000000
990114.000000
990984.000000
991854.000000
992799.000000
993738.000000
994606.000000
995480.000000
996368.000000
997205.000000
998060.000000
998968.000000
999896.000000
1000801.000000
1001750.000000
1002677.000000
1003562.000000
1004509.000000
1005488.000000
1006404.000000
1007326.000000
1008265.000000
1009174.000000
1010040.000000
1010957.000000
1011934.000000
1012879.000000
1013869.000000
1014847.000000
1015768.000000
1016744.000000
1017694.000000
1018582.000000
1019474.000000
1020404.000000
1021288.000000
1022110.000000
1022957.000000
1023872.000000
1024758.000000
1025660.000000
1026608.000000
1027562.000000
1028462.000000
1029404.000000
1030371.000000
1031272.000000
1032167.000000
1033062.000000
1033926.000000
1034747.000000
1035589.000000
1036499.000000
1037425.000000
1038343.000000
1039314.000000
1040291.000000
1041253.000000
1042168.000000
1043099.000000
1044006.000000
1044846.000000
1045690.000000
1046554.000000
1047407.000000
1048292.000000
1049210.000000
1050092.000000
1050931.000000
1051817.000000
1052686.000000
1053493.000000
1054335.000000
1055286.000000
1056188.000000
1057086.000000
1057986.000000
1058834.000000
1059636.000000
1060454.000000
1061377.000000
1062261.000000
1063077.000000
1063898.000000
1064782.000000
1065630.000000
1066520.000000
1067423.000000
1068248.000000
1069125.000000
1070061.000000
1070961.000000
1071851.000000
1072790.000000
1073724.000000
1074652.000000
1075732.000000
1076832.000000
1077855.000000
1078911.000000
1079918.000000
1080897.000000
1081873.000000
1082843.000000
1083711.000000
1084612.000000
1085520.000000
1086392.000000
1087311.000000
1088279.000000
1089207.000000
1090084.000000
1090964.000000
1091873.000000
1092753.000000
1093685.000000
1094699.000000
1095670.000000
1096574.000000
1097486.000000
1098415.000000
1099291.000000
1100179.000000
1101079.000000
1101929.000000
1102739.000000
1103575.000000
1104540.000000
1105463.000000
1106454.000000
1107472.000000
1108464.000000
1109357.000000
1110285.000000
1111191.000000
1111993.000000
1112796.000000
1113711.000000
1114610.000000
1115538.000000
1116506.000000
1117457.000000
1118392.000000
1119377.000000
1120345.000000
1121257.000000
1122190.000000
1123150.000000
1124069.000000
1125006.000000
1125994.000000
1126997.000000
1127974.000000
1129037.000000
1130064.000000
1131041.000000
1132051.000000
1133054.000000
1133991.000000
1134932.000000
1135887.000000
1136834.000000
1137749.000000
1138720.000000
1139695.000000
1140617.000000
1141537.000000
1142516.000000
1143489.000000
1144396.000000
1145306.000000
1146243.000000
1147123.000000
1148027.000000
1148956.000000
1149868.000000
1150799.000000
1151797.000000
1152777.000000
1153665.000000
1154559.000000
1155447.000000
1156266.000000
1157142.000000
1158116.000000
1159045.000000
1159981.000000
1160915.000000
1161789.000000
1162607.000000
1163424.000000
1164266.000000
1165090.000000
1165933.000000
1166913.000000
1167874.000000
1168800.000000
1169756.000000
1170665.000000
1171510.000000
1172389.000000
1173308.000000
1174211.000000
1175141.000000
1176136.000000
1177086.000000
1178009.000000
1178973.000000
1179919.000000
1180796.000000
1181701.000000
1182637.000000
1183511.000000
1184378.000000
1185304.000000
1186222.000000
1187089.000000
1187995.000000
1188902.000000
1189739.000000
1190619.000000
1191529.000000
1192396.000000
1193324.000000
1194282.000000
1195173.000000
1196102.000000
1197067.000000
1197975.000000
1198907.000000
1199866.000000
1200767.000000
1201661.000000
1202595.000000
1203546.000000
1204440.000000
1205348.000000
1206288.000000
1207214.000000
1208064.000000
1208946.000000
1209881.000000
1210827.000000
1211692.000000
1212564.000000
1213446.000000
1214290.000000
1215149.000000
1216108.000000
1217099.000000
1218029.000000
1218979.000000
1219938.000000
1220875.000000
1221763.000000
1222650.000000
1223555.000000
1224401.000000
1225273.000000
1226186.000000
1227141.000000
1228089.000000
1229074.000000
1230036.000000
1230925.000000
1231816.000000
1232747.000000
1233650.000000
1234557.000000
1235515.000000
1236450.000000
1237319.000000
1238160.000000
1239018.000000
1239879.000000
1240731.000000
1241737.000000
1242808.000000
1243773.000000
1244787.000000
1245782.000000
1246764.000000
1247766.000000
1248744.000000
1249682.000000
1250659.000000
1251618.000000
1252537.000000
1253503.000000
1254466.000000
1255391.000000
1256377.000000
1257346.000000
1258252.000000
1259146.000000
1260079.000000
1260964.000000
1261892.000000
1262841.000000
1263746.000000
1264686.000000
1265608.000000
1266487.000000
1267411.000000
1268351.000000
1269250.000000
1270179.000000
1271144.000000
1272092.000000
1273056.000000
1273996.000000
1274880.000000
1275780.000000
1276690.000000
1277555.000000
1278435.000000
1279347.000000
1280229.000000
1281066.000000
1281923.000000
1282845.000000
1283750.000000
1284723.000000
1285687.000000
1286585.000000
1287473.000000
1288363.000000
1289193.000000
1290013.000000
1290880.000000
1291835.000000
1292780.000000
1293780.000000
1294762.000000
1295661.000000
1296575.000000
1297563.000000
1298490.000000
1299423.000000
1300400.000000
1301331.000000
1302249.000000
1303196.000000
1304175.000000
1305081.000000
1305998.000000
1306941.000000
1307854.000000
1308702.000000
1309554.000000
1310465.000000
1311373.000000
1312385.000000
1313468.000000
1314524.000000
1315506.000000
1316497.000000
1317467.000000
1318349.000000
1319250.000000
1320216.000000
1321170.000000
1322233.000000
1323306.000000
1324290.000000
1325331.000000
1326381.000000
1327352.000000
1328328.000000
1329309.000000
1330256.000000
1331208.000000
1332213.000000
1333205.000000
1334150.000000
1335107.000000
1336073.000000
1336999.000000
1337851.000000
1338755.000000
1339749.000000
1340700.000000
1341660.000000
1342644.000000
1343574.000000
1344526.000000
1345494.000000
1346412.000000
1347300.000000
1348209.000000
1349137.000000
1350022.000000
1350958.000000
1351960.000000
1352894.000000
1353848.000000
1354793.000000
1355680.000000
1356545.000000
1357469.000000
1358398.000000
1359307.000000
1360261.000000
1361230.000000
1362140.000000
1363072.000000
1364006.000000
1364886.000000
1365802.000000
1366781.000000
1367764.000000
1368673.000000
1369643.000000
1370633.000000
1371554.000000
1372490.000000
1373427.000000
1374352.000000
1375226.000000
1376201.000000
1377209.000000
1378195.000000
1379153.000000
1380160.000000
1381174.000000
1382132.000000
1383113.000000
1384071.000000
1384985.000000
1385899.000000
1386806.000000
1387676.000000
1388584.000000
1389576.000000
1390549.000000
1391547.000000
1392586.000000
1393583.000000
1394532.000000
1395531.000000
1396548.000000
1397502.000000
1398468.000000
1399436.000000
1400349.000000
1401260.000000
1402228.000000
1403215.000000
1404169.000000
1405175.000000
1406186.000000
1407151.000000
1408061.000000
1408981.000000
1409906.000000
1410821.000000
1411821.000000
1412823.000000
1413760.000000
1414737.000000
1415724.000000
1416646.000000
1417586.000000
1418550.000000
1419475.000000
1420400.000000
1421355.000000
1422296.000000
1423199.000000
1424136.000000
1425117.000000
1426032.000000
1426943.000000
1427889.000000
1428824.000000
1429722.000000
1430670.000000
1431642.000000
1432577.000000
1433575.000000
1434567.000000
1435500.000000
1436405.000000
1437334.000000
1438288.000000
1439218.000000
1440213.000000
1441220.000000
1442171.000000
1443161.000000
1444129.000000
1445056.000000
1446055.000000
1447059.000000
1447986.000000
1448939.000000
1449928.000000
1450884.000000
1451792.000000
1452740.000000
1453705.000000
1454623.000000
1455536.000000
1456462.000000
1457367.000000
1458213.000000
1459062.000000
1459944.000000
1460846.000000
1461715.000000
1462634.000000
1463586.000000
1464494.000000
1465420.000000
1466399.000000
1467333.000000
1468201.000000
1469065.000000
1469942.000000
1470786.000000
1471613.000000
1472514.000000
1473472.000000
1474412.000000
1475303.000000
1476222.000000
1477163.000000
1478063.000000
1478889.000000
1479709.000000
1480543.000000
1481352.000000
1482177.000000
1483085.000000
1484061.000000
1485004.000000
1485970.000000
1486946.000000
1487850.000000
1488799.000000
1489767.000000
1490688.000000
1491647.000000
1492660.000000
1493650.000000
1494542.000000
1495431.000000
1496317.000000
1497152.000000
1497992.000000
1498989.000000
1500007.000000
1500996.000000
1502013.000000
1503020.000000
1503951.000000
1504901.000000
1505828.000000
1506673.000000
1507523.000000
1508442.000000
1509326.000000
1510183.000000
1511074.000000
1512025.000000
1512947.000000
1513933.000000
1514951.000000
1515897.000000
1516867.000000
1517865.000000
1518784.000000
1519694.000000
1520632.000000
1521585.000000
1522445.000000
1523315.000000
1524255.000000
1525183.000000
1526123.000000
1527075.000000
1527941.000000
1528815.000000
1529699.000000
1530542.000000
1531403.000000
1532351.000000
1533341.000000
1534271.000000
1535220.000000
1536168.000000
1537072.000000
1537969.000000
1538886.000000
1539780.000000
1540613.000000
1541460.000000
1542390.000000
1543302.000000
1544144.000000
1544983.000000
1545838.000000
1546656.000000
1547506.000000
1548430.000000
1549324.000000
1550182.000000
1551097.000000
1551943.000000
1552808.000000
1553714.000000
1554591.000000
1555442.000000
1556384.000000
1557350.000000
1558277.000000
1559218.000000
1560203.000000
1561173.000000
1562079.000000
1563000.000000
1563955.000000
1564884.000000
1565824.000000
1566749.000000
1567607.000000
1568460.000000
1569303.000000
1570132.000000
1570993.000000
1571851.000000
1572676.000000
1573557.000000
1574461.000000
1575347.000000
1576308.000000
1577250.000000
1578136.000000
1579029.000000
1579935.000000
1580807.000000
1581722.000000
1582725.000000
1583688.000000
1584677.000000
1585647.000000
1586538.000000
1587419.000000
1588324.000000
1589203.000000
1590151.000000
1591148.000000
1592126.000000
1593053.000000
1593995.000000
1594941.000000
1595855.000000
1596757.000000
1597706.000000
1598705.000000
1599689.000000
1600704.000000
1601729.000000
1602684.000000
1603656.000000
1604644.000000
1605572.000000
1606451.000000
1607371.000000
1608301.000000
1609179.000000
1610086.000000
1611062.000000
1611975.000000
1612900.000000
1613889.000000
1614824.000000
1615723.000000
1616697.000000
1617674.000000
1618582.000000
1619502.000000
1620472.000000
1621453.000000
1622377.000000
1623300.000000
1624226.000000
1625155.000000
1626041.000000
1626982.000000
1627971.000000
1628908.000000
1629875.000000
1630824.000000
1631690.000000
1632575.000000
1633522.000000
1634469.000000
1635502.000000
1636556.000000
1637559.000000
1638568.000000
1639538.000000
1640430.000000
1641335.000000
1642314.000000
1643265.000000
1644219.000000
1645225.000000
1646201.000000
1647102.000000
1648016.000000
1648941.000000
1649791.000000
1650627.000000
1651565.000000
1652556.000000
1653453.000000
1654432.000000
1655451.000000
1656438.000000
1657422.000000
1658388.000000
1659269.000000
1660199.000000
1661186.000000
1662138.000000
1663134.000000
1664135.000000
1665068.000000
1666016.000000
1666993.000000
1667915.000000
1668840.000000
1669741.000000
1670587.000000
1671497.000000
1672439.000000
1673366.000000
1674341.000000
1675293.000000
1676218.000000
1677151.000000
1678030.000000
1678891.000000
1679772.000000
1680668.000000
1681546.000000
1682498.000000
1683498.000000
1684462.000000
1685460.000000
1686446.000000
1687372.000000
1688346.000000
1689314.000000
1690222.000000
1691127.000000
1692036.000000
1692882.000000
1693721.000000
1694643.000000
1695619.000000
1696547.000000
1697503.000000
1698475.000000
1699396.000000
1700295.000000
1701199.000000
1702124.000000
1702997.000000
1703884.000000
1704847.000000
1705753.000000
1706680.000000
1707652.000000
1708589.000000
1709478.000000
1710413.000000
1711407.000000
1712383.000000
1713315.000000
1714267.000000
1715241.000000
1716167.000000
1717113.000000
1718077.000000
1719001.000000
1720001.000000
1721018.000000
1721973.000000
1722967.000000
1723942.000000
1724863.000000
1725824.000000
1726787.000000
1727666.000000
1728554.000000
1729470.000000
1730345.000000
1731271.000000
1732186.000000
1733043.000000
1733849.000000
1734688.000000
1735595.000000
1736472.000000
1737393.000000
1738352.000000
1739255.000000
1740185.000000
1741140.000000
1742046.000000
1742953.000000
1743880.000000
1744752.000000
1745626.000000
1746588.000000
1747551.000000
1748474.000000
1749411.000000
1750327.000000
1751180.000000
1752030.000000
1752941.000000
1753851.000000
1754706.000000
1755568.000000
1756444.000000
1757286.000000
1758128.000000
1759040.000000
1759951.000000
1760867.000000
1761787.000000
1762668.000000
1763475.000000
1764287.000000
1765126.000000
1765966.000000
1766834.000000
1767780.000000
1768735.000000
1769646.000000
1770592.000000
1771555.000000
1772449.000000
1773345.000000
1774251.000000
1775124.000000
1775951.000000
1776858.000000
1777777.000000
1778638.000000
1779467.000000
1780348.000000
1781300.000000
1782208.000000
1783088.000000
1783998.000000
1784889.000000
1785731.000000
1786638.000000
1787610.000000
1788518.000000
1789462.000000
1790435.000000
1791362.000000
1792274.000000
1793217.000000
1794123.000000
1794985.000000
1795852.000000
1796751.000000
1797611.000000
1798542.000000
1799508.000000
1800421.000000
