ECG (ms)
825.000000
1808.000000
2810.000000
3830.000000
4812.000000
5787.000000
6811.000000
7842.000000
8832.000000
9790.000000
10797.000000
11804.000000
12808.000000
13790.000000
14808.000000
15833.000000
16871.000000
17866.000000
18844.000000
19863.000000
20893.000000
21911.000000
22915.000000
23925.000000
24943.000000
25961.000000
26941.000000
27937.000000
28945.000000
29949.000000
30923.000000
31921.000000
32949.000000
33993.000000
35003.000000
35978.000000
36985.000000
38002.000000
39003.000000
39976.000000
40978.000000
41989.000000
43003.000000
43978.000000
44958.000000
45949.000000
46949.000000
47928.000000
48885.000000
49890.000000
50896.000000
51903.000000
52862.000000
53795.000000
54761.000000
55752.000000
56725.000000
57666.000000
58629.000000
59615.000000
60609.000000
61576.000000
62529.000000
63502.000000
64488.000000
65439.000000
66372.000000
67324.000000
68286.000000
69244.000000
70168.000000
71112.000000
72078.000000
73059.000000
74024.000000
74956.000000
75919.000000
76887.000000
77892.000000
78889.000000
79881.000000
80896.000000
81921.000000
82930.000000
83920.000000
84929.000000
85964.000000
86987.000000
87984.000000
89015.000000
90048.000000
91056.000000
92019.000000
93009.000000
94019.000000
95016.000000
96000.000000
97024.000000
98062.000000
99092.000000
100081.000000
101085.000000
102116.000000
103157.000000
104157.000000
105135.000000
106152.000000
107185.000000
108216.000000
109216.000000
110246.000000
111302.000000
112386.000000
113444.000000
114469.000000
115528.000000
116588.000000
117643.000000
118661.000000
119666.000000
120689.000000
121725.000000
122756.000000
123740.000000
124754.000000
125791.000000
126861.000000
127933.000000
128955.000000
130000.000000
131079.000000
132161.000000
133196.000000
134227.000000
135303.000000
136375.000000
137434.000000
138452.000000
139487.000000
140555.000000
141628.000000
142678.000000
143701.000000
144741.000000
145802.000000
146875.000000
147913.000000
148960.000000
150032.000000
151106.000000
152151.000000
153197.000000
154273.000000
155385.000000
156470.000000
157510.000000
158584.000000
159660.000000
160728.000000
161745.000000
162783.000000
163847.000000
164909.000000
165955.000000
166970.000000
168023.000000
169084.000000
170138.000000
171162.000000
172178.000000
173233.000000
174303.000000
175365.000000
176411.000000
177470.000000
178536.000000
179600.000000
180608.000000
181631.000000
182677.000000
183741.000000
184776.000000
185777.000000
186808.000000
187861.000000
188893.000000
189900.000000
190890.000000
191911.000000
192958.000000
193988.000000
194994.000000
196046.000000
197115.000000
198158.000000
199161.000000
200195.000000
201242.000000
202272.000000
203268.000000
204291.000000
205333.000000
206347.000000
207333.000000
208357.000000
209395.000000
210422.000000
211414.000000
212439.000000
213472.000000
214484.000000
215478.000000
216498.000000
217542.000000
218574.000000
219567.000000
220571.000000
221603.000000
222642.000000
223648.000000
224631.000000
225664.000000
226712.000000
227740.000000
228758.000000
229813.000000
230877.000000
231928.000000
232975.000000
233985.000000
234910.000000
235889.000000
236857.000000
237823.000000
238847.000000
239892.000000
240955.000000
241987.000000
242997.000000
244064.000000
245142.000000
246204.000000
247234.000000
248271.000000
249359.000000
250438.000000
251503.000000
252535.000000
253586.000000
254650.000000
255718.000000
256754.000000
257813.000000
258879.000000
259931.000000
260949.000000
261991.000000
263055.000000
264127.000000
265155.000000
266156.000000
267205.000000
268267.000000
269319.000000
270330.000000
271363.000000
272414.000000
273478.000000
274545.000000
275570.000000
276616.000000
277692.000000
278785.000000
279839.000000
280882.000000
281954.000000
283030.000000
284076.000000
285102.000000
286167.000000
287250.000000
288297.000000
289326.000000
290391.000000
291466.000000
292523.000000
293569.000000
294650.000000
295735.000000
296783.000000
297814.000000
298878.000000
299965.000000
301036.000000
302080.000000
303141.000000
304214.000000
305280.000000
306298.000000
307341.000000
308403.000000
309441.000000
310466.000000
311514.000000
312586.000000
313603.000000
314618.000000
315669.000000
316734.000000
317760.000000
318761.000000
319800.000000
320859.000000
321911.000000
322930.000000
323975.000000
325048.000000
326105.000000
327120.000000
328124.000000
329158.000000
330182.000000
331167.000000
332155.000000
333167.000000
334219.000000
335242.000000
336234.000000
337272.000000
338310.000000
339320.000000
340311.000000
341329.000000
342367.000000
343397.000000
344385.000000
345416.000000
346474.000000
347521.000000
348530.000000
349564.000000
350606.000000
351626.000000
352620.000000
353652.000000
354687.000000
355714.000000
356714.000000
357753.000000
358806.000000
359855.000000
360886.000000
361935.000000
363004.000000
364073.000000
365102.000000
366147.000000
367222.000000
368294.000000
369334.000000
370355.000000
371380.000000
372309.000000
373263.000000
374260.000000
375256.000000
376275.000000
377331.000000
378411.000000
379447.000000
380476.000000
381554.000000
382613.000000
383659.000000
384671.000000
385721.000000
386799.000000
387855.000000
388891.000000
389960.000000
391030.000000
392095.000000
393127.000000
394191.000000
395278.000000
396372.000000
397437.000000
398491.000000
399576.000000
400684.000000
401747.000000
402826.000000
403920.000000
405017.000000
406068.000000
407144.000000
408269.000000
409374.000000
410423.000000
411459.000000
412534.000000
413633.000000
414700.000000
415739.000000
416837.000000
417966.000000
419042.000000
420114.000000
421223.000000
422334.000000
423429.000000
424482.000000
425547.000000
426646.000000
427751.000000
428835.000000
429928.000000
431025.000000
432093.000000
433136.000000
434222.000000
435311.000000
436361.000000
437391.000000
438463.000000
439541.000000
440599.000000
441668.000000
442777.000000
443883.000000
444951.000000
445973.000000
446997.000000
448051.000000
449115.000000
450140.000000
451199.000000
452273.000000
453337.000000
454362.000000
455406.000000
456478.000000
457559.000000
458596.000000
459654.000000
460725.000000
461796.000000
462827.000000
463893.000000
464967.000000
466027.000000
467064.000000
468120.000000
469171.000000
470112.000000
471085.000000
472059.000000
473025.000000
474056.000000
475117.000000
476173.000000
477213.000000
478296.000000
479396.000000
480494.000000
481538.000000
482555.000000
483609.000000
484678.000000
485725.000000
486757.000000
487852.000000
488957.000000
490029.000000
491081.000000
492169.000000
493259.000000
494329.000000
495378.000000
496457.000000
497547.000000
498624.000000
499669.000000
500779.000000
501894.000000
503008.000000
504077.000000
505140.000000
506239.000000
507343.000000
508429.000000
509515.000000
510625.000000
511739.000000
512808.000000
513893.000000
514988.000000
516064.000000
517109.000000
518171.000000
519269.000000
520344.000000
521377.000000
522473.000000
523558.000000
524613.000000
525657.000000
526743.000000
527842.000000
528927.000000
529995.000000
531116.000000
532240.000000
533361.000000
534437.000000
535532.000000
536633.000000
537705.000000
538788.000000
539878.000000
540954.000000
542008.000000
543136.000000
544263.000000
545381.000000
546451.000000
547564.000000
548689.000000
549781.000000
550838.000000
551925.000000
553028.000000
554106.000000
555172.000000
556275.000000
557383.000000
558454.000000
559557.000000
560671.000000
561748.000000
562805.000000
563895.000000
565002.000000
566091.000000
567158.000000
568279.000000
569398.000000
570497.000000
571553.000000
572642.000000
573741.000000
574789.000000
575847.000000
576930.000000
578038.000000
579111.000000
580151.000000
581230.000000
582341.000000
583424.000000
584490.000000
585621.000000
586763.000000
587918.000000
589003.000000
590062.000000
591160.000000
592269.000000
593341.000000
594364.000000
595425.000000
596504.000000
597556.000000
598585.000000
599680.000000
600796.000000
601880.000000
602916.000000
604002.000000
605104.000000
606182.000000
607218.000000
608301.000000
609399.000000
610478.000000
611540.000000
612635.000000
613765.000000
614851.000000
615914.000000
617007.000000
618108.000000
619161.000000
620225.000000
621247.000000
622183.000000
623171.000000
624167.000000
625160.000000
626212.000000
627305.000000
628360.000000
629386.000000
630442.000000
631526.000000
632573.000000
633615.000000
634705.000000
635787.000000
636845.000000
637897.000000
638988.000000
640098.000000
641159.000000
642194.000000
643271.000000
644348.000000
645384.000000
646392.000000
647467.000000
648567.000000
649637.000000
650679.000000
651763.000000
652896.000000
653986.000000
655015.000000
656075.000000
657172.000000
658293.000000
659366.000000
660437.000000
661566.000000
662685.000000
663748.000000
664821.000000
665922.000000
667030.000000
668088.000000
669167.000000
670278.000000
671369.000000
672440.000000
673561.000000
674696.000000
675791.000000
676848.000000
677948.000000
679058.000000
680138.000000
681213.000000
682331.000000
683455.000000
684539.000000
685611.000000
686703.000000
687801.000000
688894.000000
689944.000000
691054.000000
692192.000000
693295.000000
694381.000000
695493.000000
696601.000000
697672.000000
698769.000000
699917.000000
701088.000000
702196.000000
703285.000000
704387.000000
705444.000000
706497.000000
707592.000000
708728.000000
709837.000000
710935.000000
712041.000000
713167.000000
714243.000000
715301.000000
716391.000000
717482.000000
718556.000000
719669.000000
720812.000000
721932.000000
723020.000000
724136.000000
725250.000000
726337.000000
727401.000000
728487.000000
729565.000000
730609.000000
731684.000000
732777.000000
733837.000000
734916.000000
735992.000000
737034.000000
738151.000000
739264.000000
740348.000000
741414.000000
742514.000000
743614.000000
744660.000000
745736.000000
746856.000000
747960.000000
749014.000000
750050.000000
751140.000000
752236.000000
753305.000000
754365.000000
755498.000000
756648.000000
757757.000000
758859.000000
759981.000000
761117.000000
762221.000000
763290.000000
764389.000000
765525.000000
766626.000000
767689.000000
768728.000000
769808.000000
770914.000000
771996.000000
773062.000000
774167.000000
775266.000000
776330.000000
777373.000000
778457.000000
779572.000000
780634.000000
781680.000000
782777.000000
783888.000000
784961.000000
786017.000000
787075.000000
788143.000000
789192.000000
790240.000000
791322.000000
792399.000000
793418.000000
794441.000000
795516.000000
796605.000000
797664.000000
798747.000000
799829.000000
800883.000000
801930.000000
803032.000000
804152.000000
805216.000000
806280.000000
807355.000000
808430.000000
809469.000000
810510.000000
811602.000000
812704.000000
813767.000000
814844.000000
815933.000000
816988.000000
818014.000000
819105.000000
820213.000000
821286.000000
822331.000000
823394.000000
824467.000000
825509.000000
826576.000000
827692.000000
828795.000000
829862.000000
830978.000000
832092.000000
833171.000000
834207.000000
835276.000000
836369.000000
837434.000000
838496.000000
839622.000000
840736.000000
841807.000000
842893.000000
843996.000000
845110.000000
846190.000000
847317.000000
848454.000000
849551.000000
850630.000000
851760.000000
852875.000000
853950.000000
855012.000000
856098.000000
857165.000000
858119.000000
859108.000000
860103.000000
861114.000000
862219.000000
863352.000000
864462.000000
865527.000000
866633.000000
867754.000000
868846.000000
869902.000000
871009.000000
872121.000000
873199.000000
874265.000000
875359.000000
876446.000000
877486.000000
878537.000000
879645.000000
880759.000000
881812.000000
882858.000000
883948.000000
885045.000000
886114.000000
887200.000000
888329.000000
889460.000000
890551.000000
891604.000000
892682.000000
893794.000000
894894.000000
895977.000000
897031.000000
898108.000000
899212.000000
900311.000000
901383.000000
902494.000000
903617.000000
904726.000000
905810.000000
906954.000000
908051.000000
909100.000000
910173.000000
911293.000000
912443.000000
913540.000000
914612.000000
915724.000000
916859.000000
917941.000000
918998.000000
920101.000000
921238.000000
922351.000000
923408.000000
924470.000000
925595.000000
926697.000000
927751.000000
928846.000000
929954.000000
