ECG (ms)
986.000000
2100.000000
3120.000000
4215.000000
5300.000000
6297.000000
7354.000000
8460.000000
9522.000000
10593.000000
11655.000000
12691.000000
13808.000000
14798.000000
15878.000000
17041.000000
18144.000000
19171.000000
20267.000000
21365.000000
22415.000000
23499.000000
24624.000000
25646.000000
26663.000000
27794.000000
28911.000000
30004.000000
31011.000000
32175.000000
33337.000000
34419.000000
35401.000000
36401.000000
37500.000000
38595.000000
39619.000000
40665.000000
41771.000000
42913.000000
43952.000000
45008.000000
46129.000000
47233.000000
48272.000000
49343.000000
50494.000000
51630.000000
52663.000000
53716.000000
54813.000000
55931.000000
56962.000000
58054.000000
59172.000000
60243.000000
61244.000000
62359.000000
63519.000000
64638.000000
65686.000000
66800.000000
67934.000000
69030.000000
70047.000000
71161.000000
72267.000000
73310.000000
74331.000000
75431.000000
76575.000000
77675.000000
78775.000000
79953.000000
81086.000000
82125.000000
83187.000000
84332.000000
85440.000000
86472.000000
87482.000000
88562.000000
89668.000000
90711.000000
91729.000000
92893.000000
94094.000000
95191.000000
96242.000000
97337.000000
98434.000000
99475.000000
100462.000000
101554.000000
102757.000000
103890.000000
104941.000000
106067.000000
107155.000000
108165.000000
109156.000000
110276.000000
111356.000000
112396.000000
113409.000000
114552.000000
115642.000000
116662.000000
117699.000000
118788.000000
119835.000000
120800.000000
121814.000000
122847.000000
123868.000000
124846.000000
125854.000000
126913.000000
127953.000000
128936.000000
129894.000000
130959.000000
132013.000000
133017.000000
134015.000000
135066.000000
136173.000000
137230.000000
138213.000000
139244.000000
140301.000000
141311.000000
142254.000000
143238.000000
144274.000000
145286.000000
146242.000000
147213.000000
148275.000000
149316.000000
150313.000000
151260.000000
152283.000000
153328.000000
154333.000000
155270.000000
156252.000000
157299.000000
158370.000000
159358.000000
160314.000000
161339.000000
162412.000000
163441.000000
164388.000000
165429.000000
166502.000000
167516.000000
168466.000000
169449.000000
170501.000000
171510.000000
172482.000000
173483.000000
174536.000000
175554.000000
176539.000000
177546.000000
178670.000000
179815.000000
180855.000000
181842.000000
182956.000000
184068.000000
185117.000000
186115.000000
187167.000000
188275.000000
189313.000000
190322.000000
191419.000000
192541.000000
193665.000000
194687.000000
195777.000000
196917.000000
198013.000000
199021.000000
200076.000000
201166.000000
202221.000000
203218.000000
204280.000000
205409.000000
206478.000000
207467.000000
208532.000000
209630.000000
210703.000000
211734.000000
212876.000000
214032.000000
215094.000000
216157.000000
217300.000000
218403.000000
219447.000000
220494.000000
221593.000000
222724.000000
223822.000000
224852.000000
225922.000000
227072.000000
228192.000000
229207.000000
230192.000000
231301.000000
232448.000000
233533.000000
234578.000000
235697.000000
236876.000000
238023.000000
239058.000000
240115.000000
241246.000000
242350.000000
243391.000000
244463.000000
245672.000000
246824.000000
247886.000000
248943.000000
250093.000000
251229.000000
252290.000000
253295.000000
254432.000000
255563.000000
256648.000000
257684.000000
258803.000000
259956.000000
261069.000000
262075.000000
263151.000000
264344.000000
265484.000000
266545.000000
267712.000000
268906.000000
270025.000000
271071.000000
272214.000000
273386.000000
274462.000000
275474.000000
276620.000000
277783.000000
278854.000000
279889.000000
281044.000000
282190.000000
283234.000000
284234.000000
285355.000000
286481.000000
287529.000000
288621.000000
289768.000000
290968.000000
292068.000000
293091.000000
294199.000000
295352.000000
296423.000000
297413.000000
298385.000000
299607.000000
300845.000000
301966.000000
302998.000000
304087.000000
305196.000000
306269.000000
307282.000000
308293.000000
309386.000000
310498.000000
311547.000000
312564.000000
313710.000000
314909.000000
316030.000000
317065.000000
318104.000000
319202.000000
320304.000000
321326.000000
322308.000000
323372.000000
324514.000000
325619.000000
326631.000000
327683.000000
328871.000000
329996.000000
331039.000000
332106.000000
333183.000000
334276.000000
335326.000000
336346.000000
337567.000000
338791.000000
339917.000000
340925.000000
341979.000000
343089.000000
344187.000000
345209.000000
346181.000000
347247.000000
348400.000000
349511.000000
350543.000000
351656.000000
352846.000000
353981.000000
355008.000000
356023.000000
357106.000000
358197.000000
359236.000000
360243.000000
361456.000000
362696.000000
363802.000000
364798.000000
365843.000000
366975.000000
368047.000000
369042.000000
370117.000000
371314.000000
372449.000000
373507.000000
374556.000000
375687.000000
376774.000000
377799.000000
378851.000000
379936.000000
381052.000000
382083.000000
383051.000000
384090.000000
385196.000000
386291.000000
387300.000000
388394.000000
389571.000000
390709.000000
391754.000000
392822.000000
393987.000000
395126.000000
396148.000000
397218.000000
398366.000000
399498.000000
400519.000000
401566.000000
402798.000000
404006.000000
405127.000000
406185.000000
407373.000000
408583.000000
409729.000000
410818.000000
411980.000000
413146.000000
414309.000000
415400.000000
416608.000000
417843.000000
418963.000000
420007.000000
421135.000000
422321.000000
423468.000000
424518.000000
425646.000000
426839.000000
427959.000000
428979.000000
430048.000000
431212.000000
432344.000000
433392.000000
434522.000000
435727.000000
436878.000000
437918.000000
439019.000000
440200.000000
441285.000000
442209.000000
443113.000000
444260.000000
445426.000000
446490.000000
447503.000000
448626.000000
449746.000000
450775.000000
451731.000000
452723.000000
453829.000000
454903.000000
455888.000000
456833.000000
457851.000000
458896.000000
459891.000000
460832.000000
461872.000000
462975.000000
464109.000000
465120.000000
466112.000000
467188.000000
468269.000000
469319.000000
470274.000000
471265.000000
472409.000000
473552.000000
474558.000000
475599.000000
476767.000000
477905.000000
478949.000000
479916.000000
480945.000000
482044.000000
483088.000000
484075.000000
485121.000000
486255.000000
487349.000000
488351.000000
489303.000000
490375.000000
491524.000000
492604.000000
493610.000000
494719.000000
495872.000000
496968.000000
497952.000000
499025.000000
500157.000000
501239.000000
502252.000000
503349.000000
504495.000000
505607.000000
506639.000000
507706.000000
508859.000000
509996.000000
511082.000000
512206.000000
513375.000000
514515.000000
515589.000000
516674.000000
517831.000000
518952.000000
520015.000000
521179.000000
522383.000000
523512.000000
524564.000000
525695.000000
526885.000000
528033.000000
529077.000000
530182.000000
531329.000000
532408.000000
533462.000000
534601.000000
535759.000000
536855.000000
537885.000000
538950.000000
540085.000000
541189.000000
542226.000000
543288.000000
544431.000000
545612.000000
546748.000000
547865.000000
549046.000000
550223.000000
551316.000000
552374.000000
553522.000000
554691.000000
555795.000000
556858.000000
558009.000000
559167.000000
560301.000000
561354.000000
562463.000000
563676.000000
564846.000000
565932.000000
567058.000000
568271.000000
569431.000000
570433.000000
571369.000000
572305.000000
573255.000000
574276.000000
575223.000000
576241.000000
577400.000000
578506.000000
579572.000000
580586.000000
581652.000000
582777.000000
583828.000000
584803.000000
585686.000000
586535.000000
587671.000000
588796.000000
589841.000000
590927.000000
592057.000000
593122.000000
594112.000000
595162.000000
596299.000000
597362.000000
598349.000000
599430.000000
600621.000000
601728.000000
602750.000000
603901.000000
605057.000000
606111.000000
607138.000000
608288.000000
609439.000000
610523.000000
611571.000000
612718.000000
613854.000000
614898.000000
615904.000000
617090.000000
618278.000000
619364.000000
620503.000000
621700.000000
622808.000000
623837.000000
624942.000000
626131.000000
627207.000000
628231.000000
629397.000000
630529.000000
631628.000000
632712.000000
633891.000000
635050.000000
636114.000000
637255.000000
638469.000000
639639.000000
640680.000000
641808.000000
643007.000000
644107.000000
645172.000000
646358.000000
647543.000000
648672.000000
649729.000000
650879.000000
652098.000000
653250.000000
654320.000000
655544.000000
656768.000000
657886.000000
658924.000000
660029.000000
661219.000000
662357.000000
663395.000000
664477.000000
665667.000000
666890.000000
668007.000000
669126.000000
670362.000000
671566.000000
672642.000000
673753.000000
674933.000000
676078.000000
677145.000000
678347.000000
679566.000000
680707.000000
681729.000000
682828.000000
684013.000000
685149.000000
686202.000000
687303.000000
688428.000000
689509.000000
690555.000000
691761.000000
692948.000000
694058.000000
695109.000000
696277.000000
697468.000000
698612.000000
699677.000000
700897.000000
702119.000000
703259.000000
704343.000000
705370.000000
706520.000000
707765.000000
708961.000000
710047.000000
711143.000000
712352.000000
713534.000000
714646.000000
715669.000000
716733.000000
717887.000000
719064.000000
720139.000000
721128.000000
722183.000000
723394.000000
724561.000000
725610.000000
726721.000000
727922.000000
729063.000000
730119.000000
731201.000000
732370.000000
733502.000000
734532.000000
735586.000000
736756.000000
737923.000000
738948.000000
740025.000000
741180.000000
742305.000000
743353.000000
744377.000000
745462.000000
746546.000000
747606.000000
748595.000000
749714.000000
750882.000000
751983.000000
752985.000000
754062.000000
755200.000000
756314.000000
757328.000000
758362.000000
759502.000000
760627.000000
761667.000000
762729.000000
763857.000000
764971.000000
766014.000000
767071.000000
768307.000000
769519.000000
770676.000000
771733.000000
772881.000000
774110.000000
775254.000000
776270.000000
777396.000000
778573.000000
779686.000000
780755.000000
781903.000000
783030.000000
784078.000000
785131.000000
786424.000000
787649.000000
788744.000000
789833.000000
791012.000000
792179.000000
793264.000000
794293.000000
795419.000000
796588.000000
797721.000000
798799.000000
799936.000000
801138.000000
802315.000000
803415.000000
804428.000000
805557.000000
806737.000000
807816.000000
808819.000000
809956.000000
811071.000000
812133.000000
813160.000000
814339.000000
815515.000000
816586.000000
817662.000000
818813.000000
819976.000000
821048.000000
822055.000000
823180.000000
824380.000000
825498.000000
826537.000000
827645.000000
828876.000000
830007.000000
831000.000000
832069.000000
833324.000000
834473.000000
835500.000000
836516.000000
837716.000000
838865.000000
839957.000000
841055.000000
842230.000000
843348.000000
844406.000000
845485.000000
846708.000000
847882.000000
848977.000000
850037.000000
851200.000000
852331.000000
853384.000000
854423.000000
855578.000000
856744.000000
857827.000000
858906.000000
860076.000000
861244.000000
862322.000000
863356.000000
864472.000000
865631.000000
866692.000000
867705.000000
868793.000000
870032.000000
871220.000000
872290.000000
873326.000000
874484.000000
875662.000000
876770.000000
877830.000000
879015.000000
880240.000000
881384.000000
882422.000000
883562.000000
884727.000000
885829.000000
886857.000000
887952.000000
889120.000000
890267.000000
891322.000000
892419.000000
893579.000000
894725.000000
895788.000000
896929.000000
898077.000000
899146.000000
900154.000000
901204.000000
902310.000000
903349.000000
904311.000000
905253.000000
906522.000000
907728.000000
908784.000000
909947.000000
911189.000000
912393.000000
913487.000000
914558.000000
915696.000000
916909.000000
918061.000000
919125.000000
920354.000000
921593.000000
922724.000000
923746.000000
924832.000000
926020.000000
927190.000000
928261.000000
929455.000000
930665.000000
931810.000000
932856.000000
933992.000000
935183.000000
936309.000000
937375.000000
938425.000000
939542.000000
940720.000000
941843.000000
942888.000000
943979.000000
945245.000000
946410.000000
947460.000000
948463.000000
949594.000000
950831.000000
951973.000000
953042.000000
954180.000000
955410.000000
956604.000000
957682.000000
958677.000000
959656.000000
960830.000000
962013.000000
963127.000000
964215.000000
965477.000000
966678.000000
967759.000000
968753.000000
969763.000000
970950.000000
972094.000000
973132.000000
974218.000000
975414.000000
976599.000000
977640.000000
978677.000000
979785.000000
980952.000000
982053.000000
983070.000000
984157.000000
985391.000000
986590.000000
987686.000000
988721.000000
989844.000000
990999.000000
992077.000000
993088.000000
994105.000000
995359.000000
996583.000000
997679.000000
998700.000000
999785.000000
1001085.000000
1002306.000000
1003416.000000
1004470.000000
1005666.000000
1006871.000000
1007991.000000
1009018.000000
1010019.000000
1011127.000000
1012303.000000
1013404.000000
1014415.000000
1015368.000000
1016539.000000
1017730.000000
1018885.000000
1019934.000000
1020947.000000
1022104.000000
1023325.000000
1024557.000000
1025682.000000
1026732.000000
1027846.000000
1029034.000000
1030204.000000
1031251.000000
1032291.000000
1033491.000000
1034688.000000
1035815.000000
1036878.000000
1038093.000000
1039327.000000
1040462.000000
1041498.000000
1042553.000000
1043714.000000
1044831.000000
1045836.000000
1046878.000000
1048027.000000
1049128.000000
1050162.000000
1051208.000000
1052399.000000
1053546.000000
1054571.000000
1055613.000000
1056749.000000
1057863.000000
1058895.000000
1059971.000000
1061093.000000
1062197.000000
1063213.000000
1064284.000000
1065383.000000
1066423.000000
1067410.000000
1068462.000000
1069603.000000
1070701.000000
1071674.000000
1072656.000000
1073786.000000
1074899.000000
1075950.000000
1076956.000000
1078066.000000
1079259.000000
1080385.000000
1081411.000000
1082479.000000
1083638.000000
1084794.000000
1085850.000000
1086874.000000
1088019.000000
1089167.000000
1090253.000000
1091264.000000
1092394.000000
1093540.000000
1094649.000000
1095658.000000
1096693.000000
1097866.000000
1099013.000000
1100033.000000
1101043.000000
1102180.000000
1103297.000000
1104308.000000
1105328.000000
1106606.000000
1107839.000000
1108924.000000
1110103.000000
1111321.000000
1112449.000000
1113473.000000
1114528.000000
1115645.000000
1116567.000000
1117429.000000
1118426.000000
1119420.000000
1120446.000000
1121573.000000
1122714.000000
1123814.000000
1124824.000000
1125876.000000
1126979.000000
1128046.000000
1129037.000000
1130016.000000
1131235.000000
1132410.000000
1133493.000000
1134528.000000
1135691.000000
1136850.000000
1137951.000000
1138971.000000
1140071.000000
1141237.000000
1142344.000000
1143360.000000
1144455.000000
1145636.000000
1146848.000000
1147954.000000
1149079.000000
1150227.000000
1151324.000000
1152332.000000
1153330.000000
1154387.000000
1155483.000000
1156542.000000
1157555.000000
1158619.000000
1159820.000000
1160979.000000
1162052.000000
1163107.000000
1164259.000000
1165370.000000
1166443.000000
1167480.000000
1168554.000000
1169692.000000
1170776.000000
1171786.000000
1172895.000000
1174075.000000
1175191.000000
1176211.000000
1177210.000000
1178298.000000
1179404.000000
1180440.000000
1181476.000000
1182651.000000
1183799.000000
1184910.000000
1185952.000000
1187069.000000
1188216.000000
1189275.000000
1190277.000000
1191301.000000
1192395.000000
1193477.000000
1194505.000000
1195509.000000
1196574.000000
1197703.000000
1198793.000000
1199835.000000
1200911.000000
1202068.000000
1203203.000000
