ECG (ms)
20.000000
851.000000
1664.000000
2489.000000
3324.000000
4149.000000
4982.000000
5811.000000
6628.000000
7446.000000
8245.000000
9061.000000
9886.000000
10683.000000
11501.000000
12322.000000
13147.000000
13978.000000
14807.000000
15626.000000
16444.000000
17257.000000
18076.000000
18885.000000
19673.000000
20455.000000
21220.000000
21992.000000
22780.000000
23573.000000
24391.000000
25195.000000
26040.000000
26852.000000
27648.000000
28463.000000
29264.000000
30082.000000
30907.000000
31734.000000
32547.000000
33376.000000
34208.000000
35022.000000
35836.000000
36661.000000
37476.000000
38317.000000
39166.000000
39999.000000
40839.000000
41697.000000
42544.000000
43397.000000
44221.000000
45056.000000
45891.000000
46719.000000
47533.000000
48331.000000
49117.000000
49890.000000
50678.000000
51474.000000
52257.000000
53045.000000
53851.000000
54676.000000
55494.000000
56323.000000
57134.000000
57952.000000
58772.000000
59604.000000
60430.000000
61234.000000
62030.000000
62835.000000
63634.000000
64431.000000
65236.000000
66041.000000
66836.000000
67635.000000
68416.000000
69186.000000
69934.000000
70686.000000
71469.000000
72258.000000
73069.000000
73889.000000
74685.000000
75495.000000
76319.000000
77127.000000
77933.000000
78736.000000
79545.000000
80359.000000
81169.000000
81992.000000
82820.000000
83638.000000
84470.000000
85314.000000
86146.000000
87004.000000
87862.000000
88701.000000
89557.000000
90408.000000
91244.000000
92095.000000
92943.000000
93775.000000
94617.000000
95438.000000
96236.000000
97043.000000
97843.000000
98640.000000
99411.000000
100210.000000
101036.000000
101871.000000
102741.000000
103570.000000
104431.000000
105294.000000
106127.000000
106968.000000
107791.000000
108606.000000
109405.000000
110221.000000
111021.000000
111840.000000
112654.000000
113466.000000
114292.000000
115109.000000
115929.000000
116740.000000
117548.000000
118348.000000
119150.000000
119941.000000
120705.000000
121460.000000
122231.000000
123023.000000
123843.000000
124664.000000
125490.000000
126299.000000
127104.000000
127916.000000
128707.000000
129502.000000
130298.000000
131085.000000
131874.000000
132668.000000
133463.000000
134288.000000
135123.000000
135953.000000
136807.000000
137647.000000
138478.000000
139337.000000
140185.000000
141017.000000
141868.000000
142698.000000
143516.000000
144342.000000
145161.000000
145982.000000
146809.000000
147639.000000
148451.000000
149266.000000
150100.000000
150917.000000
151734.000000
152547.000000
153325.000000
154092.000000
154892.000000
155713.000000
156542.000000
157364.000000
158175.000000
159015.000000
159828.000000
160636.000000
161463.000000
162283.000000
163093.000000
163906.000000
164722.000000
165549.000000
166380.000000
167203.000000
168032.000000
168878.000000
169713.000000
170620.000000
171509.000000
172370.000000
173241.000000
174112.000000
174950.000000
175790.000000
176646.000000
177471.000000
178319.000000
179158.000000
179980.000000
180805.000000
181638.000000
182456.000000
183284.000000
184103.000000
184909.000000
185720.000000
186557.000000
187401.000000
188227.000000
189098.000000
189966.000000
190806.000000
191628.000000
192427.000000
193205.000000
193979.000000
194761.000000
195552.000000
196337.000000
197137.000000
197934.000000
198739.000000
199554.000000
200363.000000
201180.000000
201974.000000
202771.000000
203636.000000
204487.000000
205324.000000
206156.000000
206996.000000
207821.000000
208635.000000
209470.000000
210295.000000
211112.000000
211939.000000
212765.000000
213594.000000
214430.000000
215268.000000
216108.000000
216929.000000
217782.000000
218619.000000
219445.000000
220286.000000
221114.000000
221932.000000
222737.000000
223558.000000
224389.000000
225201.000000
225983.000000
226746.000000
227521.000000
228316.000000
229106.000000
229915.000000
230743.000000
231560.000000
232391.000000
233220.000000
234055.000000
234903.000000
235750.000000
236582.000000
237417.000000
238242.000000
239047.000000
239861.000000
240657.000000
241437.000000
242197.000000
242956.000000
243739.000000
244527.000000
245323.000000
246103.000000
246889.000000
247682.000000
248477.000000
249280.000000
250110.000000
250923.000000
251759.000000
252587.000000
253408.000000
254258.000000
255089.000000
255913.000000
256728.000000
257562.000000
258381.000000
259203.000000
260029.000000
260860.000000
261692.000000
262515.000000
263341.000000
264173.000000
265019.000000
265867.000000
266703.000000
267539.000000
268370.000000
269211.000000
270030.000000
270867.000000
271689.000000
272486.000000
273256.000000
274015.000000
274799.000000
275598.000000
276411.000000
277221.000000
278050.000000
278898.000000
279748.000000
280583.000000
281435.000000
282259.000000
283106.000000
283919.000000
284731.000000
285543.000000
286364.000000
287184.000000
288019.000000
288861.000000
289694.000000
290544.000000
291375.000000
292247.000000
293118.000000
293983.000000
294836.000000
295712.000000
296543.000000
297402.000000
298257.000000
299112.000000
299973.000000
300829.000000
301663.000000
302499.000000
303332.000000
304126.000000
304916.000000
305720.000000
306540.000000
307356.000000
308178.000000
308993.000000
309830.000000
310658.000000
311469.000000
312279.000000
313090.000000
313903.000000
314698.000000
315500.000000
316309.000000
317129.000000
317939.000000
318741.000000
319555.000000
320373.000000
321196.000000
322019.000000
322819.000000
323600.000000
324362.000000
325119.000000
325891.000000
326674.000000
327464.000000
328262.000000
329046.000000
329848.000000
330654.000000
331448.000000
332245.000000
333043.000000
333830.000000
334632.000000
335428.000000
336228.000000
337045.000000
337865.000000
338672.000000
339488.000000
340319.000000
341139.000000
341994.000000
342835.000000
343668.000000
344518.000000
345342.000000
346175.000000
347009.000000
347827.000000
348642.000000
349452.000000
350254.000000
351061.000000
351878.000000
352685.000000
353487.000000
354294.000000
355114.000000
355931.000000
356753.000000
357552.000000
358361.000000
359154.000000
359936.000000
360701.000000
361501.000000
362309.000000
363128.000000
363979.000000
364808.000000
365642.000000
366461.000000
367285.000000
368091.000000
368913.000000
369720.000000
370523.000000
371326.000000
372126.000000
372928.000000
373745.000000
374549.000000
375364.000000
376189.000000
377008.000000
377849.000000
378691.000000
379515.000000
380345.000000
381154.000000
381951.000000
382737.000000
383497.000000
384266.000000
385060.000000
385878.000000
386695.000000
387509.000000
388337.000000
389158.000000
389974.000000
390779.000000
391583.000000
392376.000000
393158.000000
393944.000000
394719.000000
395499.000000
396288.000000
397091.000000
397907.000000
398722.000000
399536.000000
400342.000000
401145.000000
401964.000000
402782.000000
403599.000000
404439.000000
405265.000000
406085.000000
406929.000000
407764.000000
408578.000000
409392.000000
410204.000000
411023.000000
411821.000000
412611.000000
413380.000000
414135.000000
414891.000000
415664.000000
416447.000000
417291.000000
418102.000000
418933.000000
419763.000000
420572.000000
421373.000000
422178.000000
422982.000000
423788.000000
424597.000000
425405.000000
426222.000000
427058.000000
427875.000000
428721.000000
429565.000000
430397.000000
431213.000000
432002.000000
432770.000000
433537.000000
434332.000000
435131.000000
435952.000000
436761.000000
437576.000000
438410.000000
439224.000000
440056.000000
440888.000000
441720.000000
442564.000000
443404.000000
444216.000000
445041.000000
445858.000000
446655.000000
447435.000000
448204.000000
448982.000000
449779.000000
450603.000000
451441.000000
452282.000000
453116.000000
453953.000000
454770.000000
455579.000000
456395.000000
457211.000000
458033.000000
458857.000000
459676.000000
460498.000000
461330.000000
462172.000000
463019.000000
463853.000000
464687.000000
465537.000000
466398.000000
467245.000000
468119.000000
468980.000000
469816.000000
470670.000000
471505.000000
472336.000000
473179.000000
474007.000000
474824.000000
475631.000000
476422.000000
477201.000000
477966.000000
478743.000000
479534.000000
480336.000000
481167.000000
481990.000000
482824.000000
483641.000000
484463.000000
485282.000000
486076.000000
486865.000000
487649.000000
488411.000000
489190.000000
490011.000000
490830.000000
491674.000000
492509.000000
493365.000000
494238.000000
495084.000000
495926.000000
496780.000000
497611.000000
498461.000000
499358.000000
500228.000000
501089.000000
501958.000000
502792.000000
503639.000000
504493.000000
505326.000000
506160.000000
506995.000000
507830.000000
508659.000000
509487.000000
510304.000000
511124.000000
511943.000000
512754.000000
513535.000000
514321.000000
515105.000000
515904.000000
516708.000000
517520.000000
518334.000000
519146.000000
519965.000000
520759.000000
521527.000000
522286.000000
523066.000000
523841.000000
524630.000000
525428.000000
526217.000000
527029.000000
527839.000000
528647.000000
529445.000000
530250.000000
531060.000000
531865.000000
532663.000000
533471.000000
534270.000000
535087.000000
535917.000000
536771.000000
537616.000000
538473.000000
539318.000000
540158.000000
540988.000000
541809.000000
542626.000000
543414.000000
544181.000000
544946.000000
545736.000000
546537.000000
547378.000000
548238.000000
549060.000000
549904.000000
550726.000000
551525.000000
552328.000000
553133.000000
553924.000000
554730.000000
555539.000000
556340.000000
557139.000000
557940.000000
558749.000000
559560.000000
560389.000000
561206.000000
561984.000000
562766.000000
563562.000000
564368.000000
565188.000000
566009.000000
566827.000000
567636.000000
568438.000000
569233.000000
570025.000000
570826.000000
571617.000000
572397.000000
573172.000000
573944.000000
574728.000000
575548.000000
576361.000000
577201.000000
578027.000000
578860.000000
579702.000000
580530.000000
581364.000000
582207.000000
583020.000000
583833.000000
584640.000000
585433.000000
586208.000000
586980.000000
587750.000000
588546.000000
589355.000000
590195.000000
591017.000000
591845.000000
592688.000000
593502.000000
594327.000000
595144.000000
595961.000000
596794.000000
597641.000000
598465.000000
599297.000000
600149.000000
600990.000000
601833.000000
602677.000000
603532.000000
604378.000000
605243.000000
606078.000000
606933.000000
607805.000000
608672.000000
609518.000000
610370.000000
611211.000000
612037.000000
612863.000000
613707.000000
614538.000000
615367.000000
616173.000000
616979.000000
617777.000000
618544.000000
619301.000000
620069.000000
620866.000000
621684.000000
622538.000000
623375.000000
624248.000000
625147.000000
626005.000000
626907.000000
627776.000000
628630.000000
629498.000000
630345.000000
631182.000000
632015.000000
632862.000000
633704.000000
634531.000000
635375.000000
636222.000000
637070.000000
637884.000000
638712.000000
639553.000000
640390.000000
641238.000000
642073.000000
642886.000000
643681.000000
644460.000000
645246.000000
646044.000000
646845.000000
647670.000000
648493.000000
649305.000000
650115.000000
650948.000000
651767.000000
652577.000000
653393.000000
654213.000000
655015.000000
655835.000000
656650.000000
657452.000000
658279.000000
659125.000000
659956.000000
660789.000000
661621.000000
662459.000000
663281.000000
664082.000000
664870.000000
665647.000000
666441.000000
667258.000000
668091.000000
668960.000000
669859.000000
670710.000000
671568.000000
672417.000000
673236.000000
674062.000000
674881.000000
675688.000000
676508.000000
677343.000000
678200.000000
679046.000000
679880.000000
680738.000000
681605.000000
682431.000000
683277.000000
684120.000000
684958.000000
685781.000000
686605.000000
687421.000000
688247.000000
689069.000000
689923.000000
690764.000000
691593.000000
692454.000000
693315.000000
694151.000000
694980.000000
695814.000000
696628.000000
697459.000000
698288.000000
699116.000000
699941.000000
700795.000000
701642.000000
702479.000000
703336.000000
704174.000000
704991.000000
705801.000000
706616.000000
707418.000000
708223.000000
709003.000000
709760.000000
710524.000000
711318.000000
712126.000000
712933.000000
713744.000000
714559.000000
715353.000000
716171.000000
716962.000000
717757.000000
718550.000000
719339.000000
720124.000000
720914.000000
721721.000000
722515.000000
723320.000000
724127.000000
724931.000000
725744.000000
726562.000000
727365.000000
728171.000000
728990.000000
729812.000000
730613.000000
731435.000000
732268.000000
733077.000000
733906.000000
734745.000000
735566.000000
736405.000000
737262.000000
738078.000000
738901.000000
739710.000000
740493.000000
741269.000000
742055.000000
742863.000000
743674.000000
744497.000000
745304.000000
746122.000000
746954.000000
747773.000000
748594.000000
749416.000000
750238.000000
751058.000000
751875.000000
752696.000000
753518.000000
754336.000000
755175.000000
756031.000000
756929.000000
757781.000000
758645.000000
759510.000000
760398.000000
761275.000000
762140.000000
763020.000000
763887.000000
764754.000000
765647.000000
766524.000000
767366.000000
768212.000000
769064.000000
769895.000000
770715.000000
771535.000000
772353.000000
773164.000000
773986.000000
774811.000000
775635.000000
776474.000000
777306.000000
778138.000000
778993.000000
779823.000000
780629.000000
781417.000000
782220.000000
783034.000000
783852.000000
784678.000000
785482.000000
786301.000000
787117.000000
787929.000000
788750.000000
789578.000000
790397.000000
791218.000000
792042.000000
792895.000000
793719.000000
794542.000000
795372.000000
796181.000000
797003.000000
797823.000000
798638.000000
799453.000000
800265.000000
801085.000000
801901.000000
802735.000000
803552.000000
804339.000000
805112.000000
805903.000000
806705.000000
807518.000000
808334.000000
809150.000000
809950.000000
810754.000000
811556.000000
812364.000000
813169.000000
813975.000000
814781.000000
815583.000000
816391.000000
817214.000000
818038.000000
818860.000000
819692.000000
820532.000000
821352.000000
822195.000000
823041.000000
823888.000000
824722.000000
825568.000000
826409.000000
827237.000000
828075.000000
828902.000000
829730.000000
830554.000000
831376.000000
832205.000000
833045.000000
833863.000000
834674.000000
835489.000000
836283.000000
837063.000000
837831.000000
838610.000000
839401.000000
840265.000000
841121.000000
841961.000000
842809.000000
843661.000000
844495.000000
845328.000000
846160.000000
847000.000000
847829.000000
848665.000000
849508.000000
850338.000000
851149.000000
851971.000000
852783.000000
853601.000000
854422.000000
855238.000000
856066.000000
856906.000000
857769.000000
858642.000000
859485.000000
860305.000000
861133.000000
861964.000000
862793.000000
863617.000000
864415.000000
865196.000000
865964.000000
866741.000000
867519.000000
868301.000000
869094.000000
869889.000000
870704.000000
871517.000000
872351.000000
873174.000000
874004.000000
874848.000000
875686.000000
876522.000000
877378.000000
878213.000000
879046.000000
879899.000000
880722.000000
881538.000000
882336.000000
883113.000000
883911.000000
884729.000000
885540.000000
886382.000000
887213.000000
888043.000000
888885.000000
889721.000000
890557.000000
891385.000000
892239.000000
893088.000000
893952.000000
894801.000000
895664.000000
896524.000000
897396.000000
898240.000000
899109.000000
899946.000000
900759.000000
901588.000000
902424.000000
