ECG (ms)
613.000000
1512.000000
2439.000000
3436.000000
4431.000000
5388.000000
6388.000000
7433.000000
8447.000000
9419.000000
10385.000000
11390.000000
12385.000000
13343.000000
14294.000000
15281.000000
16265.000000
17197.000000
18121.000000
19062.000000
20023.000000
20970.000000
21889.000000
22840.000000
23804.000000
24757.000000
25691.000000
26676.000000
27718.000000
28722.000000
29668.000000
30620.000000
31591.000000
32569.000000
33508.000000
34450.000000
35416.000000
36419.000000
37402.000000
38338.000000
39314.000000
40317.000000
41305.000000
42265.000000
43252.000000
44257.000000
45249.000000
46192.000000
47142.000000
48121.000000
49111.000000
50046.000000
50995.000000
51946.000000
52918.000000
53818.000000
54730.000000
55670.000000
56627.000000
57555.000000
58474.000000
59413.000000
60359.000000
61297.000000
62206.000000
63166.000000
64149.000000
65117.000000
66043.000000
67003.000000
67951.000000
68888.000000
69806.000000
70773.000000
71767.000000
72765.000000
73737.000000
74729.000000
75721.000000
76679.000000
77595.000000
78516.000000
79442.000000
80382.000000
81290.000000
82210.000000
83165.000000
84159.000000
85128.000000
86124.000000
87066.000000
88033.000000
89008.000000
89917.000000
90855.000000
91804.000000
92731.000000
93650.000000
94605.000000
95573.000000
96513.000000
97447.000000
98380.000000
99300.000000
100209.000000
101150.000000
102099.000000
103024.000000
103930.000000
104894.000000
105883.000000
106837.000000
107784.000000
108795.000000
109800.000000
110741.000000
111704.000000
112683.000000
113615.000000
114548.000000
115519.000000
116457.000000
117365.000000
118315.000000
119246.000000
120150.000000
121075.000000
122027.000000
122994.000000
123918.000000
124860.000000
125852.000000
126846.000000
127790.000000
128724.000000
129669.000000
130639.000000
131569.000000
132486.000000
133445.000000
134388.000000
135304.000000
136217.000000
137145.000000
138051.000000
138935.000000
139851.000000
140788.000000
141677.000000
142569.000000
143484.000000
144412.000000
145303.000000
146190.000000
147112.000000
148039.000000
148949.000000
149850.000000
150779.000000
151704.000000
152610.000000
153525.000000
154461.000000
155382.000000
156283.000000
157196.000000
158126.000000
159010.000000
159907.000000
160802.000000
161665.000000
162485.000000
163277.000000
164099.000000
164958.000000
165828.000000
166771.000000
167761.000000
168742.000000
169765.000000
170837.000000
171884.000000
172848.000000
173778.000000
174780.000000
175790.000000
176785.000000
177729.000000
178668.000000
179650.000000
180667.000000
181656.000000
182612.000000
183614.000000
184638.000000
185685.000000
186650.000000
187639.000000
188659.000000
189691.000000
190706.000000
191684.000000
192686.000000
193704.000000
194668.000000
195609.000000
196565.000000
197576.000000
198561.000000
199494.000000
200449.000000
201456.000000
202478.000000
203469.000000
204431.000000
205433.000000
206440.000000
207422.000000
208350.000000
209320.000000
210302.000000
211295.000000
212237.000000
213172.000000
214106.000000
215032.000000
215943.000000
216836.000000
217778.000000
218727.000000
219688.000000
220606.000000
221529.000000
222480.000000
223444.000000
224367.000000
225267.000000
226209.000000
227165.000000
228128.000000
229059.000000
230022.000000
230990.000000
231970.000000
232902.000000
233823.000000
234817.000000
235809.000000
236758.000000
237685.000000
238683.000000
239686.000000
240627.000000
241588.000000
242562.000000
243521.000000
244467.000000
245435.000000
246391.000000
247366.000000
248341.000000
249288.000000
250268.000000
251266.000000
252275.000000
253251.000000
254241.000000
255248.000000
256204.000000
257171.000000
258185.000000
259198.000000
260164.000000
261100.000000
262085.000000
263069.000000
264044.000000
264959.000000
265899.000000
266882.000000
267882.000000
268860.000000
269787.000000
270743.000000
271736.000000
272735.000000
273684.000000
274618.000000
275625.000000
276610.000000
277606.000000
278555.000000
279511.000000
280510.000000
281525.000000
282495.000000
283471.000000
284494.000000
285514.000000
286471.000000
287424.000000
288422.000000
289419.000000
290359.000000
291290.000000
292247.000000
293206.000000
294147.000000
295086.000000
296056.000000
297047.000000
297995.000000
298927.000000
299916.000000
300911.000000
301873.000000
302801.000000
303744.000000
304708.000000
305680.000000
306610.000000
307561.000000
308527.000000
309478.000000
310394.000000
311360.000000
312318.000000
313254.000000
314168.000000
315120.000000
316075.000000
317013.000000
317920.000000
318882.000000
319873.000000
320838.000000
321761.000000
322721.000000
323692.000000
324630.000000
325541.000000
326498.000000
327441.000000
328357.000000
329256.000000
330187.000000
331134.000000
332082.000000
332995.000000
333913.000000
334866.000000
335813.000000
336745.000000
337659.000000
338627.000000
339600.000000
340539.000000
341453.000000
342404.000000
343355.000000
344277.000000
345170.000000
346091.000000
347025.000000
347961.000000
348859.000000
349784.000000
350778.000000
351769.000000
352705.000000
353642.000000
354635.000000
355615.000000
356572.000000
357483.000000
358436.000000
359424.000000
360457.000000
361422.000000
362367.000000
363387.000000
364369.000000
365351.000000
366284.000000
367250.000000
368213.000000
369167.000000
370079.000000
371024.000000
371988.000000
372941.000000
373859.000000
374788.000000
375738.000000
376679.000000
377586.000000
378507.000000
379466.000000
380425.000000
381344.000000
382268.000000
383215.000000
384155.000000
385054.000000
385946.000000
386871.000000
387830.000000
388761.000000
389670.000000
390614.000000
391563.000000
392512.000000
393413.000000
394334.000000
395288.000000
396232.000000
397132.000000
398046.000000
398983.000000
399903.000000
400805.000000
401706.000000
402628.000000
403548.000000
404453.000000
405359.000000
406291.000000
407194.000000
408063.000000
408964.000000
409883.000000
410832.000000
411756.000000
412665.000000
413581.000000
414528.000000
415453.000000
416396.000000
417350.000000
418314.000000
419232.000000
420131.000000
421077.000000
421992.000000
422906.000000
423791.000000
424704.000000
425612.000000
426512.000000
427389.000000
428301.000000
429239.000000
430161.000000
431051.000000
431959.000000
432888.000000
433786.000000
434670.000000
435590.000000
436527.000000
437449.000000
438346.000000
439303.000000
440306.000000
441278.000000
442246.000000
443267.000000
444273.000000
445238.000000
446201.000000
447197.000000
448169.000000
449104.000000
450030.000000
450994.000000
451993.000000
452938.000000
453901.000000
454889.000000
455883.000000
456825.000000
457789.000000
458772.000000
459750.000000
460693.000000
461682.000000
462673.000000
463627.000000
464574.000000
465538.000000
466509.000000
467446.000000
468390.000000
469381.000000
470377.000000
471342.000000
472269.000000
473231.000000
474223.000000
475201.000000
476139.000000
477085.000000
478088.000000
479068.000000
480006.000000
480989.000000
482019.000000
482982.000000
483942.000000
484961.000000
485987.000000
486957.000000
487895.000000
488908.000000
489953.000000
490991.000000
491971.000000
492940.000000
493921.000000
494914.000000
495845.000000
496748.000000
497652.000000
498562.000000
499474.000000
500370.000000
501238.000000
502114.000000
503022.000000
503935.000000
504871.000000
505761.000000
506643.000000
507564.000000
508480.000000
509415.000000
510297.000000
511193.000000
512121.000000
513044.000000
513936.000000
514800.000000
515691.000000
516631.000000
517526.000000
518389.000000
519286.000000
520195.000000
521092.000000
521970.000000
522899.000000
523838.000000
524780.000000
525695.000000
526593.000000
527543.000000
528473.000000
529379.000000
530251.000000
531137.000000
532034.000000
532927.000000
533821.000000
534694.000000
535603.000000
536525.000000
537452.000000
538361.000000
539266.000000
540194.000000
541129.000000
542020.000000
542919.000000
543831.000000
544764.000000
545671.000000
546565.000000
547489.000000
548433.000000
549341.000000
550212.000000
551110.000000
552024.000000
552959.000000
553885.000000
554826.000000
555806.000000
556737.000000
557654.000000
558609.000000
559570.000000
560500.000000
561411.000000
562342.000000
563296.000000
564247.000000
565187.000000
566159.000000
567127.000000
568063.000000
568983.000000
569916.000000
570888.000000
571830.000000
572730.000000
573671.000000
574656.000000
575597.000000
576517.000000
577472.000000
578451.000000
579403.000000
580317.000000
581279.000000
582284.000000
583278.000000
584236.000000
585187.000000
586206.000000
587234.000000
588203.000000
589167.000000
590154.000000
591151.000000
592172.000000
593151.000000
594170.000000
595189.000000
596199.000000
597156.000000
598136.000000
599139.000000
600128.000000
601114.000000
602044.000000
603029.000000
604030.000000
605051.000000
606001.000000
606963.000000
608010.000000
609078.000000
610084.000000
611028.000000
612032.000000
613056.000000
614052.000000
614989.000000
615984.000000
616987.000000
618002.000000
618968.000000
619949.000000
620961.000000
621966.000000
622947.000000
623967.000000
624963.000000
625911.000000
626853.000000
627743.000000
628582.000000
629399.000000
630257.000000
631178.000000
632170.000000
633172.000000
634150.000000
635179.000000
636225.000000
637257.000000
638203.000000
639175.000000
640169.000000
641137.000000
642114.000000
643038.000000
643990.000000
645011.000000
646041.000000
647047.000000
648004.000000
648972.000000
649971.000000
650981.000000
651948.000000
652891.000000
653864.000000
654844.000000
655813.000000
656739.000000
657706.000000
658724.000000
659704.000000
660630.000000
661572.000000
662523.000000
663473.000000
664368.000000
665280.000000
666217.000000
667199.000000
668112.000000
669008.000000
669946.000000
670884.000000
671807.000000
672696.000000
673628.000000
674609.000000
675568.000000
676496.000000
677455.000000
678426.000000
679373.000000
680292.000000
681236.000000
682191.000000
683171.000000
684078.000000
684996.000000
685927.000000
686852.000000
687739.000000
688648.000000
689574.000000
690516.000000
691410.000000
692316.000000
693255.000000
694212.000000
695124.000000
696049.000000
696988.000000
697940.000000
698860.000000
699771.000000
700722.000000
701699.000000
702624.000000
703538.000000
704487.000000
705444.000000
706375.000000
707296.000000
708243.000000
709211.000000
710150.000000
711087.000000
712081.000000
713083.000000
714088.000000
715046.000000
716020.000000
717032.000000
718029.000000
718964.000000
719929.000000
720915.000000
721915.000000
722870.000000
723816.000000
724812.000000
725823.000000
726782.000000
727758.000000
728799.000000
729835.000000
730779.000000
731727.000000
732723.000000
733745.000000
734692.000000
735647.000000
736645.000000
737662.000000
738643.000000
739597.000000
740604.000000
741605.000000
742587.000000
743516.000000
744539.000000
745561.000000
746572.000000
747524.000000
748468.000000
749456.000000
750462.000000
751417.000000
752362.000000
753367.000000
754358.000000
755337.000000
756263.000000
757239.000000
758245.000000
759269.000000
760228.000000
761253.000000
762276.000000
763265.000000
764204.000000
765140.000000
766116.000000
767112.000000
768069.000000
768983.000000
769941.000000
770908.000000
771893.000000
772829.000000
773777.000000
774731.000000
775698.000000
776630.000000
777529.000000
778477.000000
779436.000000
780395.000000
781321.000000
782257.000000
783233.000000
784215.000000
785166.000000
786097.000000
787055.000000
788021.000000
788958.000000
789867.000000
790813.000000
791767.000000
792730.000000
793651.000000
794615.000000
795575.000000
796502.000000
797398.000000
798332.000000
799300.000000
800239.000000
801154.000000
802122.000000
803088.000000
804032.000000
804952.000000
805908.000000
806877.000000
807845.000000
808763.000000
809691.000000
810635.000000
811581.000000
812534.000000
813459.000000
814449.000000
815440.000000
816421.000000
817363.000000
818335.000000
819351.000000
820374.000000
821333.000000
822278.000000
823266.000000
824264.000000
825270.000000
826222.000000
827182.000000
828209.000000
829220.000000
830193.000000
831123.000000
832111.000000
833150.000000
834127.000000
835072.000000
836036.000000
837040.000000
838069.000000
839021.000000
839953.000000
840928.000000
841889.000000
842826.000000
843727.000000
844668.000000
845631.000000
846589.000000
847519.000000
848484.000000
849454.000000
850417.000000
851322.000000
852274.000000
853258.000000
854217.000000
855153.000000
856137.000000
857146.000000
858113.000000
859047.000000
860008.000000
860990.000000
861965.000000
862892.000000
863830.000000
864806.000000
865778.000000
866726.000000
867671.000000
868646.000000
869636.000000
870608.000000
871540.000000
872497.000000
873487.000000
874495.000000
875484.000000
876419.000000
877408.000000
878418.000000
879390.000000
880328.000000
881295.000000
882285.000000
883267.000000
884204.000000
885162.000000
886132.000000
887203.000000
888255.000000
889250.000000
890256.000000
891287.000000
892308.000000
893281.000000
894227.000000
895222.000000
896225.000000
897214.000000
898149.000000
899103.000000
900089.000000
901084.000000
