ECG (ms)
306.000000
1454.000000
2568.000000
3693.000000
4813.000000
5952.000000
7118.000000
8283.000000
9468.000000
10562.000000
11705.000000
12778.000000
13997.000000
15153.000000
16334.000000
17463.000000
18642.000000
19807.000000
20942.000000
22068.000000
23155.000000
24371.000000
25528.000000
26733.000000
27934.000000
29183.000000
30418.000000
31617.000000
32733.000000
33754.000000
34742.000000
35680.000000
36943.000000
38088.000000
39304.000000
40450.000000
41656.000000
42837.000000
44002.000000
45144.000000
46270.000000
47417.000000
48528.000000
49748.000000
50879.000000
52082.000000
53167.000000
54286.000000
55319.000000
56430.000000
57629.000000
58791.000000
60025.000000
61162.000000
62375.000000
63516.000000
64700.000000
65879.000000
67036.000000
68242.000000
69353.000000
70535.000000
71707.000000
72882.000000
74036.000000
75160.000000
76386.000000
77522.000000
78729.000000
79752.000000
80862.000000
81995.000000
83208.000000
84341.000000
85601.000000
86762.000000
87959.000000
89136.000000
90321.000000
91486.000000
92658.000000
93850.000000
94962.000000
96122.000000
97225.000000
98359.000000
99503.000000
100690.000000
101868.000000
103017.000000
104181.000000
105353.000000
106573.000000
107708.000000
108849.000000
109913.000000
111015.000000
112098.000000
113244.000000
114390.000000
115483.000000
116623.000000
117699.000000
118882.000000
120009.000000
121177.000000
122283.000000
123456.000000
124578.000000
125723.000000
126857.000000
127988.000000
129167.000000
130297.000000
131483.000000
132608.000000
133766.000000
134878.000000
136042.000000
137170.000000
138317.000000
139462.000000
140625.000000
141816.000000
142978.000000
144204.000000
145428.000000
146656.000000
147857.000000
149061.000000
150235.000000
151444.000000
152646.000000
153872.000000
155106.000000
156395.000000
157601.000000
158832.000000
159997.000000
161212.000000
162377.000000
163620.000000
164764.000000
165889.000000
166931.000000
168027.000000
169033.000000
170234.000000
171382.000000
172551.000000
173708.000000
174846.000000
175993.000000
177065.000000
178195.000000
179235.000000
180383.000000
181482.000000
182616.000000
183695.000000
184795.000000
185876.000000
187022.000000
188167.000000
189311.000000
190446.000000
191568.000000
192687.000000
193794.000000
194952.000000
196080.000000
197211.000000
198272.000000
199401.000000
200480.000000
201648.000000
202766.000000
203926.000000
205062.000000
206227.000000
207402.000000
208548.000000
209695.000000
210790.000000
211941.000000
213027.000000
214173.000000
215299.000000
216472.000000
217634.000000
218765.000000
219912.000000
221013.000000
222202.000000
223350.000000
224572.000000
225739.000000
226963.000000
228163.000000
229342.000000
230450.000000
231564.000000
232671.000000
233804.000000
234963.000000
236088.000000
237262.000000
238390.000000
239579.000000
240669.000000
241812.000000
242907.000000
244043.000000
245229.000000
246414.000000
247643.000000
248865.000000
250193.000000
251448.000000
252706.000000
253901.000000
255167.000000
256354.000000
257615.000000
258793.000000
260020.000000
261216.000000
262423.000000
263635.000000
264644.000000
265519.000000
266846.000000
268179.000000
269485.000000
270716.000000
271993.000000
273211.000000
274422.000000
275645.000000
276816.000000
278032.000000
279204.000000
280431.000000
281621.000000
282807.000000
284012.000000
285188.000000
286396.000000
287545.000000
288750.000000
289882.000000
291057.000000
292234.000000
293418.000000
294624.000000
295824.000000
297097.000000
298330.000000
299525.000000
300764.000000
301990.000000
303283.000000
304516.000000
305805.000000
306983.000000
308210.000000
309350.000000
310573.000000
311798.000000
313039.000000
314269.000000
315479.000000
316768.000000
317992.000000
319267.000000
320504.000000
321751.000000
322966.000000
324114.000000
325308.000000
326461.000000
327708.000000
328934.000000
330173.000000
331356.000000
332579.000000
333805.000000
335002.000000
336214.000000
337358.000000
338567.000000
339764.000000
341047.000000
342228.000000
343507.000000
344682.000000
345862.000000
346988.000000
348178.000000
349370.000000
350599.000000
351852.000000
353117.000000
354403.000000
355614.000000
356874.000000
358023.000000
359268.000000
360456.000000
361693.000000
362943.000000
364198.000000
365464.000000
366655.000000
367897.000000
369098.000000
370347.000000
371599.000000
372839.000000
374084.000000
375280.000000
376521.000000
377683.000000
378891.000000
380110.000000
381334.000000
382584.000000
383760.000000
384999.000000
386203.000000
387450.000000
388662.000000
389880.000000
391137.000000
392354.000000
393626.000000
394804.000000
396023.000000
397238.000000
398462.000000
399717.000000
400893.000000
402112.000000
403261.000000
404392.000000
405512.000000
406548.000000
407737.000000
408900.000000
410083.000000
411310.000000
412484.000000
413707.000000
414896.000000
416095.000000
417257.000000
418394.000000
419598.000000
420696.000000
421897.000000
423092.000000
424312.000000
425579.000000
426813.000000
428111.000000
429329.000000
430588.000000
431854.000000
433037.000000
434289.000000
435473.000000
436735.000000
437977.000000
439214.000000
440559.000000
441796.000000
442998.000000
444137.000000
445414.000000
446600.000000
447939.000000
449189.000000
450500.000000
451792.000000
453119.000000
454416.000000
455689.000000
456989.000000
458205.000000
459496.000000
460785.000000
462055.000000
463353.000000
464583.000000
465844.000000
467097.000000
468330.000000
469550.000000
470724.000000
471962.000000
473160.000000
474399.000000
475604.000000
476779.000000
478022.000000
479201.000000
480449.000000
481644.000000
482837.000000
484042.000000
485154.000000
486340.000000
487501.000000
488692.000000
489881.000000
491020.000000
492226.000000
493509.000000
494797.000000
496034.000000
497365.000000
498630.000000
499944.000000
501227.000000
502448.000000
503709.000000
504937.000000
506211.000000
507465.000000
508701.000000
509952.000000
511152.000000
512382.000000
513573.000000
514810.000000
516056.000000
517330.000000
518614.000000
519909.000000
521198.000000
522378.000000
523638.000000
524862.000000
526205.000000
527443.000000
528727.000000
529987.000000
531222.000000
532421.000000
533567.000000
534760.000000
535919.000000
537189.000000
538458.000000
539776.000000
541055.000000
542322.000000
543654.000000
544928.000000
546234.000000
547460.000000
548763.000000
550000.000000
551278.000000
552562.000000
553852.000000
555145.000000
556396.000000
557720.000000
558997.000000
560295.000000
561607.000000
562889.000000
564186.000000
565435.000000
566669.000000
567957.000000
569185.000000
570429.000000
571644.000000
572954.000000
574212.000000
575449.000000
576755.000000
577921.000000
579184.000000
580365.000000
581588.000000
582802.000000
583935.000000
585210.000000
586370.000000
587652.000000
588832.000000
590030.000000
591282.000000
592450.000000
593714.000000
594894.000000
596172.000000
597446.000000
598690.000000
599986.000000
601201.000000
602448.000000
603677.000000
604899.000000
606115.000000
607260.000000
608409.000000
609594.000000
610721.000000
612018.000000
613263.000000
614548.000000
615828.000000
617073.000000
618330.000000
619521.000000
620786.000000
621947.000000
623258.000000
624509.000000
625738.000000
627010.000000
628228.000000
629513.000000
630709.000000
631951.000000
633196.000000
634373.000000
635613.000000
636787.000000
638007.000000
639249.000000
640465.000000
641737.000000
642944.000000
644134.000000
645380.000000
646569.000000
647893.000000
649117.000000
650456.000000
651692.000000
652982.000000
654239.000000
655486.000000
656720.000000
657949.000000
659254.000000
660479.000000
661739.000000
663017.000000
664255.000000
665538.000000
666762.000000
668006.000000
669273.000000
670471.000000
671750.000000
673009.000000
674182.000000
675438.000000
676698.000000
677901.000000
679145.000000
680320.000000
681493.000000
682783.000000
684036.000000
685322.000000
686569.000000
687828.000000
689078.000000
690285.000000
691584.000000
692804.000000
694040.000000
695318.000000
696508.000000
697781.000000
698992.000000
700182.000000
701436.000000
702626.000000
703837.000000
705040.000000
706180.000000
707371.000000
708537.000000
709676.000000
710960.000000
712119.000000
713366.000000
714611.000000
715917.000000
717249.000000
718531.000000
719823.000000
721054.000000
722363.000000
723605.000000
724892.000000
726105.000000
727288.000000
728585.000000
729886.000000
731230.000000
732475.000000
733790.000000
735032.000000
736330.000000
737553.000000
738774.000000
739955.000000
741084.000000
742396.000000
743641.000000
744858.000000
746106.000000
747260.000000
748494.000000
749666.000000
750925.000000
752125.000000
753385.000000
754656.000000
755971.000000
757214.000000
758474.000000
759710.000000
760964.000000
762185.000000
763423.000000
764687.000000
765897.000000
767174.000000
768391.000000
769608.000000
770813.000000
772004.000000
773252.000000
774423.000000
775680.000000
776878.000000
778126.000000
779354.000000
780588.000000
781852.000000
783026.000000
784240.000000
785394.000000
786608.000000
787795.000000
788975.000000
790155.000000
791339.000000
792576.000000
793807.000000
795074.000000
796313.000000
797523.000000
798789.000000
799950.000000
801194.000000
802413.000000
803564.000000
804830.000000
806039.000000
807284.000000
808557.000000
809781.000000
811073.000000
812282.000000
813562.000000
814822.000000
816032.000000
817342.000000
818576.000000
819856.000000
821161.000000
822426.000000
823737.000000
825029.000000
826346.000000
827595.000000
828901.000000
830124.000000
831391.000000
832635.000000
833903.000000
835177.000000
836432.000000
837732.000000
838993.000000
840291.000000
841530.000000
842804.000000
844029.000000
845267.000000
846504.000000
847710.000000
848898.000000
850134.000000
851427.000000
852652.000000
853965.000000
855250.000000
856600.000000
857893.000000
859226.000000
860474.000000
861754.000000
863048.000000
864337.000000
865664.000000
866941.000000
868251.000000
869476.000000
870736.000000
872042.000000
873258.000000
874540.000000
875776.000000
877074.000000
878344.000000
879622.000000
880953.000000
882224.000000
883535.000000
884818.000000
886091.000000
887398.000000
888591.000000
889864.000000
891101.000000
892366.000000
893630.000000
894848.000000
896102.000000
897313.000000
898661.000000
899952.000000
901281.000000
902588.000000
903914.000000
905159.000000
906446.000000
907673.000000
908985.000000
910242.000000
911563.000000
912869.000000
914172.000000
915488.000000
916732.000000
918026.000000
919238.000000
920519.000000
921762.000000
923018.000000
924253.000000
925498.000000
926813.000000
928033.000000
929282.000000
930525.000000
931817.000000
933142.000000
934448.000000
935749.000000
937048.000000
938373.000000
939650.000000
940986.000000
942263.000000
943574.000000
944819.000000
946073.000000
947401.000000
948670.000000
949919.000000
951160.000000
952440.000000
953578.000000
954787.000000
956002.000000
957255.000000
958492.000000
959793.000000
961048.000000
962364.000000
963656.000000
964963.000000
966247.000000
967562.000000
968908.000000
970218.000000
971580.000000
972906.000000
974210.000000
975519.000000
976823.000000
978150.000000
979437.000000
980710.000000
982038.000000
983324.000000
984672.000000
985908.000000
987199.000000
988450.000000
989745.000000
991049.000000
992342.000000
993672.000000
994888.000000
996210.000000
997486.000000
998791.000000
999996.000000
1001251.000000
1002507.000000
1003769.000000
1005075.000000
1006327.000000
1007604.000000
1008831.000000
1010122.000000
1011356.000000
1012661.000000
1013967.000000
1015235.000000
1016548.000000
1017831.000000
1019113.000000
1020405.000000
1021663.000000
1022975.000000
1024244.000000
1025537.000000
1026843.000000
1028142.000000
1029451.000000
1030696.000000
1031991.000000
1033204.000000
1034469.000000
1035759.000000
1037042.000000
1038350.000000
1039632.000000
1040959.000000
1042202.000000
1043489.000000
1044751.000000
1046004.000000
1047272.000000
1048501.000000
1049814.000000
1051053.000000
1052316.000000
1053631.000000
1054954.000000
1056339.000000
1057625.000000
1058745.000000
1059734.000000
1061065.000000
1062424.000000
1063767.000000
1065100.000000
1066505.000000
1067884.000000
1069274.000000
1070668.000000
1072036.000000
1073413.000000
1074770.000000
1076104.000000
1077416.000000
1078697.000000
1080004.000000
1081232.000000
1082517.000000
1083800.000000
1085035.000000
1086365.000000
1087671.000000
1088970.000000
1090217.000000
1091534.000000
1092784.000000
1094098.000000
1095378.000000
1096658.000000
1097979.000000
1099240.000000
1100526.000000
1101742.000000
1103043.000000
1104342.000000
1105591.000000
1106906.000000
1108166.000000
1109503.000000
1110782.000000
1111978.000000
1113276.000000
1114537.000000
1115850.000000
1117144.000000
1118431.000000
1119785.000000
1121079.000000
1122463.000000
1123775.000000
1125137.000000
1126419.000000
1127761.000000
1129089.000000
1130367.000000
1131720.000000
1132994.000000
1134350.000000
1135639.000000
1136929.000000
1138282.000000
1139596.000000
1140979.000000
1142260.000000
1143588.000000
1144885.000000
1146222.000000
1147560.000000
1148841.000000
1150147.000000
1151352.000000
1152493.000000
1153681.000000
1154853.000000
1156216.000000
1157512.000000
1158856.000000
1160098.000000
1161405.000000
1162680.000000
1164024.000000
1165319.000000
1166633.000000
1168020.000000
1169388.000000
1170806.000000
1172154.000000
1173515.000000
1174842.000000
1176164.000000
1177549.000000
1178915.000000
1180238.000000
1181519.000000
1182827.000000
1184065.000000
1185409.000000
1186679.000000
1187974.000000
1189335.000000
1190692.000000
1192068.000000
1193362.000000
1194699.000000
1196060.000000
1197380.000000
1198755.000000
1200037.000000
1201313.000000
1202560.000000
1203790.000000
1205064.000000
1206267.000000
1207596.000000
1208853.000000
1210126.000000
1211409.000000
1212686.000000
1213997.000000
1215217.000000
1216519.000000
1217763.000000
1219054.000000
1220360.000000
1221641.000000
1222988.000000
1224269.000000
1225591.000000
1226882.000000
1228166.000000
1229490.000000
1230728.000000
1232022.000000
1233235.000000
1234526.000000
1235793.000000
1237029.000000
1238261.000000
1239396.000000
1240684.000000
1241962.000000
1243191.000000
1244482.000000
1245723.000000
1247021.000000
1248286.000000
1249559.000000
1250895.000000
1252162.000000
1253451.000000
1254764.000000
1256036.000000
1257337.000000
1258593.000000
1259779.000000
1261060.000000
1262338.000000
1263621.000000
1264921.000000
1266082.000000
1267347.000000
1268583.000000
1269867.000000
1271163.000000
1272455.000000
1273839.000000
1275136.000000
1276513.000000
1277797.000000
1279073.000000
1280380.000000
1281646.000000
1282973.000000
1284195.000000
1285484.000000
1286796.000000
1288096.000000
1289423.000000
1290706.000000
1291984.000000
1293208.000000
1294484.000000
1295820.000000
1297120.000000
1298486.000000
1299756.000000
1301095.000000
1302403.000000
1303662.000000
1304952.000000
1306172.000000
1307447.000000
1308716.000000
1309951.000000
1311277.000000
1312508.000000
1313782.000000
1315049.000000
1316325.000000
1317648.000000
1318854.000000
1320151.000000
1321426.000000
1322749.000000
1324074.000000
1325350.000000
1326664.000000
1327902.000000
1329209.000000
1330498.000000
1331780.000000
1333082.000000
1334321.000000
1335626.000000
1336864.000000
1338133.000000
1339418.000000
1340706.000000
1342003.000000
1343283.000000
1344615.000000
1345874.000000
1347159.000000
1348460.000000
1349665.000000
1350930.000000
1352117.000000
1353292.000000
1354540.000000
1355757.000000
1357075.000000
1358322.000000
1359641.000000
1360903.000000
1362186.000000
1363501.000000
1364686.000000
1365993.000000
1367268.000000
1368547.000000
1369898.000000
1371117.000000
1372314.000000
1373639.000000
1374893.000000
1376300.000000
1377583.000000
1378931.000000
1380311.000000
1381667.000000
1383094.000000
1384457.000000
1385809.000000
1387191.000000
1388476.000000
1389867.000000
1391237.000000
1392540.000000
1393865.000000
1395157.000000
1396488.000000
1397838.000000
1399108.000000
1400431.000000
1401740.000000
1403002.000000
1404319.000000
1405571.000000
1406845.000000
1408108.000000
1409264.000000
1410479.000000
1411654.000000
1412905.000000
1414109.000000
1415376.000000
1416658.000000
1417935.000000
1419237.000000
1420490.000000
1421839.000000
1423110.000000
1424395.000000
1425687.000000
1426947.000000
1428261.000000
1429502.000000
1430774.000000
1432072.000000
1433338.000000
1434624.000000
1435865.000000
1437142.000000
1438403.000000
1439633.000000
1440910.000000
1442093.000000
1443389.000000
1444654.000000
1445940.000000
1447254.000000
1448535.000000
1449926.000000
1451203.000000
1452570.000000
1453903.000000
1455151.000000
1456462.000000
1457668.000000
1458987.000000
1460304.000000
1461605.000000
1462961.000000
1464208.000000
1465539.000000
1466880.000000
1468180.000000
1469560.000000
1470843.000000
1472181.000000
1473516.000000
1474828.000000
1476029.000000
1477148.000000
1478564.000000
1479886.000000
1481418.000000
1482740.000000
1484187.000000
1485538.000000
1486942.000000
1488268.000000
1489635.000000
1490978.000000
1492287.000000
1493662.000000
1494939.000000
1496237.000000
1497488.000000
1498716.000000
1499995.000000
1501174.000000
1502433.000000
1503598.000000
1504775.000000
1505995.000000
1507191.000000
1508463.000000
1509659.000000
1510842.000000
1512077.000000
1513232.000000
1514456.000000
1515631.000000
1516602.000000
1517361.000000
1518116.000000
1518896.000000
1520128.000000
1521275.000000
1522452.000000
1523666.000000
1524906.000000
1526026.000000
1527221.000000
1528426.000000
1529618.000000
1530691.000000
1531845.000000
1533027.000000
1534125.000000
1535201.000000
1536352.000000
1537443.000000
1538488.000000
1539630.000000
1540571.000000
1541378.000000
1542140.000000
1542871.000000
1543588.000000
1544298.000000
1545015.000000
1546050.000000
1547103.000000
1548087.000000
1549099.000000
1550199.000000
1551089.000000
1552273.000000
1553455.000000
1554591.000000
1555769.000000
1556931.000000
1558115.000000
1559306.000000
1560460.000000
1561617.000000
1562785.000000
1563905.000000
1564999.000000
1566158.000000
1567222.000000
1568403.000000
1569506.000000
1570683.000000
1571851.000000
1572989.000000
1574159.000000
1575253.000000
1576418.000000
1577504.000000
1578654.000000
1579768.000000
1580932.000000
1582098.000000
1583269.000000
1584460.000000
1585644.000000
1586838.000000
1587998.000000
1589207.000000
1590320.000000
1591505.000000
1592627.000000
1593823.000000
1594969.000000
1596132.000000
1597340.000000
1598484.000000
1599659.000000
1600745.000000
1601874.000000
1603003.000000
1604126.000000
1605277.000000
1606349.000000
1607477.000000
1608563.000000
1609668.000000
1610811.000000
1611929.000000
1613097.000000
1614202.000000
1615404.000000
1616540.000000
1617743.000000
1618884.000000
1620065.000000
1621178.000000
1622317.000000
1623497.000000
1624608.000000
1625709.000000
1626548.000000
1627360.000000
1628208.000000
1629233.000000
1630464.000000
1631597.000000
1632785.000000
1633912.000000
1635110.000000
1636268.000000
1637482.000000
1638631.000000
1639830.000000
1641053.000000
1642234.000000
1643420.000000
1644346.000000
1645217.000000
1646047.000000
1646813.000000
1648140.000000
1649323.000000
1650468.000000
1651722.000000
1652937.000000
1654169.000000
1655356.000000
1656555.000000
1657751.000000
1658885.000000
1660074.000000
1661237.000000
1662413.000000
1663495.000000
1664552.000000
1665619.000000
1666756.000000
1667865.000000
1669015.000000
1670136.000000
1671311.000000
1672394.000000
1673351.000000
1674273.000000
1675345.000000
1676437.000000
1677701.000000
1678836.000000
1680038.000000
1681197.000000
1682363.000000
1683524.000000
1684683.000000
1685938.000000
1687135.000000
1688364.000000
1689479.000000
1690455.000000
1691395.000000
1692340.000000
1693661.000000
1694862.000000
1696114.000000
1697359.000000
1698560.000000
1699820.000000
1700998.000000
1702232.000000
1703423.000000
1704591.000000
1705826.000000
1706983.000000
1708153.000000
1709348.000000
1710477.000000
1711652.000000
1712788.000000
1714020.000000
1715235.000000
1716457.000000
1717707.000000
1718757.000000
1719635.000000
1720491.000000
1721273.000000
1722120.000000
1723343.000000
1724586.000000
1725780.000000
1727010.000000
1728208.000000
1729406.000000
1730635.000000
1731769.000000
1733033.000000
1734288.000000
1735470.000000
1736728.000000
1737932.000000
1739197.000000
1740464.000000
1741664.000000
1742896.000000
1744097.000000
1745286.000000
1746514.000000
1747653.000000
1748889.000000
1750039.000000
1751263.000000
1752421.000000
1753640.000000
1754829.000000
1756052.000000
1757249.000000
1758390.000000
1759345.000000
1760201.000000
1761053.000000
1762368.000000
1763549.000000
1764860.000000
1766108.000000
1767371.000000
1768714.000000
1769926.000000
1771175.000000
1772425.000000
1773430.000000
1774530.000000
1775949.000000
1777155.000000
1778491.000000
1779759.000000
1781095.000000
1782323.000000
1783621.000000
1784886.000000
1786203.000000
1787457.000000
1788725.000000
1790014.000000
1791266.000000
1792540.000000
1793739.000000
1794964.000000
1796151.000000
1797356.000000
1798557.000000
1799702.000000
