ECG (ms)
567.000000
1586.000000
2653.000000
3717.000000
4787.000000
5841.000000
6843.000000
7848.000000
8896.000000
9959.000000
11034.000000
12106.000000
13162.000000
14164.000000
15190.000000
16253.000000
17342.000000
18438.000000
19491.000000
20547.000000
21618.000000
22719.000000
23839.000000
24899.000000
25939.000000
26986.000000
28061.000000
29163.000000
30193.000000
31219.000000
32272.000000
33347.000000
34389.000000
35378.000000
36396.000000
37433.000000
38455.000000
39484.000000
40522.000000
41534.000000
42519.000000
43534.000000
44595.000000
45664.000000
46702.000000
47728.000000
48776.000000
49839.000000
50861.000000
51905.000000
52959.000000
54008.000000
54967.000000
55914.000000
56928.000000
57915.000000
58864.000000
59861.000000
60890.000000
61943.000000
62942.000000
63976.000000
65048.000000
66109.000000
67138.000000
68208.000000
69289.000000
70341.000000
71367.000000
72434.000000
73532.000000
74571.000000
75608.000000
76685.000000
77761.000000
78791.000000
79849.000000
80940.000000
82014.000000
83016.000000
84062.000000
85154.000000
86252.000000
87306.000000
88329.000000
89386.000000
90463.000000
91472.000000
92529.000000
93592.000000
94643.000000
95635.000000
96673.000000
97738.000000
98818.000000
99817.000000
100844.000000
101891.000000
102952.000000
103940.000000
104969.000000
106028.000000
107077.000000
108041.000000
109066.000000
110105.000000
111157.000000
112150.000000
113194.000000
114258.000000
115318.000000
116337.000000
117295.000000
118258.000000
119267.000000
120254.000000
121211.000000
122220.000000
123265.000000
124339.000000
125351.000000
126364.000000
127415.000000
128517.000000
129575.000000
130604.000000
131663.000000
132746.000000
133866.000000
134923.000000
135982.000000
137053.000000
138143.000000
139211.000000
140239.000000
141306.000000
142379.000000
143417.000000
144462.000000
145559.000000
146623.000000
147644.000000
148667.000000
149720.000000
150824.000000
151857.000000
152835.000000
153860.000000
154923.000000
156000.000000
156998.000000
158024.000000
159082.000000
160101.000000
161094.000000
162138.000000
163170.000000
164173.000000
165209.000000
166285.000000
167312.000000
168315.000000
169345.000000
170417.000000
171460.000000
172471.000000
173533.000000
174611.000000
175630.000000
176653.000000
177695.000000
178756.000000
179755.000000
180783.000000
181827.000000
182910.000000
183937.000000
184969.000000
186030.000000
187117.000000
188155.000000
189181.000000
190246.000000
191343.000000
192421.000000
193473.000000
194582.000000
195693.000000
196735.000000
197715.000000
198739.000000
199800.000000
200902.000000
201946.000000
202943.000000
203990.000000
205064.000000
206132.000000
207156.000000
208227.000000
209306.000000
210348.000000
211393.000000
212475.000000
213577.000000
214641.000000
215698.000000
216808.000000
217903.000000
219011.000000
220051.000000
221125.000000
222178.000000
223177.000000
224192.000000
225242.000000
226325.000000
227327.000000
228324.000000
229355.000000
230439.000000
231454.000000
232464.000000
233508.000000
234579.000000
235619.000000
236648.000000
237715.000000
238813.000000
239865.000000
240912.000000
241982.000000
243068.000000
244087.000000
245107.000000
246149.000000
247211.000000
248244.000000
249286.000000
250353.000000
251396.000000
252407.000000
253446.000000
254499.000000
255527.000000
256550.000000
257629.000000
258712.000000
259748.000000
260770.000000
261838.000000
262900.000000
263915.000000
264925.000000
265962.000000
267028.000000
268010.000000
269016.000000
270045.000000
271090.000000
272054.000000
273065.000000
274093.000000
275086.000000
276081.000000
277120.000000
278107.000000
279081.000000
280088.000000
281104.000000
282104.000000
283066.000000
284080.000000
285031.000000
285978.000000
286974.000000
287959.000000
288892.000000
289874.000000
290893.000000
291968.000000
293008.000000
294007.000000
295034.000000
296073.000000
297140.000000
298158.000000
299185.000000
300230.000000
301335.000000
302384.000000
303399.000000
304434.000000
305501.000000
306580.000000
307638.000000
308676.000000
309737.000000
310818.000000
311843.000000
312899.000000
313965.000000
315045.000000
316073.000000
317132.000000
318238.000000
319298.000000
320331.000000
321408.000000
322437.000000
323449.000000
324513.000000
325580.000000
326557.000000
327578.000000
328607.000000
329657.000000
330628.000000
331642.000000
332679.000000
333724.000000
334689.000000
335696.000000
336743.000000
337809.000000
338846.000000
339894.000000
340994.000000
342080.000000
343099.000000
344139.000000
345242.000000
346339.000000
347392.000000
348420.000000
349497.000000
350580.000000
351639.000000
352645.000000
353713.000000
354803.000000
355821.000000
356870.000000
357944.000000
359001.000000
360026.000000
361100.000000
362195.000000
363228.000000
364257.000000
365298.000000
366321.000000
367244.000000
368231.000000
369229.000000
370201.000000
371137.000000
372115.000000
373123.000000
374095.000000
375008.000000
375958.000000
376942.000000
377895.000000
378891.000000
379927.000000
381019.000000
382097.000000
383118.000000
384179.000000
385278.000000
386372.000000
387383.000000
388454.000000
389536.000000
390650.000000
391678.000000
392753.000000
393835.000000
394948.000000
395985.000000
397069.000000
398172.000000
399280.000000
400330.000000
401444.000000
402547.000000
403651.000000
404682.000000
405742.000000
406804.000000
407828.000000
408815.000000
409868.000000
410974.000000
412029.000000
413083.000000
414181.000000
415294.000000
416313.000000
417376.000000
418468.000000
419508.000000
420545.000000
421639.000000
422684.000000
423734.000000
424821.000000
425942.000000
427013.000000
428040.000000
429107.000000
430200.000000
431225.000000
432224.000000
433267.000000
434397.000000
435438.000000
436509.000000
437590.000000
438734.000000
439799.000000
440872.000000
441940.000000
443033.000000
444049.000000
445132.000000
446196.000000
447308.000000
448305.000000
449360.000000
450425.000000
451408.000000
452423.000000
453446.000000
454517.000000
455458.000000
456395.000000
457386.000000
458383.000000
459383.000000
460328.000000
461271.000000
462179.000000
463130.000000
464138.000000
465105.000000
466075.000000
467092.000000
468134.000000
469217.000000
470217.000000
471260.000000
472322.000000
473423.000000
474468.000000
475517.000000
476607.000000
477708.000000
478773.000000
479820.000000
480915.000000
482009.000000
483092.000000
484129.000000
485216.000000
486319.000000
487422.000000
488465.000000
489546.000000
490664.000000
491702.000000
492767.000000
493861.000000
494922.000000
495954.000000
497040.000000
498170.000000
499227.000000
500270.000000
501305.000000
502379.000000
503400.000000
504449.000000
505534.000000
506597.000000
507632.000000
508681.000000
509783.000000
510821.000000
511855.000000
512923.000000
514012.000000
515028.000000
516076.000000
517127.000000
518227.000000
519286.000000
520309.000000
521363.000000
522445.000000
523515.000000
524539.000000
525129.000000
526609.000000
527589.000000
528585.000000
529574.000000
530585.000000
531583.000000
532554.000000
533562.000000
534581.000000
535607.000000
536570.000000
537576.000000
538598.000000
539612.000000
540591.000000
541577.000000
542499.000000
543472.000000
544472.000000
545494.000000
546486.000000
547527.000000
548605.000000
549699.000000
550757.000000
551803.000000
552895.000000
554001.000000
555058.000000
556091.000000
557183.000000
558279.000000
559320.000000
560379.000000
561470.000000
562604.000000
563638.000000
564714.000000
565832.000000
566863.000000
567877.000000
568924.000000
569994.000000
570971.000000
571993.000000
573010.000000
574023.000000
574938.000000
575911.000000
576853.000000
577801.000000
578719.000000
579690.000000
580639.000000
581605.000000
582610.000000
583674.000000
584694.000000
585688.000000
586742.000000
587813.000000
588919.000000
589952.000000
591005.000000
592074.000000
593182.000000
594235.000000
595271.000000
596353.000000
597466.000000
598553.000000
599584.000000
600656.000000
601748.000000
602857.000000
603914.000000
605014.000000
606109.000000
607199.000000
608267.000000
609361.000000
610479.000000
611555.000000
612603.000000
613676.000000
614789.000000
615870.000000
616926.000000
617989.000000
619105.000000
620146.000000
621189.000000
622242.000000
623326.000000
624336.000000
625377.000000
626414.000000
627517.000000
628565.000000
629615.000000
630681.000000
631754.000000
632789.000000
633878.000000
634984.000000
636055.000000
637081.000000
638143.000000
639216.000000
640228.000000
641292.000000
642358.000000
643413.000000
644421.000000
645445.000000
646523.000000
647521.000000
648502.000000
649502.000000
650551.000000
651529.000000
652534.000000
653554.000000
654645.000000
655651.000000
656710.000000
657793.000000
658886.000000
659913.000000
660993.000000
662093.000000
663136.000000
664185.000000
665255.000000
666352.000000
667364.000000
668453.000000
669550.000000
670650.000000
671677.000000
672746.000000
673832.000000
674787.000000
675803.000000
676769.000000
677705.000000
678600.000000
679546.000000
680509.000000
681527.000000
682472.000000
683493.000000
684522.000000
685624.000000
686627.000000
687666.000000
688725.000000
689846.000000
690885.000000
691907.000000
692968.000000
694047.000000
695163.000000
696195.000000
696862.000000
698372.000000
699548.000000
700619.000000
701693.000000
702795.000000
703892.000000
704939.000000
705992.000000
707087.000000
708204.000000
709328.000000
710376.000000
711450.000000
712537.000000
713650.000000
714705.000000
715765.000000
716825.000000
717934.000000
718978.000000
719982.000000
721010.000000
722054.000000
723082.000000
724045.000000
725089.000000
726029.000000
727023.000000
728062.000000
729035.000000
730041.000000
731081.000000
732162.000000
733223.000000
734238.000000
735306.000000
736391.000000
737454.000000
738458.000000
739509.000000
740573.000000
741657.000000
742665.000000
743729.000000
744799.000000
745853.000000
746866.000000
747916.000000
748987.000000
750065.000000
751095.000000
752160.000000
753234.000000
754324.000000
755353.000000
756413.000000
757480.000000
758562.000000
759582.000000
760639.000000
761712.000000
762757.000000
763752.000000
764801.000000
765862.000000
766858.000000
767877.000000
768932.000000
770023.000000
771005.000000
772030.000000
773085.000000
774164.000000
775129.000000
776127.000000
777132.000000
778172.000000
779114.000000
780106.000000
781119.000000
782084.000000
783026.000000
783997.000000
784917.000000
785818.000000
786725.000000
787664.000000
788558.000000
789510.000000
790503.000000
791544.000000
792537.000000
793549.000000
794605.000000
795700.000000
796740.000000
797770.000000
798832.000000
799957.000000
801013.000000
802067.000000
803152.000000
804286.000000
805346.000000
806398.000000
807499.000000
808612.000000
809699.000000
810744.000000
811849.000000
812992.000000
814046.000000
815101.000000
816166.000000
817290.000000
818354.000000
819401.000000
820486.000000
821614.000000
822658.000000
823705.000000
824743.000000
825861.000000
826934.000000
827991.000000
829082.000000
830224.000000
831279.000000
832359.000000
833451.000000
834584.000000
835630.000000
836709.000000
837790.000000
838864.000000
839884.000000
840951.000000
842017.000000
843130.000000
844146.000000
845190.000000
846231.000000
847310.000000
848287.000000
849332.000000
850387.000000
851482.000000
852472.000000
853525.000000
854609.000000
855731.000000
856761.000000
857839.000000
858929.000000
860041.000000
861091.000000
862152.000000
863238.000000
864362.000000
865440.000000
866494.000000
867579.000000
868699.000000
869736.000000
870808.000000
871899.000000
872998.000000
874004.000000
875059.000000
876126.000000
877205.000000
878225.000000
879218.000000
880158.000000
881088.000000
881994.000000
882947.000000
883913.000000
884893.000000
885817.000000
886760.000000
887730.000000
888727.000000
889686.000000
890637.000000
891638.000000
892665.000000
893739.000000
894744.000000
895822.000000
896891.000000
898016.000000
899041.000000
900058.000000
901111.000000
