ECG (ms)
641.000000
1392.000000
2126.000000
2874.000000
3662.000000
4458.000000
5246.000000
5970.000000
6656.000000
7359.000000
8087.000000
8823.000000
9602.000000
10413.000000
11231.000000
12041.000000
12848.000000
13629.000000
14364.000000
15079.000000
15824.000000
16618.000000
17446.000000
18299.000000
19108.000000
19866.000000
20626.000000
21426.000000
22264.000000
23112.000000
23909.000000
24614.000000
25295.000000
25975.000000
26691.000000
27445.000000
28251.000000
29062.000000
29816.000000
30526.000000
31246.000000
32009.000000
32820.000000
33662.000000
34482.000000
35241.000000
35985.000000
36753.000000
37565.000000
38429.000000
39310.000000
40164.000000
40950.000000
41710.000000
42488.000000
43297.000000
44142.000000
45021.000000
45900.000000
46727.000000
47500.000000
48269.000000
49071.000000
49874.000000
50695.000000
51518.000000
52307.000000
53099.000000
53897.000000
54714.000000
55553.000000
56364.000000
57112.000000
57838.000000
58583.000000
59365.000000
60194.000000
61011.000000
61803.000000
62605.000000
63437.000000
64280.000000
65106.000000
65914.000000
66677.000000
67431.000000
68236.000000
69075.000000
69934.000000
70794.000000
71610.000000
72356.000000
73074.000000
73814.000000
74595.000000
75395.000000
76188.000000
76949.000000
77718.000000
78553.000000
79409.000000
80267.000000
81051.000000
81781.000000
82510.000000
83257.000000
84035.000000
84777.000000
85484.000000
86224.000000
87015.000000
87776.000000
88509.000000
89273.000000
90070.000000
90906.000000
91743.000000
92533.000000
93291.000000
94062.000000
94847.000000
95647.000000
96462.000000
97243.000000
97974.000000
98679.000000
99399.000000
100160.000000
100981.000000
101817.000000
102609.000000
103354.000000
104113.000000
104904.000000
105707.000000
106529.000000
107339.000000
108096.000000
108815.000000
109551.000000
110357.000000
111205.000000
112053.000000
112861.000000
113610.000000
114342.000000
115100.000000
115890.000000
116700.000000
117510.000000
118271.000000
119001.000000
119747.000000
120526.000000
121348.000000
122184.000000
122973.000000
123730.000000
124512.000000
125313.000000
126114.000000
126884.000000
127611.000000
128341.000000
129109.000000
129928.000000
130774.000000
131566.000000
132323.000000
133093.000000
133900.000000
134716.000000
135527.000000
136295.000000
137026.000000
137766.000000
138541.000000
139358.000000
140185.000000
140975.000000
141684.000000
142375.000000
143073.000000
143806.000000
144590.000000
145390.000000
146149.000000
146891.000000
147641.000000
148403.000000
149184.000000
149956.000000
150699.000000
151453.000000
152247.000000
153098.000000
153954.000000
154814.000000
155657.000000
156467.000000
157230.000000
157948.000000
158664.000000
159426.000000
160241.000000
161087.000000
161928.000000
162698.000000
163431.000000
164172.000000
164947.000000
165764.000000
166602.000000
167407.000000
168177.000000
168968.000000
169796.000000
170630.000000
171456.000000
172259.000000
173008.000000
173734.000000
174489.000000
175308.000000
176142.000000
176976.000000
177763.000000
178525.000000
179321.000000
180155.000000
181013.000000
181871.000000
182714.000000
183502.000000
184239.000000
184977.000000
185747.000000
186573.000000
187432.000000
188286.000000
189082.000000
189859.000000
190656.000000
191485.000000
192315.000000
193139.000000
193923.000000
194666.000000
195416.000000
196195.000000
197003.000000
197825.000000
198635.000000
199394.000000
200134.000000
200895.000000
201688.000000
202512.000000
203347.000000
204162.000000
204913.000000
205630.000000
206361.000000
207124.000000
207908.000000
208729.000000
209522.000000
210271.000000
211022.000000
211783.000000
212553.000000
213320.000000
214060.000000
214791.000000
215547.000000
216349.000000
217168.000000
217968.000000
218729.000000
219478.000000
220233.000000
220985.000000
221713.000000
222393.000000
223072.000000
223768.000000
224504.000000
225293.000000
226119.000000
226920.000000
227664.000000
228383.000000
229118.000000
229881.000000
230669.000000
231457.000000
232219.000000
232954.000000
233719.000000
234530.000000
235351.000000
236171.000000
236982.000000
237731.000000
238445.000000
239184.000000
239962.000000
240773.000000
241561.000000
242306.000000
243066.000000
243859.000000
244676.000000
245505.000000
246304.000000
247056.000000
247815.000000
248605.000000
249422.000000
250250.000000
251081.000000
251863.000000
252601.000000
253353.000000
254152.000000
254982.000000
255828.000000
256658.000000
257441.000000
258173.000000
258910.000000
259683.000000
260497.000000
261333.000000
262131.000000
262911.000000
263711.000000
264502.000000
265297.000000
266050.000000
266781.000000
267535.000000
268318.000000
269124.000000
269924.000000
270675.000000
271383.000000
272105.000000
272877.000000
273681.000000
274517.000000
275308.000000
276059.000000
276823.000000
277649.000000
278516.000000
279386.000000
280219.000000
280992.000000
281746.000000
282518.000000
283322.000000
284139.000000
284966.000000
285807.000000
286636.000000
287409.000000
288162.000000
288930.000000
289733.000000
290575.000000
291414.000000
292198.000000
292976.000000
293780.000000
294612.000000
295477.000000
296336.000000
297141.000000
297886.000000
298644.000000
299436.000000
300254.000000
301060.000000
301825.000000
302547.000000
303229.000000
303909.000000
304613.000000
305371.000000
306181.000000
307013.000000
307821.000000
308600.000000
309394.000000
310200.000000
311014.000000
311820.000000
312583.000000
313341.000000
314123.000000
314925.000000
315746.000000
316539.000000
317331.000000
318145.000000
318981.000000
319834.000000
320689.000000
321519.000000
322285.000000
323032.000000
323785.000000
324568.000000
325393.000000
326241.000000
327068.000000
327863.000000
328699.000000
329565.000000
330442.000000
331295.000000
332096.000000
332896.000000
333704.000000
334509.000000
335281.000000
336046.000000
336852.000000
337697.000000
338529.000000
339304.000000
340069.000000
340865.000000
341688.000000
342517.000000
343292.000000
344047.000000
344809.000000
345584.000000
346385.000000
347181.000000
347951.000000
348701.000000
349473.000000
350283.000000
351116.000000
351965.000000
352746.000000
353500.000000
354263.000000
355071.000000
355930.000000
356790.000000
357604.000000
358387.000000
359198.000000
360036.000000
360900.000000
361736.000000
362533.000000
363330.000000
364146.000000
364965.000000
365803.000000
366599.000000
367367.000000
368153.000000
368993.000000
369863.000000
370737.000000
371568.000000
372364.000000
373174.000000
374019.000000
374871.000000
375693.000000
376468.000000
377220.000000
377982.000000
378768.000000
379585.000000
380410.000000
381154.000000
381871.000000
382579.000000
383297.000000
384054.000000
384864.000000
385688.000000
386469.000000
387254.000000
388084.000000
388953.000000
389819.000000
390626.000000
391374.000000
392131.000000
392904.000000
393701.000000
394531.000000
395342.000000
396153.000000
397024.000000
397923.000000
398827.000000
399688.000000
400465.000000
401238.000000
402023.000000
402851.000000
403675.000000
404469.000000
405221.000000
405999.000000
406856.000000
407762.000000
408658.000000
409499.000000
410284.000000
411089.000000
411920.000000
412777.000000
413634.000000
414429.000000
415187.000000
415965.000000
416791.000000
417657.000000
418534.000000
419358.000000
420183.000000
421061.000000
421972.000000
422846.000000
423637.000000
424393.000000
425165.000000
425978.000000
426809.000000
427584.000000
428341.000000
429134.000000
429995.000000
430874.000000
431714.000000
432532.000000
433396.000000
434292.000000
435190.000000
436051.000000
436833.000000
437586.000000
438366.000000
439192.000000
440068.000000
440937.000000
441741.000000
442528.000000
443329.000000
444173.000000
445052.000000
445889.000000
446674.000000
447454.000000
448260.000000
449118.000000
449995.000000
450831.000000
451610.000000
452358.000000
453120.000000
453906.000000
454673.000000
455389.000000
456102.000000
456845.000000
457602.000000
458361.000000
459168.000000
460026.000000
460906.000000
461783.000000
462604.000000
463372.000000
464124.000000
464893.000000
465708.000000
466561.000000
467374.000000
468158.000000
468966.000000
469809.000000
470698.000000
471577.000000
472432.000000
473234.000000
474030.000000
474861.000000
475711.000000
476549.000000
477348.000000
478112.000000
478889.000000
479691.000000
480499.000000
481284.000000
482018.000000
482707.000000
483391.000000
484097.000000
484860.000000
485685.000000
486524.000000
487321.000000
488073.000000
488845.000000
489640.000000
490459.000000
491321.000000
492159.000000
492940.000000
493707.000000
494498.000000
495326.000000
496188.000000
497044.000000
497843.000000
498597.000000
499363.000000
500173.000000
501023.000000
501870.000000
502655.000000
503411.000000
504186.000000
504994.000000
505817.000000
506609.000000
507364.000000
508126.000000
508913.000000
509739.000000
510576.000000
511365.000000
512127.000000
512906.000000
513717.000000
514555.000000
515423.000000
516241.000000
516998.000000
517756.000000
518530.000000
519343.000000
520164.000000
520976.000000
521743.000000
522509.000000
523330.000000
524174.000000
525028.000000
525832.000000
526609.000000
527419.000000
528262.000000
529115.000000
529967.000000
530762.000000
531521.000000
532287.000000
533072.000000
533895.000000
534732.000000
535534.000000
536282.000000
537033.000000
537826.000000
538649.000000
539469.000000
540249.000000
540984.000000
541725.000000
542505.000000
543318.000000
544153.000000
544947.000000
545735.000000
546546.000000
547379.000000
548238.000000
549075.000000
549856.000000
550594.000000
551338.000000
552124.000000
552968.000000
553836.000000
554674.000000
555472.000000
556267.000000
557073.000000
557843.000000
558585.000000
559284.000000
559979.000000
560709.000000
561450.000000
562177.000000
562949.000000
563782.000000
564647.000000
565507.000000
566304.000000
567076.000000
567866.000000
568701.000000
569561.000000
570412.000000
571199.000000
571948.000000
572714.000000
573538.000000
574421.000000
575294.000000
576122.000000
576987.000000
577887.000000
578786.000000
579693.000000
580551.000000
581337.000000
582115.000000
582906.000000
583730.000000
584606.000000
585469.000000
586267.000000
587064.000000
587904.000000
588778.000000
589646.000000
590457.000000
591255.000000
592081.000000
592956.000000
593860.000000
594730.000000
595527.000000
596298.000000
597082.000000
597900.000000
598759.000000
599636.000000
600476.000000
601264.000000
602079.000000
602968.000000
603898.000000
604839.000000
605741.000000
606579.000000
607403.000000
608243.000000
609124.000000
610009.000000
610908.000000
611751.000000
612573.000000
613416.000000
614287.000000
615170.000000
616001.000000
616777.000000
617579.000000
618415.000000
619280.000000
620136.000000
620950.000000
621764.000000
622611.000000
623508.000000
624407.000000
625255.000000
626056.000000
626878.000000
627726.000000
628607.000000
629479.000000
630301.000000
631115.000000
631969.000000
632852.000000
633732.000000
634542.000000
635319.000000
636106.000000
636918.000000
637742.000000
638571.000000
639363.000000
640126.000000
640908.000000
641739.000000
642601.000000
643441.000000
644234.000000
645046.000000
645888.000000
646757.000000
647636.000000
648446.000000
649203.000000
649976.000000
650808.000000
651688.000000
652564.000000
653368.000000
654186.000000
655036.000000
655911.000000
656791.000000
657602.000000
658384.000000
659199.000000
660074.000000
660963.000000
661828.000000
662630.000000
663443.000000
664291.000000
665156.000000
665995.000000
666800.000000
667594.000000
668441.000000
669340.000000
670273.000000
671186.000000
672005.000000
672768.000000
673518.000000
674255.000000
674982.000000
675695.000000
676453.000000
677242.000000
678079.000000
678996.000000
679938.000000
680849.000000
681673.000000
682466.000000
683302.000000
684195.000000
685102.000000
685989.000000
686811.000000
687579.000000
688376.000000
689247.000000
690155.000000
691073.000000
691939.000000
692711.000000
693472.000000
694291.000000
695174.000000
696067.000000
696943.000000
697745.000000
698523.000000
699337.000000
700257.000000
701197.000000
702108.000000
702976.000000
703815.000000
704636.000000
705408.000000
706189.000000
707033.000000
707978.000000
708924.000000
709862.000000
710760.000000
711577.000000
712372.000000
713212.000000
714101.000000
714981.000000
715795.000000
716576.000000
717385.000000
718241.000000
719140.000000
719986.000000
720757.000000
721517.000000
722325.000000
723214.000000
724144.000000
725041.000000
725855.000000
726660.000000
727476.000000
728335.000000
729217.000000
730057.000000
730865.000000
731707.000000
732569.000000
733444.000000
734293.000000
735083.000000
735882.000000
736691.000000
737503.000000
738317.000000
739094.000000
739865.000000
740679.000000
741540.000000
742403.000000
743230.000000
744005.000000
744730.000000
745431.000000
746153.000000
746953.000000
747812.000000
748670.000000
749544.000000
750423.000000
751249.000000
752059.000000
752881.000000
753711.000000
754528.000000
755318.000000
756119.000000
756939.000000
757776.000000
758627.000000
759452.000000
760249.000000
761061.000000
761884.000000
762699.000000
763497.000000
764314.000000
765156.000000
766007.000000
766843.000000
767551.000000
768425.000000
769194.000000
769948.000000
770707.000000
771454.000000
772157.000000
772849.000000
773554.000000
774295.000000
775083.000000
775879.000000
776632.000000
777399.000000
778195.000000
779003.000000
779817.000000
780585.000000
781334.000000
782098.000000
782883.000000
783691.000000
784481.000000
785236.000000
786017.000000
786835.000000
787675.000000
788498.000000
789270.000000
790033.000000
790829.000000
791658.000000
792486.000000
793270.000000
794039.000000
794833.000000
795665.000000
796500.000000
797293.000000
798084.000000
798903.000000
799747.000000
800598.000000
801411.000000
802172.000000
802932.000000
803713.000000
804533.000000
805370.000000
806175.000000
806949.000000
807757.000000
808611.000000
809495.000000
810370.000000
811186.000000
811982.000000
812792.000000
813639.000000
814533.000000
815467.000000
816362.000000
817227.000000
818115.000000
819002.000000
819823.000000
820571.000000
821291.000000
821988.000000
822697.000000
823492.000000
824345.000000
825215.000000
826040.000000
826822.000000
827648.000000
828545.000000
829472.000000
830365.000000
831175.000000
831959.000000
832765.000000
833601.000000
834483.000000
835349.000000
836166.000000
837004.000000
837878.000000
838770.000000
839681.000000
840545.000000
841353.000000
842189.000000
843095.000000
844020.000000
844949.000000
845819.000000
846612.000000
847413.000000
848253.000000
849136.000000
850035.000000
850853.000000
851663.000000
852509.000000
853377.000000
854247.000000
855080.000000
855889.000000
856729.000000
857606.000000
858498.000000
859351.000000
860141.000000
860909.000000
861687.000000
862491.000000
863305.000000
864107.000000
864936.000000
865813.000000
866714.000000
867633.000000
868511.000000
869374.000000
870248.000000
871122.000000
871973.000000
872773.000000
873543.000000
874334.000000
875171.000000
876039.000000
876871.000000
877685.000000
878475.000000
879253.000000
879977.000000
880698.000000
881456.000000
882316.000000
883218.000000
884108.000000
884915.000000
885719.000000
886545.000000
887395.000000
888262.000000
889110.000000
889900.000000
890706.000000
891548.000000
892444.000000
893365.000000
894252.000000
895062.000000
895881.000000
896742.000000
897628.000000
898501.000000
899297.000000
900070.000000
900871.000000
901730.000000
902630.000000
903540.000000
904417.000000
905261.000000
906110.000000
907001.000000
907885.000000
908736.000000
909531.000000
910292.000000
911065.000000
911858.000000
912682.000000
913500.000000
914285.000000
915100.000000
915953.000000
916823.000000
917652.000000
918433.000000
919214.000000
920024.000000
920862.000000
921719.000000
922530.000000
923317.000000
924134.000000
924983.000000
925840.000000
926655.000000
927423.000000
928189.000000
928977.000000
929827.000000
930685.000000
931494.000000
932275.000000
933082.000000
933934.000000
934803.000000
935622.000000
936419.000000
937259.000000
938125.000000
938994.000000
939835.000000
940615.000000
941390.000000
942194.000000
943025.000000
943826.000000
944598.000000
945375.000000
946185.000000
947030.000000
947877.000000
948671.000000
949444.000000
950250.000000
951061.000000
951879.000000
952677.000000
953451.000000
954247.000000
955049.000000
955801.000000
956509.000000
957201.000000
957905.000000
958636.000000
959399.000000
960211.000000
961015.000000
961784.000000
962576.000000
963395.000000
964239.000000
965073.000000
965848.000000
966593.000000
967354.000000
968139.000000
968944.000000
969741.000000
970499.000000
971252.000000
972038.000000
972850.000000
973667.000000
974441.000000
975188.000000
975944.000000
976721.000000
977533.000000
978375.000000
979166.000000
979928.000000
980724.000000
981577.000000
982436.000000
983291.000000
984113.000000
984908.000000
985714.000000
986533.000000
987365.000000
988182.000000
988962.000000
989754.000000
990594.000000
991443.000000
992296.000000
993115.000000
993899.000000
994709.000000
995554.000000
996422.000000
997293.000000
998125.000000
998910.000000
999691.000000
1000509.000000
1001370.000000
1002228.000000
1003075.000000
1003875.000000
1004665.000000
1005481.000000
1006332.000000
1007175.000000
1008018.000000
1008822.000000
1009615.000000
1010413.000000
1011238.000000
1012096.000000
1012958.000000
1013757.000000
1014521.000000
1015289.000000
1016089.000000
1016946.000000
1017798.000000
1018594.000000
1019405.000000
1020242.000000
1021061.000000
1021856.000000
1022625.000000
1023364.000000
1024099.000000
1024868.000000
1025741.000000
1026654.000000
1027543.000000
1028383.000000
1029171.000000
1029986.000000
1030832.000000
1031709.000000
1032538.000000
1033319.000000
1034109.000000
1034916.000000
1035732.000000
1036558.000000
1037369.000000
1038146.000000
1038884.000000
1039598.000000
1040299.000000
1041017.000000
1041772.000000
1042564.000000
1043331.000000
1044102.000000
1044898.000000
1045712.000000
1046537.000000
1047350.000000
1048121.000000
1048914.000000
1049736.000000
1050572.000000
1051423.000000
1052274.000000
1053094.000000
1053873.000000
1054667.000000
1055487.000000
1056333.000000
1057163.000000
1057957.000000
1058737.000000
1059539.000000
1060366.000000
1061209.000000
1062045.000000
1062832.000000
1063602.000000
1064398.000000
1065203.000000
1066024.000000
1066845.000000
1067641.000000
1068437.000000
1069280.000000
1070169.000000
1071058.000000
1071887.000000
1072649.000000
1073409.000000
1074194.000000
1075005.000000
1075828.000000
1076627.000000
1077411.000000
1078236.000000
1079115.000000
1079961.000000
1080750.000000
1081556.000000
1082385.000000
1083221.000000
1084018.000000
1084788.000000
1085587.000000
1086428.000000
1087291.000000
1088099.000000
1088911.000000
1089754.000000
1090609.000000
1091454.000000
1092240.000000
1092997.000000
1093751.000000
1094475.000000
1095178.000000
1095913.000000
1096691.000000
1097464.000000
1098227.000000
1098994.000000
1099806.000000
1100689.000000
1101574.000000
1102394.000000
1103164.000000
1103956.000000
1104777.000000
1105603.000000
1106408.000000
1107146.000000
1107846.000000
1108549.000000
1109272.000000
1110044.000000
1110874.000000
1111711.000000
1112509.000000
1113338.000000
1114221.000000
1115105.000000
1115759.000000
1116778.000000
1117554.000000
1118323.000000
1119119.000000
1119970.000000
1120851.000000
1121695.000000
1122501.000000
1123359.000000
1124299.000000
1125244.000000
1126171.000000
1127017.000000
1127821.000000
1128622.000000
1129441.000000
1130280.000000
1131147.000000
1131976.000000
1132799.000000
1133665.000000
1134551.000000
1135410.000000
1136228.000000
1137076.000000
1137943.000000
1138812.000000
1139700.000000
1140571.000000
1141393.000000
1142173.000000
1142957.000000
1143807.000000
1144707.000000
1145608.000000
1146466.000000
1147249.000000
1148035.000000
1148819.000000
1149554.000000
1150279.000000
1151058.000000
1151881.000000
1152653.000000
1153378.000000
1154108.000000
1154868.000000
1155693.000000
1156566.000000
1157425.000000
1158215.000000
1158983.000000
1159793.000000
1160670.000000
1161573.000000
1162461.000000
1163284.000000
1164040.000000
1164795.000000
1165588.000000
1166434.000000
1167318.000000
1168209.000000
1169036.000000
1169841.000000
1170660.000000
1171506.000000
1172361.000000
1173220.000000
1174030.000000
1174803.000000
1175593.000000
1176410.000000
1177249.000000
1178054.000000
1178819.000000
1179605.000000
1180435.000000
1181277.000000
1182112.000000
1182925.000000
1183698.000000
1184455.000000
1185222.000000
1186015.000000
1186863.000000
1187726.000000
1188557.000000
1189387.000000
1190249.000000
1191135.000000
1192043.000000
1192956.000000
1193842.000000
1194697.000000
