ECG (ms)
399.000000
1060.000000
1736.000000
2414.000000
3077.000000
3726.000000
4360.000000
5018.000000
5699.000000
6384.000000
7045.000000
7691.000000
8325.000000
8945.000000
9557.000000
10190.000000
10844.000000
11532.000000
12296.000000
13122.000000
13954.000000
14739.000000
15455.000000
16123.000000
16778.000000
17428.000000
18077.000000
18724.000000
19383.000000
20037.000000
20675.000000
21316.000000
21971.000000
22628.000000
23295.000000
23961.000000
24619.000000
25264.000000
25901.000000
26538.000000
27179.000000
27825.000000
28465.000000
29092.000000
29724.000000
30369.000000
31019.000000
31672.000000
32324.000000
32973.000000
33601.000000
34216.000000
34818.000000
35410.000000
36006.000000
36623.000000
37264.000000
37919.000000
38571.000000
39214.000000
39838.000000
40441.000000
41031.000000
41611.000000
42196.000000
42788.000000
43383.000000
43978.000000
44574.000000
45165.000000
45746.000000
46320.000000
46888.000000
47453.000000
48027.000000
48607.000000
49201.000000
49807.000000
50421.000000
51028.000000
51629.000000
52229.000000
52821.000000
53415.000000
54005.000000
54587.000000
55172.000000
55758.000000
56347.000000
56941.000000
57539.000000
58141.000000
58731.000000
59321.000000
59905.000000
60480.000000
61056.000000
61641.000000
62233.000000
62819.000000
63396.000000
63967.000000
64529.000000
65089.000000
65646.000000
66201.000000
66758.000000
67317.000000
67883.000000
68469.000000
69073.000000
69681.000000
70298.000000
70920.000000
71539.000000
72158.000000
72767.000000
73366.000000
73960.000000
74554.000000
75147.000000
75731.000000
76314.000000
76899.000000
77497.000000
78105.000000
78704.000000
79296.000000
79894.000000
80492.000000
81093.000000
81692.000000
82294.000000
82895.000000
83491.000000
84078.000000
84673.000000
85270.000000
85876.000000
86486.000000
87098.000000
87709.000000
88307.000000
88901.000000
89494.000000
90083.000000
90673.000000
91263.000000
91859.000000
92445.000000
93026.000000
93610.000000
94210.000000
94823.000000
95444.000000
96063.000000
96681.000000
97287.000000
97878.000000
98465.000000
99056.000000
99656.000000
100251.000000
100846.000000
101439.000000
102046.000000
102655.000000
103272.000000
103920.000000
104592.000000
105265.000000
105934.000000
106589.000000
107226.000000
107832.000000
108414.000000
108977.000000
109531.000000
110092.000000
110702.000000
111415.000000
112193.000000
112971.000000
113737.000000
114488.000000
115204.000000
115879.000000
116527.000000
117147.000000
117775.000000
118430.000000
119125.000000
119835.000000
120539.000000
121217.000000
121886.000000
122556.000000
123209.000000
123852.000000
124479.000000
125087.000000
125676.000000
126261.000000
126839.000000
127432.000000
128050.000000
128719.000000
129421.000000
130113.000000
130777.000000
131409.000000
132024.000000
132622.000000
133212.000000
133827.000000
134460.000000
135080.000000
135699.000000
136313.000000
136919.000000
137509.000000
138096.000000
138675.000000
139236.000000
139801.000000
140379.000000
141004.000000
141665.000000
142330.000000
142974.000000
143599.000000
144253.000000
144962.000000
145669.000000
146362.000000
147038.000000
147697.000000
148344.000000
148970.000000
149588.000000
150203.000000
150815.000000
151424.000000
152039.000000
152651.000000
153273.000000
153905.000000
154540.000000
155180.000000
155835.000000
156498.000000
157156.000000
157793.000000
158405.000000
159004.000000
159591.000000
160162.000000
160737.000000
161320.000000
161917.000000
162539.000000
163181.000000
163835.000000
164535.000000
165240.000000
165917.000000
166574.000000
167209.000000
167819.000000
168423.000000
169020.000000
169620.000000
170236.000000
170865.000000
171508.000000
172162.000000
172825.000000
173491.000000
174179.000000
174874.000000
175558.000000
176245.000000
176921.000000
177576.000000
178217.000000
178850.000000
179471.000000
180074.000000
180680.000000
181293.000000
181946.000000
182636.000000
183354.000000
184056.000000
184749.000000
185430.000000
186099.000000
186768.000000
187424.000000
188071.000000
188710.000000
189336.000000
189954.000000
190581.000000
191227.000000
191880.000000
192547.000000
193234.000000
193933.000000
194620.000000
195290.000000
195944.000000
196597.000000
197243.000000
197888.000000
198548.000000
199217.000000
199897.000000
200584.000000
201275.000000
201956.000000
202614.000000
203251.000000
203881.000000
204509.000000
205152.000000
205799.000000
206440.000000
207078.000000
207721.000000
208345.000000
208960.000000
209577.000000
210193.000000
210829.000000
211474.000000
212120.000000
212769.000000
213418.000000
214049.000000
214673.000000
215281.000000
215876.000000
216469.000000
217063.000000
217664.000000
218284.000000
218919.000000
219558.000000
220193.000000
220821.000000
221434.000000
222037.000000
222638.000000
223231.000000
223820.000000
224419.000000
225045.000000
225703.000000
226409.000000
227109.000000
227799.000000
228479.000000
229142.000000
229786.000000
230398.000000
230986.000000
231563.000000
232130.000000
232697.000000
233282.000000
233885.000000
234495.000000
235247.000000
235960.000000
236635.000000
237281.000000
237911.000000
238517.000000
239092.000000
239646.000000
240188.000000
240732.000000
241282.000000
241851.000000
242467.000000
243129.000000
243814.000000
244504.000000
245177.000000
245831.000000
246469.000000
247107.000000
247742.000000
248379.000000
249011.000000
249631.000000
250253.000000
250887.000000
251518.000000
252123.000000
252717.000000
253311.000000
253918.000000
254539.000000
255163.000000
255804.000000
256446.000000
257068.000000
257670.000000
258262.000000
258855.000000
259445.000000
260032.000000
260632.000000
261242.000000
261867.000000
262497.000000
263121.000000
263745.000000
264362.000000
264980.000000
265599.000000
266216.000000
266848.000000
267482.000000
268122.000000
268768.000000
269421.000000
270089.000000
270740.000000
271391.000000
272034.000000
272682.000000
273347.000000
274013.000000
274671.000000
275327.000000
275984.000000
276620.000000
277236.000000
277840.000000
278434.000000
279031.000000
279642.000000
280273.000000
280933.000000
281625.000000
282327.000000
283027.000000
283721.000000
284392.000000
285059.000000
285714.000000
286353.000000
286988.000000
287625.000000
288265.000000
288906.000000
289549.000000
290181.000000
290800.000000
291417.000000
292033.000000
292656.000000
293304.000000
293954.000000
294600.000000
295240.000000
295864.000000
296482.000000
297088.000000
297696.000000
298312.000000
298928.000000
299547.000000
300156.000000
300757.000000
301345.000000
301924.000000
302498.000000
303071.000000
303672.000000
304321.000000
305015.000000
305733.000000
306443.000000
307135.000000
307793.000000
308432.000000
309057.000000
309688.000000
310326.000000
310987.000000
311646.000000
312279.000000
312892.000000
313501.000000
314118.000000
314749.000000
315388.000000
316030.000000
316656.000000
317268.000000
317867.000000
318457.000000
319040.000000
319629.000000
320232.000000
320878.000000
321559.000000
322251.000000
322935.000000
323614.000000
324290.000000
324972.000000
325657.000000
326336.000000
327004.000000
327656.000000
328280.000000
328894.000000
329515.000000
330148.000000
330781.000000
331425.000000
332064.000000
332696.000000
333321.000000
333944.000000
334570.000000
335208.000000
335859.000000
336520.000000
337165.000000
337785.000000
338404.000000
339027.000000
339654.000000
340274.000000
340882.000000
341484.000000
342083.000000
342686.000000
343275.000000
343865.000000
344467.000000
345072.000000
345679.000000
346279.000000
346874.000000
347467.000000
348058.000000
348643.000000
349229.000000
349822.000000
350435.000000
351085.000000
351778.000000
352490.000000
353196.000000
353892.000000
354575.000000
355251.000000
355894.000000
356519.000000
357143.000000
357770.000000
358413.000000
359097.000000
359833.000000
360590.000000
361334.000000
362043.000000
362724.000000
363386.000000
364022.000000
364649.000000
365289.000000
365954.000000
366662.000000
367435.000000
368238.000000
369038.000000
369793.000000
370480.000000
371132.000000
371759.000000
372387.000000
373038.000000
373751.000000
374559.000000
375420.000000
376256.000000
377034.000000
377744.000000
378431.000000
379121.000000
379831.000000
380543.000000
381222.000000
381878.000000
382526.000000
383185.000000
383854.000000
384537.000000
385229.000000
385906.000000
386563.000000
387208.000000
387849.000000
388488.000000
389151.000000
389839.000000
390542.000000
391244.000000
391945.000000
392619.000000
393264.000000
393898.000000
394531.000000
395169.000000
395838.000000
396530.000000
397239.000000
397933.000000
398597.000000
399232.000000
399854.000000
400478.000000
401111.000000
401768.000000
402471.000000
403200.000000
403939.000000
404657.000000
405339.000000
406003.000000
406657.000000
407326.000000
408007.000000
408689.000000
409368.000000
410047.000000
410717.000000
411371.000000
412020.000000
412690.000000
413397.000000
414191.000000
415037.000000
415871.000000
416670.000000
417386.000000
418061.000000
418715.000000
419365.000000
420023.000000
420707.000000
421457.000000
422266.000000
423113.000000
423955.000000
424768.000000
425506.000000
426184.000000
426838.000000
427488.000000
428153.000000
428867.000000
429673.000000
430530.000000
431367.000000
432179.000000
432954.000000
433666.000000
434327.000000
434967.000000
435614.000000
436295.000000
437067.000000
437950.000000
438838.000000
439711.000000
440549.000000
441299.000000
441980.000000
442637.000000
443291.000000
443955.000000
444650.000000
445357.000000
446057.000000
446744.000000
447440.000000
448154.000000
448872.000000
449572.000000
450246.000000
450901.000000
451554.000000
452205.000000
452872.000000
453551.000000
454238.000000
454929.000000
455623.000000
456301.000000
456966.000000
457623.000000
458272.000000
458930.000000
459599.000000
460279.000000
460967.000000
461650.000000
462316.000000
462975.000000
463628.000000
464287.000000
464960.000000
465650.000000
466341.000000
467031.000000
467719.000000
468395.000000
469051.000000
469693.000000
470329.000000
470966.000000
471614.000000
472291.000000
473002.000000
473714.000000
474397.000000
475054.000000
475711.000000
476372.000000
477034.000000
477684.000000
478317.000000
478949.000000
479570.000000
480191.000000
480826.000000
481495.000000
482243.000000
483055.000000
483876.000000
484667.000000
485379.000000
486043.000000
486686.000000
487326.000000
487977.000000
488636.000000
489301.000000
489977.000000
490662.000000
491340.000000
492011.000000
492684.000000
493377.000000
494100.000000
494843.000000
495600.000000
496358.000000
497066.000000
497739.000000
498399.000000
499067.000000
499756.000000
500478.000000
501228.000000
501941.000000
502634.000000
503315.000000
504000.000000
504700.000000
505398.000000
506093.000000
506779.000000
507437.000000
508080.000000
508708.000000
509353.000000
510024.000000
510720.000000
511425.000000
512117.000000
512780.000000
513424.000000
514072.000000
514731.000000
515397.000000
516064.000000
516720.000000
517356.000000
517979.000000
518600.000000
519227.000000
519868.000000
520513.000000
521171.000000
521820.000000
522455.000000
523091.000000
523740.000000
524410.000000
525090.000000
525768.000000
526425.000000
527076.000000
527738.000000
528416.000000
529112.000000
529840.000000
530573.000000
531291.000000
532017.000000
532756.000000
533490.000000
534194.000000
534855.000000
535502.000000
536162.000000
536841.000000
537576.000000
538397.000000
539224.000000
539974.000000
540676.000000
541367.000000
542084.000000
542817.000000
543517.000000
544192.000000
544859.000000
545542.000000
546263.000000
547001.000000
547734.000000
548428.000000
549089.000000
549740.000000
550384.000000
551040.000000
551733.000000
552471.000000
553232.000000
553966.000000
554649.000000
555300.000000
555936.000000
556575.000000
557236.000000
557918.000000
558633.000000
559336.000000
560010.000000
560669.000000
561313.000000
561953.000000
562599.000000
563261.000000
563926.000000
564599.000000
565261.000000
565902.000000
566537.000000
567176.000000
567828.000000
568501.000000
569182.000000
569876.000000
570556.000000
571217.000000
571882.000000
572558.000000
573255.000000
573961.000000
574671.000000
575370.000000
576038.000000
576691.000000
577348.000000
578024.000000
578740.000000
579501.000000
580265.000000
580977.000000
581655.000000
582321.000000
582989.000000
583667.000000
584358.000000
585048.000000
585747.000000
586522.000000
587352.000000
588190.000000
588955.000000
589650.000000
590317.000000
590981.000000
591654.000000
592339.000000
593003.000000
593670.000000
594358.000000
595067.000000
595807.000000
596530.000000
597221.000000
597898.000000
598583.000000
599286.000000
600013.000000
600747.000000
601464.000000
602169.000000
602885.000000
603624.000000
604365.000000
605101.000000
605816.000000
606493.000000
607143.000000
607807.000000
608463.000000
609137.000000
609848.000000
610594.000000
611404.000000
612335.000000
613248.000000
614090.000000
614844.000000
615537.000000
616208.000000
616875.000000
617541.000000
618209.000000
618949.000000
619862.000000
620796.000000
621694.000000
622529.000000
623327.000000
624073.000000
624799.000000
625508.000000
626199.000000
626877.000000
627573.000000
628369.000000
629242.000000
630094.000000
630860.000000
631586.000000
632323.000000
633043.000000
633757.000000
634437.000000
635098.000000
635761.000000
636464.000000
637276.000000
638142.000000
638976.000000
639726.000000
640394.000000
641029.000000
641656.000000
642300.000000
642971.000000
643667.000000
644366.000000
645032.000000
645680.000000
646328.000000
646982.000000
647649.000000
648323.000000
648995.000000
649654.000000
650287.000000
650912.000000
651532.000000
652156.000000
652778.000000
653396.000000
653999.000000
654594.000000
655177.000000
655755.000000
656338.000000
656945.000000
657588.000000
658266.000000
658952.000000
659612.000000
660251.000000
660883.000000
661520.000000
662163.000000
662816.000000
663465.000000
664106.000000
664729.000000
665343.000000
665959.000000
666586.000000
667230.000000
667889.000000
668551.000000
669205.000000
669847.000000
670471.000000
671087.000000
671709.000000
672346.000000
673006.000000
673670.000000
674342.000000
674996.000000
675623.000000
676238.000000
676852.000000
677471.000000
678097.000000
678735.000000
679380.000000
680016.000000
680638.000000
681265.000000
681900.000000
682552.000000
683211.000000
683887.000000
684547.000000
685190.000000
685831.000000
686490.000000
687164.000000
687862.000000
688556.000000
689237.000000
689911.000000
690595.000000
691288.000000
691982.000000
692661.000000
693310.000000
693943.000000
694585.000000
695260.000000
695986.000000
696741.000000
697480.000000
698190.000000
698902.000000
699629.000000
700350.000000
701038.000000
701701.000000
702368.000000
703042.000000
703730.000000
704423.000000
705078.000000
705708.000000
706328.000000
706950.000000
707580.000000
708223.000000
708878.000000
709520.000000
710151.000000
710778.000000
711417.000000
712068.000000
712735.000000
713394.000000
714037.000000
714672.000000
715311.000000
715957.000000
716608.000000
717261.000000
717900.000000
718524.000000
719142.000000
719763.000000
