ECG (ms)
443.000000
1498.000000
2546.000000
3563.000000
4570.000000
5564.000000
6586.000000
7589.000000
8593.000000
9592.000000
10596.000000
11618.000000
12661.000000
13685.000000
14675.000000
15695.000000
16729.000000
17774.000000
18776.000000
19802.000000
20843.000000
21865.000000
22893.000000
23888.000000
24873.000000
25834.000000
26778.000000
27769.000000
28814.000000
29864.000000
30905.000000
31940.000000
32962.000000
33980.000000
34970.000000
35946.000000
36883.000000
37826.000000
38737.000000
39674.000000
40629.000000
41576.000000
42538.000000
43462.000000
44409.000000
45379.000000
46355.000000
47299.000000
48224.000000
49197.000000
50157.000000
51066.000000
52027.000000
52979.000000
53916.000000
54869.000000
55848.000000
56814.000000
57766.000000
58742.000000
59716.000000
60653.000000
61637.000000
62599.000000
63543.000000
64533.000000
65515.000000
66445.000000
67406.000000
68372.000000
69300.000000
70281.000000
71258.000000
72200.000000
73184.000000
74186.000000
75128.000000
76115.000000
77087.000000
78027.000000
78994.000000
79973.000000
80925.000000
81866.000000
82849.000000
83819.000000
84730.000000
85676.000000
86638.000000
87590.000000
88571.000000
89575.000000
90542.000000
91557.000000
92560.000000
93536.000000
94567.000000
95572.000000
96566.000000
97597.000000
98599.000000
99570.000000
100587.000000
101610.000000
102587.000000
103616.000000
104625.000000
105583.000000
106533.000000
107523.000000
108518.000000
109467.000000
110447.000000
111425.000000
112353.000000
113341.000000
114342.000000
115279.000000
116258.000000
117254.000000
118202.000000
119170.000000
120163.000000
121108.000000
122045.000000
123025.000000
123983.000000
124920.000000
125920.000000
126874.000000
127811.000000
128784.000000
129724.000000
130665.000000
131623.000000
132542.000000
133486.000000
134435.000000
135346.000000
136299.000000
137269.000000
138236.000000
139242.000000
140232.000000
141187.000000
142195.000000
143197.000000
144142.000000
145160.000000
146131.000000
147114.000000
148123.000000
149119.000000
150070.000000
151043.000000
152044.000000
153037.000000
153989.000000
154988.000000
155963.000000
156919.000000
157904.000000
158883.000000
159837.000000
160813.000000
161769.000000
162691.000000
163651.000000
164593.000000
165524.000000
166489.000000
167419.000000
168356.000000
169335.000000
170275.000000
171261.000000
172240.000000
173187.000000
174175.000000
175127.000000
176078.000000
177059.000000
178004.000000
178969.000000
179941.000000
180871.000000
181845.000000
182819.000000
183739.000000
184715.000000
185658.000000
186593.000000
187582.000000
188534.000000
189481.000000
190452.000000
191397.000000
192314.000000
193255.000000
194193.000000
195108.000000
196071.000000
197023.000000
197965.000000
198952.000000
199898.000000
200857.000000
201834.000000
202766.000000
203710.000000
204665.000000
205592.000000
206528.000000
207476.000000
208401.000000
209315.000000
210269.000000
211214.000000
212130.000000
213083.000000
214030.000000
214932.000000
215864.000000
216810.000000
217712.000000
218636.000000
219572.000000
220496.000000
221417.000000
222378.000000
223347.000000
224281.000000
225239.000000
226217.000000
227179.000000
228134.000000
229110.000000
230045.000000
230987.000000
231932.000000
232848.000000
233766.000000
234701.000000
235631.000000
236525.000000
237471.000000
238410.000000
239305.000000
240235.000000
241159.000000
242069.000000
242960.000000
243891.000000
244821.000000
245740.000000
246713.000000
247705.000000
248647.000000
249620.000000
250605.000000
251557.000000
252519.000000
253491.000000
254422.000000
255381.000000
256336.000000
257271.000000
258171.000000
259110.000000
260073.000000
261023.000000
262048.000000
263106.000000
264098.000000
265122.000000
266109.000000
267110.000000
268144.000000
269124.000000
270142.000000
271128.000000
272117.000000
273128.000000
274074.000000
275066.000000
276050.000000
276981.000000
277952.000000
278925.000000
279850.000000
280803.000000
281722.000000
282670.000000
283623.000000
284529.000000
285475.000000
286418.000000
287331.000000
288276.000000
289202.000000
290110.000000
291032.000000
291934.000000
292827.000000
293755.000000
294694.000000
295636.000000
296632.000000
297617.000000
298567.000000
299563.000000
300545.000000
301526.000000
302520.000000
303473.000000
304456.000000
305434.000000
306358.000000
307299.000000
308255.000000
309195.000000
310186.000000
311223.000000
312249.000000
313271.000000
314294.000000
315292.000000
316320.000000
317362.000000
318357.000000
319378.000000
320420.000000
321421.000000
322375.000000
323354.000000
324244.000000
325114.000000
326076.000000
327254.000000
328346.000000
329442.000000
330497.000000
331507.000000
332500.000000
333414.000000
334288.000000
335167.000000
336057.000000
336952.000000
337923.000000
338938.000000
339946.000000
340970.000000
341970.000000
342936.000000
343911.000000
344848.000000
345786.000000
346734.000000
347672.000000
348648.000000
349664.000000
350658.000000
351717.000000
352775.000000
353815.000000
354861.000000
355909.000000
356909.000000
357895.000000
358852.000000
359728.000000
360584.000000
361462.000000
362508.000000
363629.000000
364790.000000
365901.000000
366888.000000
367905.000000
368865.000000
369849.000000
370827.000000
371773.000000
372753.000000
373732.000000
374653.000000
375602.000000
376526.000000
377437.000000
378377.000000
379292.000000
380205.000000
381155.000000
382064.000000
382969.000000
383888.000000
384801.000000
385671.000000
386559.000000
387461.000000
388347.000000
389302.000000
390279.000000
391212.000000
392197.000000
393180.000000
394114.000000
395102.000000
396059.000000
397020.000000
397999.000000
398942.000000
399893.000000
400856.000000
401773.000000
402725.000000
403686.000000
404614.000000
405564.000000
406524.000000
407448.000000
408409.000000
409377.000000
410313.000000
411286.000000
412273.000000
413224.000000
414168.000000
415132.000000
416083.000000
417022.000000
417989.000000
418956.000000
419879.000000
420842.000000
421810.000000
422743.000000
423714.000000
424698.000000
425644.000000
426592.000000
427576.000000
428557.000000
429498.000000
430475.000000
431458.000000
432397.000000
433388.000000
434377.000000
435318.000000
436291.000000
437276.000000
438232.000000
439193.000000
440206.000000
441171.000000
442133.000000
443128.000000
444097.000000
445057.000000
446053.000000
447026.000000
447986.000000
448971.000000
449951.000000
450915.000000
451925.000000
452933.000000
453903.000000
454922.000000
455934.000000
456899.000000
457820.000000
458732.000000
459710.000000
460706.000000
461693.000000
462685.000000
463656.000000
464661.000000
465673.000000
466674.000000
467632.000000
468632.000000
469621.000000
470575.000000
471550.000000
472519.000000
473447.000000
474409.000000
475368.000000
476293.000000
477269.000000
478235.000000
479158.000000
480122.000000
481090.000000
482039.000000
482983.000000
483951.000000
484895.000000
485840.000000
486799.000000
487729.000000
488676.000000
489630.000000
490571.000000
491522.000000
492477.000000
493411.000000
494364.000000
495328.000000
496272.000000
497199.000000
498143.000000
499068.000000
499987.000000
500939.000000
501857.000000
502764.000000
503706.000000
504636.000000
505551.000000
506504.000000
507470.000000
508387.000000
509339.000000
510301.000000
511238.000000
512175.000000
513132.000000
514064.000000
514988.000000
515929.000000
516835.000000
517738.000000
518681.000000
519626.000000
520535.000000
521496.000000
522465.000000
523415.000000
524372.000000
525349.000000
526323.000000
527266.000000
528238.000000
529210.000000
530148.000000
531132.000000
532140.000000
533121.000000
534118.000000
535150.000000
536135.000000
537106.000000
538105.000000
539073.000000
540018.000000
540999.000000
541956.000000
542927.000000
543918.000000
544904.000000
545848.000000
546821.000000
547774.000000
548689.000000
549669.000000
550634.000000
551547.000000
552493.000000
553445.000000
554358.000000
555307.000000
556247.000000
557152.000000
558103.000000
559079.000000
560033.000000
561052.000000
562072.000000
563038.000000
564049.000000
565084.000000
566074.000000
567094.000000
568112.000000
569091.000000
570100.000000
571139.000000
572130.000000
573147.000000
574172.000000
575172.000000
576144.000000
577161.000000
578174.000000
579155.000000
580122.000000
581139.000000
582139.000000
583095.000000
584095.000000
585089.000000
586027.000000
587005.000000
588011.000000
588978.000000
589961.000000
590953.000000
591911.000000
592873.000000
593862.000000
594811.000000
595750.000000
596728.000000
597673.000000
598609.000000
599569.000000
600535.000000
601479.000000
602448.000000
603428.000000
604389.000000
605346.000000
606333.000000
607304.000000
608243.000000
609236.000000
610230.000000
611182.000000
612154.000000
613148.000000
614128.000000
615095.000000
616103.000000
617088.000000
618016.000000
619010.000000
619996.000000
620960.000000
621919.000000
622901.000000
623880.000000
624822.000000
625831.000000
626839.000000
627773.000000
628747.000000
629669.000000
630590.000000
631536.000000
632452.000000
633439.000000
634470.000000
635456.000000
636468.000000
637476.000000
638448.000000
639435.000000
640437.000000
641391.000000
642361.000000
643333.000000
644262.000000
645212.000000
646180.000000
647116.000000
648046.000000
649007.000000
649974.000000
650910.000000
651870.000000
652841.000000
653785.000000
654729.000000
655690.000000
656609.000000
657552.000000
658492.000000
659399.000000
660347.000000
661313.000000
662254.000000
663210.000000
664197.000000
665159.000000
666123.000000
667126.000000
668137.000000
669105.000000
670131.000000
671177.000000
672146.000000
673169.000000
674204.000000
675196.000000
676206.000000
677221.000000
678199.000000
679147.000000
680131.000000
681112.000000
682047.000000
683025.000000
684030.000000
685028.000000
685984.000000
687012.000000
688043.000000
689041.000000
690058.000000
691073.000000
692034.000000
693048.000000
694033.000000
694998.000000
695982.000000
696946.000000
697891.000000
698870.000000
699840.000000
700778.000000
701765.000000
702738.000000
703692.000000
704693.000000
705690.000000
706651.000000
707655.000000
708626.000000
709609.000000
710607.000000
711599.000000
712548.000000
713555.000000
714550.000000
715511.000000
716512.000000
717492.000000
718431.000000
719427.000000
720429.000000
721417.000000
722373.000000
723371.000000
724364.000000
725308.000000
726274.000000
727257.000000
728247.000000
729184.000000
730162.000000
731140.000000
732080.000000
733060.000000
734049.000000
734997.000000
735961.000000
736942.000000
737882.000000
738829.000000
739800.000000
740739.000000
741674.000000
742640.000000
743590.000000
744528.000000
745496.000000
746458.000000
747396.000000
748374.000000
749322.000000
750247.000000
751213.000000
752165.000000
753097.000000
754062.000000
755009.000000
755938.000000
756899.000000
757879.000000
758821.000000
759809.000000
760814.000000
761795.000000
762742.000000
763734.000000
764735.000000
765691.000000
766681.000000
767668.000000
768612.000000
769587.000000
770560.000000
771487.000000
772464.000000
773429.000000
774367.000000
775335.000000
776312.000000
777245.000000
778217.000000
779191.000000
780122.000000
781093.000000
782072.000000
783013.000000
783979.000000
784947.000000
785909.000000
786857.000000
787841.000000
788834.000000
789797.000000
790756.000000
791758.000000
792762.000000
793715.000000
794689.000000
795691.000000
796666.000000
797621.000000
798628.000000
799626.000000
800587.000000
801583.000000
802557.000000
803526.000000
804476.000000
805451.000000
806433.000000
807383.000000
808363.000000
809334.000000
810267.000000
811252.000000
812219.000000
813140.000000
814069.000000
814978.000000
815912.000000
816823.000000
817751.000000
818648.000000
819518.000000
820368.000000
821185.000000
822020.000000
822914.000000
823816.000000
824767.000000
825761.000000
826752.000000
827688.000000
828617.000000
829562.000000
830463.000000
831407.000000
832346.000000
833253.000000
834209.000000
835170.000000
836086.000000
837027.000000
837990.000000
838938.000000
839861.000000
840808.000000
841748.000000
842671.000000
843623.000000
844572.000000
845476.000000
846437.000000
847389.000000
848320.000000
849243.000000
850192.000000
851119.000000
852019.000000
852950.000000
853873.000000
854765.000000
855694.000000
856651.000000
857608.000000
858550.000000
859530.000000
860495.000000
861420.000000
862344.000000
863351.000000
864371.000000
865372.000000
866353.000000
867274.000000
868235.000000
869193.000000
870107.000000
871024.000000
871974.000000
872923.000000
873860.000000
874824.000000
875787.000000
876711.000000
877658.000000
878634.000000
879623.000000
880594.000000
881552.000000
882531.000000
883519.000000
884505.000000
885469.000000
886427.000000
887401.000000
888351.000000
889321.000000
890309.000000
891298.000000
892270.000000
893280.000000
894305.000000
895289.000000
896276.000000
897306.000000
