ECG (ms)
15.000000
972.000000
1939.000000
2841.000000
3673.000000
4458.000000
5196.000000
5936.000000
6673.000000
7402.000000
8184.000000
9153.000000
10060.000000
10864.000000
11631.000000
12338.000000
13005.000000
13719.000000
14609.000000
15538.000000
16561.000000
17568.000000
18487.000000
19317.000000
20167.000000
21147.000000
22127.000000
23077.000000
24031.000000
24998.000000
25927.000000
26813.000000
27762.000000
28748.000000
29661.000000
30503.000000
31341.000000
32326.000000
33403.000000
34366.000000
35344.000000
36370.000000
37341.000000
38155.000000
38888.000000
39677.000000
40843.000000
41897.000000
42839.000000
43761.000000
44717.000000
45625.000000
46426.000000
47184.000000
47985.000000
49144.000000
50128.000000
50994.000000
51918.000000
52897.000000
53817.000000
54709.000000
55586.000000
56436.000000
57239.000000
58007.000000
58790.000000
59623.000000
60465.000000
61251.000000
62066.000000
62916.000000
63757.000000
64518.000000
65302.000000
66118.000000
66976.000000
67807.000000
68612.000000
69497.000000
70377.000000
71184.000000
71965.000000
72776.000000
73625.000000
74440.000000
75226.000000
76073.000000
77001.000000
77903.000000
78752.000000
79624.000000
80485.000000
81312.000000
82108.000000
82966.000000
83908.000000
84849.000000
85696.000000
86594.000000
87569.000000
88478.000000
89300.000000
90155.000000
91137.000000
92110.000000
93096.000000
94205.000000
95248.000000
96234.000000
97261.000000
98277.000000
99222.000000
100233.000000
101220.000000
102162.000000
103070.000000
103982.000000
104916.000000
105798.000000
106677.000000
107639.000000
108566.000000
109357.000000
110101.000000
110874.000000
112020.000000
113063.000000
113983.000000
114950.000000
115998.000000
116984.000000
117843.000000
118688.000000
119556.000000
120408.000000
121231.000000
122125.000000
123111.000000
124057.000000
124938.000000
125857.000000
126818.000000
127728.000000
128499.000000
129264.000000
130042.000000
130949.000000
131870.000000
132714.000000
133594.000000
134475.000000
135290.000000
136081.000000
136921.000000
137810.000000
138637.000000
139470.000000
140442.000000
141381.000000
142203.000000
142934.000000
143621.000000
144352.000000
145409.000000
146487.000000
147428.000000
148276.000000
149203.000000
150249.000000
151233.000000
152154.000000
153057.000000
153947.000000
154820.000000
155799.000000
156881.000000
157855.000000
158753.000000
159695.000000
160666.000000
161567.000000
162470.000000
163405.000000
164433.000000
165390.000000
166298.000000
167191.000000
168144.000000
169049.000000
169903.000000
170876.000000
171846.000000
172734.000000
173622.000000
174631.000000
175638.000000
176547.000000
177404.000000
178272.000000
179109.000000
179907.000000
180744.000000
181837.000000
182795.000000
183683.000000
184604.000000
185547.000000
186436.000000
187421.000000
188422.000000
189412.000000
190292.000000
191153.000000
192030.000000
192977.000000
193910.000000
194988.000000
196030.000000
196973.000000
197961.000000
198964.000000
199945.000000
200914.000000
201908.000000
202881.000000
203830.000000
204805.000000
205787.000000
206724.000000
207639.000000
208579.000000
209478.000000
210272.000000
211034.000000
211808.000000
212649.000000
213559.000000
214354.000000
215156.000000
215996.000000
216815.000000
217598.000000
218374.000000
219175.000000
220051.000000
220878.000000
221683.000000
222586.000000
223550.000000
224412.000000
225243.000000
226095.000000
227121.000000
228098.000000
229127.000000
230195.000000
231222.000000
232220.000000
233200.000000
234090.000000
234891.000000
235710.000000
236603.000000
237540.000000
238447.000000
239461.000000
240436.000000
241360.000000
242228.000000
243122.000000
244052.000000
244970.000000
245760.000000
246564.000000
247522.000000
248509.000000
249385.000000
250226.000000
251069.000000
251930.000000
252742.000000
253572.000000
254479.000000
255409.000000
256277.000000
257172.000000
258104.000000
258987.000000
259812.000000
260704.000000
261620.000000
262487.000000
263342.000000
264243.000000
265182.000000
266038.000000
266873.000000
267717.000000
268593.000000
269462.000000
270309.000000
271255.000000
272225.000000
273154.000000
274127.000000
275141.000000
276101.000000
276943.000000
277749.000000
278603.000000
279564.000000
280474.000000
281332.000000
282211.000000
283142.000000
283985.000000
284795.000000
285680.000000
286654.000000
287549.000000
288349.000000
289135.000000
289922.000000
290760.000000
291584.000000
292513.000000
293554.000000
294510.000000
295416.000000
296348.000000
297259.000000
298086.000000
298916.000000
299753.000000
300602.000000
301394.000000
302193.000000
303118.000000
304056.000000
304895.000000
305713.000000
306546.000000
307401.000000
308236.000000
309103.000000
310020.000000
310935.000000
311778.000000
312611.000000
313538.000000
314559.000000
315487.000000
316351.000000
317402.000000
318394.000000
319270.000000
320101.000000
321130.000000
322080.000000
322904.000000
323717.000000
324591.000000
325473.000000
326293.000000
327141.000000
328033.000000
328873.000000
329704.000000
330540.000000
331350.000000
332110.000000
332872.000000
333666.000000
334500.000000
335262.000000
336010.000000
336798.000000
337596.000000
338344.000000
339087.000000
339854.000000
340669.000000
341433.000000
342171.000000
342959.000000
343801.000000
344674.000000
345484.000000
346296.000000
347143.000000
347968.000000
348736.000000
349511.000000
350345.000000
351222.000000
352038.000000
352871.000000
353707.000000
354494.000000
355262.000000
356086.000000
356974.000000
357824.000000
358666.000000
359571.000000
360509.000000
361387.000000
362234.000000
363139.000000
364097.000000
364981.000000
365814.000000
366693.000000
367640.000000
368550.000000
369425.000000
370321.000000
371230.000000
372132.000000
373066.000000
374025.000000
374996.000000
375895.000000
376795.000000
377721.000000
378643.000000
379541.000000
380428.000000
381335.000000
382298.000000
383186.000000
384027.000000
384904.000000
385815.000000
386671.000000
387511.000000
388383.000000
389316.000000
390172.000000
390975.000000
391798.000000
392824.000000
393754.000000
394698.000000
395750.000000
396770.000000
397691.000000
398588.000000
399541.000000
400457.000000
401274.000000
402065.000000
403000.000000
404090.000000
405077.000000
406001.000000
406991.000000
407946.000000
408865.000000
409873.000000
410862.000000
411733.000000
412476.000000
413196.000000
414027.000000
415124.000000
416148.000000
417142.000000
418203.000000
419197.000000
420156.000000
421134.000000
422123.000000
423097.000000
424143.000000
425213.000000
426197.000000
427060.000000
427901.000000
428851.000000
429887.000000
430866.000000
431857.000000
432832.000000
433727.000000
434591.000000
435493.000000
436573.000000
437587.000000
438564.000000
439555.000000
440562.000000
441491.000000
442343.000000
443257.000000
444289.000000
445299.000000
446262.000000
447225.000000
448260.000000
449291.000000
450244.000000
451125.000000
452025.000000
452928.000000
453802.000000
454614.000000
455431.000000
456450.000000
457462.000000
458403.000000
459327.000000
460279.000000
461261.000000
462168.000000
463015.000000
463889.000000
464893.000000
465914.000000
466879.000000
467786.000000
468657.000000
469510.000000
470331.000000
471130.000000
471931.000000
472772.000000
473666.000000
474514.000000
475290.000000
476039.000000
476849.000000
477780.000000
478694.000000
479626.000000
480579.000000
481514.000000
482414.000000
483247.000000
484098.000000
485022.000000
485905.000000
486741.000000
487879.000000
488928.000000
489833.000000
490762.000000
491733.000000
492665.000000
493492.000000
494330.000000
495384.000000
496409.000000
497325.000000
498116.000000
498953.000000
499925.000000
500932.000000
501879.000000
502796.000000
503831.000000
504836.000000
505750.000000
506588.000000
507553.000000
508591.000000
509564.000000
510500.000000
511458.000000
512426.000000
513406.000000
514394.000000
515374.000000
516358.000000
517299.000000
518195.000000
519115.000000
520078.000000
521040.000000
521968.000000
522895.000000
523755.000000
524734.000000
525845.000000
526937.000000
527915.000000
528941.000000
529996.000000
531013.000000
531959.000000
532871.000000
533793.000000
534661.000000
535461.000000
536220.000000
537007.000000
537840.000000
538667.000000
539441.000000
540232.000000
541146.000000
542182.000000
543145.000000
544072.000000
545009.000000
545916.000000
546831.000000
547698.000000
548511.000000
549472.000000
550546.000000
551552.000000
552487.000000
553374.000000
554329.000000
555254.000000
556072.000000
556835.000000
557635.000000
558745.000000
559731.000000
560579.000000
561422.000000
562289.000000
563174.000000
563986.000000
564819.000000
565636.000000
566467.000000
567253.000000
568025.000000
568940.000000
569965.000000
570932.000000
571856.000000
572818.000000
573751.000000
574615.000000
575433.000000
576322.000000
577316.000000
578311.000000
579260.000000
580169.000000
581086.000000
582008.000000
582914.000000
583889.000000
584877.000000
585844.000000
586755.000000
587618.000000
588522.000000
589462.000000
590385.000000
591347.000000
592359.000000
593344.000000
594232.000000
595019.000000
595795.000000
596654.000000
597632.000000
598570.000000
599716.000000
600783.000000
601744.000000
602690.000000
603646.000000
604577.000000
605434.000000
606300.000000
607196.000000
608123.000000
609030.000000
609948.000000
610924.000000
611882.000000
612804.000000
613741.000000
614763.000000
615768.000000
616693.000000
617713.000000
618814.000000
619854.000000
620787.000000
621702.000000
622902.000000
624022.000000
625015.000000
625998.000000
627109.000000
628109.000000
628997.000000
629799.000000
630599.000000
631526.000000
632451.000000
633309.000000
634146.000000
635051.000000
636053.000000
637009.000000
637864.000000
638697.000000
639639.000000
640621.000000
641567.000000
642586.000000
643611.000000
644578.000000
645463.000000
646343.000000
647250.000000
648141.000000
648963.000000
649735.000000
650585.000000
651644.000000
652608.000000
653447.000000
654300.000000
655225.000000
656156.000000
657026.000000
657813.000000
658598.000000
659483.000000
660437.000000
661331.000000
662166.000000
663010.000000
663947.000000
664896.000000
665795.000000
666652.000000
667512.000000
668428.000000
669415.000000
670402.000000
671457.000000
672470.000000
673456.000000
674388.000000
675344.000000
676296.000000
677173.000000
678073.000000
679252.000000
680317.000000
681255.000000
682107.000000
682985.000000
684022.000000
684998.000000
685883.000000
686807.000000
687715.000000
688513.000000
689305.000000
690138.000000
691183.000000
692150.000000
693143.000000
694198.000000
695197.000000
696188.000000
697188.000000
698167.000000
699065.000000
699972.000000
700877.000000
701787.000000
702667.000000
703476.000000
704394.000000
705499.000000
706521.000000
707407.000000
708284.000000
709231.000000
710230.000000
711160.000000
712115.000000
713051.000000
713907.000000
714721.000000
715574.000000
716516.000000
717431.000000
718260.000000
719110.000000
719998.000000
721004.000000
721987.000000
723097.000000
724191.000000
725170.000000
726071.000000
726948.000000
727869.000000
728757.000000
729623.000000
730597.000000
731623.000000
732540.000000
733388.000000
734228.000000
735269.000000
736218.000000
737067.000000
737944.000000
738951.000000
739931.000000
740821.000000
741824.000000
742894.000000
743904.000000
744832.000000
745764.000000
746669.000000
747520.000000
748349.000000
749257.000000
750311.000000
751352.000000
752246.000000
753138.000000
754102.000000
755030.000000
755856.000000
756705.000000
757620.000000
758544.000000
759467.000000
760431.000000
761435.000000
762391.000000
763291.000000
764192.000000
765167.000000
766150.000000
767082.000000
767990.000000
768964.000000
769938.000000
770882.000000
771765.000000
772689.000000
773707.000000
774711.000000
775642.000000
776542.000000
777485.000000
778395.000000
779267.000000
780213.000000
781189.000000
782187.000000
783208.000000
784120.000000
785015.000000
785938.000000
786862.000000
787724.000000
788631.000000
789709.000000
790701.000000
791551.000000
792416.000000
793324.000000
794243.000000
795148.000000
796134.000000
797129.000000
798093.000000
798983.000000
799897.000000
800881.000000
801844.000000
802720.000000
803641.000000
804639.000000
805654.000000
806653.000000
807693.000000
808694.000000
809612.000000
810447.000000
811332.000000
812497.000000
813532.000000
814566.000000
815702.000000
816740.000000
817623.000000
818409.000000
819234.000000
820156.000000
821054.000000
821917.000000
822816.000000
823806.000000
824748.000000
825673.000000
826668.000000
827636.000000
828527.000000
829329.000000
830133.000000
830969.000000
831924.000000
832793.000000
833699.000000
834714.000000
835700.000000
836613.000000
837475.000000
838340.000000
839235.000000
840164.000000
841037.000000
841997.000000
842914.000000
843755.000000
844563.000000
845420.000000
846398.000000
847452.000000
848407.000000
849370.000000
850340.000000
851236.000000
852024.000000
852795.000000
853591.000000
854406.000000
855221.000000
856026.000000
857091.000000
858043.000000
858861.000000
859635.000000
860431.000000
861251.000000
862020.000000
862748.000000
863533.000000
864345.000000
865130.000000
865862.000000
866604.000000
867380.000000
868179.000000
868952.000000
869688.000000
870438.000000
871204.000000
872016.000000
872776.000000
873563.000000
874433.000000
875350.000000
876216.000000
877043.000000
877907.000000
878784.000000
879611.000000
880419.000000
881280.000000
882319.000000
883300.000000
884226.000000
885150.000000
886063.000000
886961.000000
887794.000000
888664.000000
889713.000000
890726.000000
891675.000000
892592.000000
893499.000000
894455.000000
895341.000000
896241.000000
897300.000000
898316.000000
899211.000000
900107.000000
901019.000000
901885.000000
902682.000000
903494.000000
904347.000000
905261.000000
906087.000000
906995.000000
907944.000000
908832.000000
909660.000000
910514.000000
911407.000000
912286.000000
913163.000000
914119.000000
915096.000000
916004.000000
916856.000000
917715.000000
918602.000000
919513.000000
920406.000000
921378.000000
922417.000000
923361.000000
924218.000000
925060.000000
925930.000000
926909.000000
927818.000000
928887.000000
929984.000000
930959.000000
931866.000000
932794.000000
933745.000000
934634.000000
935560.000000
936566.000000
937543.000000
938445.000000
939366.000000
940324.000000
941225.000000
942140.000000
943080.000000
944034.000000
944963.000000
945851.000000
946799.000000
947801.000000
948785.000000
949617.000000
950442.000000
951481.000000
952447.000000
953343.000000
954371.000000
955428.000000
956399.000000
957359.000000
958384.000000
959375.000000
960252.000000
961123.000000
962011.000000
962900.000000
963722.000000
964507.000000
965397.000000
966366.000000
967278.000000
968137.000000
969035.000000
969942.000000
970797.000000
971651.000000
972639.000000
973604.000000
974509.000000
975327.000000
976130.000000
977040.000000
978015.000000
978957.000000
979823.000000
980717.000000
981611.000000
982502.000000
983365.000000
984294.000000
985243.000000
986128.000000
987052.000000
987983.000000
988912.000000
989796.000000
990681.000000
991642.000000
992610.000000
993537.000000
994435.000000
995390.000000
996374.000000
997329.000000
998270.000000
999228.000000
1000207.000000
1001143.000000
1002104.000000
1003143.000000
1004134.000000
1005071.000000
1006028.000000
1007000.000000
1007954.000000
1008789.000000
1009581.000000
1010797.000000
1011832.000000
1012797.000000
1013874.000000
1014954.000000
1015929.000000
1016873.000000
1017754.000000
1018661.000000
1019477.000000
1020313.000000
1021230.000000
1022197.000000
1023139.000000
1024137.000000
1025141.000000
1026090.000000
1027000.000000
1027900.000000
1028791.000000
1029638.000000
1030448.000000
1031386.000000
1032416.000000
1033400.000000
1034327.000000
1035239.000000
1036116.000000
1036941.000000
1037743.000000
1038671.000000
1039773.000000
1040738.000000
1041547.000000
1042259.000000
1042969.000000
1043937.000000
1044958.000000
1045933.000000
1046747.000000
1047623.000000
1048667.000000
1049611.000000
1050519.000000
1051444.000000
1052345.000000
1053154.000000
1053944.000000
1054758.000000
1055562.000000
1056330.000000
1057115.000000
1057951.000000
1058822.000000
1059654.000000
1060431.000000
1061331.000000
1062225.000000
1063063.000000
1063880.000000
1064792.000000
1065728.000000
1066654.000000
1067517.000000
1068417.000000
1069380.000000
1070392.000000
1071365.000000
1072341.000000
1073341.000000
1074352.000000
1075291.000000
1076209.000000
1077156.000000
1078163.000000
1079134.000000
1080135.000000
1081256.000000
1082270.000000
1083189.000000
1084034.000000
1084928.000000
1085940.000000
1086855.000000
1087686.000000
1088563.000000
1089484.000000
1090320.000000
1091098.000000
1091948.000000
1092899.000000
1093806.000000
1094705.000000
1095660.000000
1096610.000000
1097544.000000
1098352.000000
1099166.000000
1100074.000000
1101091.000000
1102086.000000
1103085.000000
1104109.000000
1105107.000000
1106036.000000
1106958.000000
1107914.000000
1108850.000000
1109714.000000
1110618.000000
1111713.000000
1112670.000000
1113519.000000
1114416.000000
1115416.000000
1116429.000000
1117378.000000
1118325.000000
1119315.000000
1120300.000000
1121225.000000
1122159.000000
1123259.000000
1124306.000000
1125251.000000
1126160.000000
1127079.000000
1127951.000000
1128809.000000
1129807.000000
1130895.000000
1131904.000000
1132856.000000
1133812.000000
1134838.000000
1135787.000000
1136681.000000
1137630.000000
1138660.000000
1139623.000000
1140483.000000
1141366.000000
1142293.000000
1143128.000000
1143961.000000
1144827.000000
1145795.000000
1146686.000000
1147517.000000
1148393.000000
1149352.000000
1150238.000000
1151039.000000
1151872.000000
1152736.000000
1153554.000000
1154340.000000
1155207.000000
1156162.000000
1157085.000000
1158006.000000
1158872.000000
1159686.000000
1160452.000000
1161226.000000
1162277.000000
1163300.000000
1164289.000000
1165237.000000
1166187.000000
1167160.000000
1168093.000000
1169058.000000
1170132.000000
1171143.000000
1172051.000000
1172910.000000
1173861.000000
1174928.000000
1175938.000000
1176898.000000
1177921.000000
1178901.000000
1179873.000000
1180800.000000
1181840.000000
1182875.000000
1183793.000000
1184598.000000
1185391.000000
1186235.000000
1187030.000000
1187787.000000
1188574.000000
1189414.000000
1190276.000000
1191039.000000
1191744.000000
1192465.000000
1193210.000000
1193964.000000
1194693.000000
1195449.000000
1196261.000000
1197094.000000
1197862.000000
1198582.000000
1199306.000000
1200032.000000
1200758.000000
1201453.000000
1202150.000000
1202869.000000
1203606.000000
1204332.000000
1205043.000000
1205792.000000
1206602.000000
1207506.000000
1208349.000000
1209164.000000
1209983.000000
1210789.000000
1211538.000000
1212248.000000
1212990.000000
1213792.000000
1214598.000000
1215352.000000
1216111.000000
1216955.000000
1217832.000000
1218647.000000
1219448.000000
1220325.000000
1221304.000000
1222237.000000
1223087.000000
1223985.000000
1224932.000000
1225901.000000
1226802.000000
1227712.000000
1228703.000000
1229713.000000
1230619.000000
1231551.000000
1232551.000000
1233497.000000
1234339.000000
1235156.000000
1235959.000000
1236789.000000
1237619.000000
1238494.000000
1239542.000000
1240557.000000
1241466.000000
1242377.000000
1243386.000000
1244308.000000
1245119.000000
1245964.000000
1246871.000000
1247758.000000
1248618.000000
1249517.000000
1250501.000000
1251440.000000
1252316.000000
1253217.000000
1254152.000000
1255031.000000
1255848.000000
1256740.000000
1257695.000000
1258566.000000
1259349.000000
1260157.000000
1261001.000000
1261897.000000
1262751.000000
1263712.000000
1264763.000000
1265796.000000
1266784.000000
1267686.000000
1268522.000000
1269319.000000
1270104.000000
1270993.000000
1272128.000000
1273200.000000
1274221.000000
1275275.000000
1276313.000000
1277277.000000
1278174.000000
1279053.000000
1279950.000000
1280922.000000
1281829.000000
1282678.000000
1283648.000000
1284674.000000
1285627.000000
1286479.000000
1287370.000000
1288292.000000
1289154.000000
1289955.000000
1290831.000000
1291745.000000
1292618.000000
1293412.000000
1294202.000000
1295013.000000
1295825.000000
1296621.000000
1297624.000000
1298654.000000
1299597.000000
1300483.000000
1301396.000000
1302367.000000
1303332.000000
1304415.000000
1305552.000000
1306648.000000
1307653.000000
1308688.000000
1309738.000000
1310764.000000
1311744.000000
1312797.000000
1313843.000000
1314837.000000
1315784.000000
1316712.000000
1317639.000000
1318533.000000
1319521.000000
1320549.000000
1321514.000000
1322416.000000
1323360.000000
1324427.000000
1325407.000000
1326285.000000
1327148.000000
1328194.000000
1329264.000000
1330238.000000
1331244.000000
1332266.000000
1333271.000000
1334186.000000
1335144.000000
1336075.000000
1336955.000000
1337786.000000
1338580.000000
1339477.000000
1340539.000000
1341516.000000
1342411.000000
1343342.000000
1344295.000000
1345155.000000
1345969.000000
1346806.000000
1347738.000000
1348661.000000
1349585.000000
1350538.000000
1351506.000000
1352469.000000
1353314.000000
1354150.000000
1355053.000000
1355994.000000
1357001.000000
1358121.000000
1359148.000000
1360115.000000
1361092.000000
1362110.000000
1363063.000000
1363965.000000
1365029.000000
1366026.000000
1366975.000000
1367918.000000
1368909.000000
1369891.000000
1370821.000000
1371748.000000
1372721.000000
1373703.000000
1374612.000000
1375498.000000
1376395.000000
1377300.000000
1378155.000000
1379028.000000
1379971.000000
1380959.000000
1381906.000000
1382803.000000
1383718.000000
1384653.000000
1385537.000000
1386376.000000
1387248.000000
1388168.000000
1389089.000000
1389973.000000
1390939.000000
1391947.000000
1392904.000000
1393836.000000
1394909.000000
1395937.000000
1396875.000000
1397780.000000
1398722.000000
1399701.000000
1400666.000000
1401597.000000
1402644.000000
1403663.000000
1404652.000000
1405570.000000
1406553.000000
1407631.000000
1408697.000000
1409650.000000
1410585.000000
1411718.000000
1412811.000000
1413870.000000
1415089.000000
1416231.000000
1417265.000000
1418233.000000
1419241.000000
1420251.000000
1421236.000000
1422258.000000
1423293.000000
1424308.000000
1425262.000000
1426162.000000
1427122.000000
1428114.000000
1429058.000000
1430020.000000
1431086.000000
1432114.000000
1433057.000000
1433915.000000
1434823.000000
1435885.000000
1436915.000000
1437991.000000
1439110.000000
1440201.000000
1441230.000000
1442229.000000
1443241.000000
1444253.000000
1445205.000000
1446227.000000
1447301.000000
1448326.000000
1449236.000000
1450138.000000
1451049.000000
1451942.000000
1452804.000000
1453695.000000
1454755.000000
1455767.000000
1456632.000000
1457441.000000
1458260.000000
1459184.000000
1460076.000000
1460887.000000
1461787.000000
1462899.000000
1463884.000000
1464819.000000
1465822.000000
1466749.000000
1467569.000000
1468402.000000
1469319.000000
1470279.000000
1471183.000000
1472080.000000
1473033.000000
1474006.000000
1474949.000000
1475880.000000
1476906.000000
1477912.000000
1478879.000000
1479826.000000
1480862.000000
1481901.000000
1482884.000000
1483802.000000
1484790.000000
1485817.000000
1486764.000000
1487648.000000
1488549.000000
1489574.000000
1490520.000000
1491410.000000
1492267.000000
1493183.000000
1494199.000000
1495190.000000
1496160.000000
1497165.000000
1498180.000000
1499104.000000
1499954.000000
1500850.000000
1501829.000000
1502872.000000
1503847.000000
1504793.000000
1505776.000000
1506776.000000
1507643.000000
1508440.000000
1509288.000000
1510366.000000
1511443.000000
1512415.000000
1513472.000000
1514575.000000
1515576.000000
1516496.000000
1517483.000000
1518530.000000
1519480.000000
1520288.000000
1521064.000000
1521972.000000
1523075.000000
1524050.000000
1525042.000000
1526079.000000
1527086.000000
1527998.000000
1528878.000000
1529795.000000
1530693.000000
1531673.000000
1532537.000000
1533395.000000
1534416.000000
1535448.000000
1536458.000000
1537593.000000
1538692.000000
1539653.000000
1540650.000000
1541627.000000
1542523.000000
1543371.000000
1544335.000000
1545342.000000
1546281.000000
1547105.000000
1547920.000000
1548738.000000
1549611.000000
1550466.000000
1551282.000000
1552140.000000
1553153.000000
1554151.000000
1555106.000000
1555943.000000
1556856.000000
1557850.000000
1558881.000000
1559847.000000
1560841.000000
1561912.000000
1562891.000000
1563775.000000
1564708.000000
1565683.000000
1566628.000000
1567527.000000
1568472.000000
1569388.000000
1570240.000000
1571136.000000
1572095.000000
1573089.000000
1574006.000000
1574950.000000
1575919.000000
1576894.000000
1577840.000000
1578779.000000
1579778.000000
1580774.000000
1581727.000000
1582693.000000
1583686.000000
1584651.000000
1585580.000000
1586525.000000
1587612.000000
1588628.000000
1589547.000000
1590457.000000
1591477.000000
1592509.000000
1593502.000000
1594419.000000
1595336.000000
1596330.000000
1597336.000000
1598423.000000
1599519.000000
1600589.000000
1601564.000000
1602552.000000
1603602.000000
1604618.000000
1605636.000000
1606686.000000
1607731.000000
1608760.000000
1609699.000000
1610668.000000
1611659.000000
1612626.000000
1613618.000000
1614719.000000
1615792.000000
1616778.000000
1617763.000000
1618793.000000
1619725.000000
1620651.000000
1621768.000000
1622884.000000
1623896.000000
1624812.000000
1625710.000000
1626732.000000
1627731.000000
1628746.000000
1629890.000000
1630966.000000
1631957.000000
1632989.000000
1633983.000000
1634889.000000
1635740.000000
1636616.000000
1637509.000000
1638399.000000
1639231.000000
1640096.000000
1641100.000000
1642046.000000
1642889.000000
1643663.000000
1644476.000000
1645419.000000
1646396.000000
1647303.000000
1648264.000000
1649279.000000
1650247.000000
1651118.000000
1651950.000000
1652838.000000
1653907.000000
1654900.000000
1655888.000000
1656923.000000
1658008.000000
1659018.000000
1659907.000000
1660797.000000
1661817.000000
1662797.000000
1663668.000000
1664532.000000
1665497.000000
1666510.000000
1667437.000000
1668382.000000
1669383.000000
1670358.000000
1671283.000000
1672231.000000
1673198.000000
1674103.000000
1674949.000000
1675795.000000
1676673.000000
1677621.000000
1678601.000000
1679576.000000
1680614.000000
1681659.000000
1682634.000000
1683515.000000
1684331.000000
1685204.000000
1686318.000000
1687311.000000
1688262.000000
1689304.000000
1690297.000000
1691171.000000
1692077.000000
1693062.000000
1693962.000000
1694763.000000
1695547.000000
1696317.000000
1697076.000000
1697831.000000
1698687.000000
1699644.000000
1700528.000000
1701345.000000
1702146.000000
1702988.000000
1703798.000000
1704573.000000
1705406.000000
1706327.000000
1707268.000000
1708142.000000
1709066.000000
1709991.000000
1710877.000000
1711671.000000
1712472.000000
1713362.000000
1714373.000000
1715335.000000
1716326.000000
1717339.000000
1718326.000000
1719277.000000
1720204.000000
1721188.000000
1722188.000000
1723163.000000
1724061.000000
1724967.000000
1725919.000000
1726813.000000
1727660.000000
1728553.000000
1729583.000000
1730561.000000
1731521.000000
1732478.000000
1733367.000000
1734223.000000
1735148.000000
1736089.000000
1736945.000000
1737730.000000
1738598.000000
1739704.000000
1740749.000000
1741689.000000
1742574.000000
1743490.000000
1744478.000000
1745386.000000
1746249.000000
1747467.000000
1748619.000000
1749588.000000
1750497.000000
1751382.000000
1752235.000000
1753164.000000
1754051.000000
1754854.000000
1755696.000000
1756622.000000
1757502.000000
1758324.000000
1759214.000000
1760131.000000
1760969.000000
1761761.000000
1762599.000000
1763519.000000
1764366.000000
1765171.000000
1766018.000000
1766871.000000
1767671.000000
1768393.000000
1769071.000000
1769754.000000
1770491.000000
1771515.000000
1772500.000000
1773411.000000
1774218.000000
1774983.000000
1775775.000000
1776677.000000
1777590.000000
1778442.000000
1779302.000000
1780269.000000
1781138.000000
1781971.000000
1782830.000000
1783761.000000
1784642.000000
1785563.000000
1786506.000000
1787426.000000
1788222.000000
1789001.000000
1789833.000000
1790737.000000
1791584.000000
1792393.000000
1793412.000000
1794396.000000
1795248.000000
1796106.000000
1797111.000000
1798080.000000
1798982.000000
1799797.000000
1800513.000000
