ECG (ms)
-4.000000
847.000000
1688.000000
2523.000000
3337.000000
4150.000000
4967.000000
5786.000000
6594.000000
7398.000000
8207.000000
9022.000000
9869.000000
10680.000000
11478.000000
12260.000000
13047.000000
13847.000000
14657.000000
15443.000000
16230.000000
17025.000000
17860.000000
18687.000000
19488.000000
20276.000000
21064.000000
21856.000000
22645.000000
23425.000000
24188.000000
24964.000000
25744.000000
26549.000000
27359.000000
28152.000000
28934.000000
29726.000000
30528.000000
31337.000000
32126.000000
32913.000000
33710.000000
34518.000000
35330.000000
36124.000000
36936.000000
37769.000000
38612.000000
39430.000000
40246.000000
41086.000000
41917.000000
42733.000000
43529.000000
44326.000000
45135.000000
45974.000000
46789.000000
47607.000000
48443.000000
49279.000000
50101.000000
50890.000000
51663.000000
52434.000000
53220.000000
54024.000000
54821.000000
55600.000000
56403.000000
57211.000000
58028.000000
58850.000000
59648.000000
60417.000000
61201.000000
61989.000000
62769.000000
63559.000000
64332.000000
65104.000000
65889.000000
66676.000000
67474.000000
68247.000000
69012.000000
69777.000000
70533.000000
71276.000000
72028.000000
72791.000000
73567.000000
74370.000000
75210.000000
76058.000000
76897.000000
77692.000000
78480.000000
79265.000000
80060.000000
80852.000000
81634.000000
82428.000000
83243.000000
84086.000000
84908.000000
85742.000000
86556.000000
87362.000000
88148.000000
88921.000000
89696.000000
90468.000000
91255.000000
92047.000000
92830.000000
93598.000000
94374.000000
95156.000000
95948.000000
96736.000000
97515.000000
98284.000000
99066.000000
99861.000000
100672.000000
101469.000000
102267.000000
103082.000000
103898.000000
104723.000000
105549.000000
106367.000000
107193.000000
108013.000000
108836.000000
109641.000000
110437.000000
111251.000000
112098.000000
112944.000000
113742.000000
114513.000000
115279.000000
116053.000000
116865.000000
117669.000000
118464.000000
119271.000000
120097.000000
120936.000000
121759.000000
122542.000000
123343.000000
124132.000000
124925.000000
125692.000000
126467.000000
127241.000000
128012.000000
128795.000000
129575.000000
130357.000000
131134.000000
131911.000000
132687.000000
133466.000000
134239.000000
135006.000000
135784.000000
136570.000000
137365.000000
138143.000000
138915.000000
139685.000000
140453.000000
141216.000000
141967.000000
142708.000000
143453.000000
144209.000000
144977.000000
145755.000000
146524.000000
147301.000000
148090.000000
148879.000000
149650.000000
150412.000000
151178.000000
151940.000000
152702.000000
153461.000000
154221.000000
154982.000000
155751.000000
156534.000000
157312.000000
158082.000000
158855.000000
159629.000000
160401.000000
161169.000000
161934.000000
162705.000000
163485.000000
164292.000000
165106.000000
165899.000000
166672.000000
167448.000000
168217.000000
168993.000000
169759.000000
170511.000000
171265.000000
172027.000000
172806.000000
173602.000000
174393.000000
175184.000000
175980.000000
176770.000000
177550.000000
178314.000000
179068.000000
179825.000000
180589.000000
181377.000000
182179.000000
182978.000000
183776.000000
184592.000000
185409.000000
186233.000000
187047.000000
187832.000000
188623.000000
189410.000000
190199.000000
190993.000000
191788.000000
192585.000000
193401.000000
194236.000000
195092.000000
195930.000000
196755.000000
197585.000000
198410.000000
199245.000000
200059.000000
200879.000000
201718.000000
202582.000000
203456.000000
204298.000000
205118.000000
205945.000000
206773.000000
207604.000000
208401.000000
209182.000000
209967.000000
210767.000000
211586.000000
212401.000000
213206.000000
214028.000000
214862.000000
215678.000000
216473.000000
217253.000000
218029.000000
218818.000000
219606.000000
220380.000000
221144.000000
221915.000000
222692.000000
223486.000000
224280.000000
225067.000000
225857.000000
226650.000000
227449.000000
228251.000000
229039.000000
229821.000000
230606.000000
231387.000000
232176.000000
232970.000000
233747.000000
234518.000000
235291.000000
236077.000000
236877.000000
237666.000000
238456.000000
239256.000000
240067.000000
240887.000000
241698.000000
242540.000000
243388.000000
244265.000000
245133.000000
245959.000000
246788.000000
247621.000000
248459.000000
249295.000000
250110.000000
250900.000000
251676.000000
252466.000000
253273.000000
254097.000000
254916.000000
255711.000000
256500.000000
257291.000000
258083.000000
258885.000000
259671.000000
260444.000000
261216.000000
261988.000000
262768.000000
263542.000000
264310.000000
265068.000000
265835.000000
266614.000000
267406.000000
268194.000000
268975.000000
269754.000000
270535.000000
271326.000000
272114.000000
272885.000000
273648.000000
274412.000000
275180.000000
275965.000000
276771.000000
277582.000000
278380.000000
279198.000000
280020.000000
280845.000000
281670.000000
282467.000000
283252.000000
284046.000000
284848.000000
285669.000000
286488.000000
287329.000000
288191.000000
289061.000000
289904.000000
290728.000000
291556.000000
292379.000000
293200.000000
294016.000000
294815.000000
295640.000000
296472.000000
297350.000000
298193.000000
299026.000000
299861.000000
300708.000000
301561.000000
302381.000000
303185.000000
304006.000000
304850.000000
305699.000000
306527.000000
307347.000000
308228.000000
309146.000000
310055.000000
310908.000000
311716.000000
312529.000000
313344.000000
314157.000000
314960.000000
315751.000000
316585.000000
317445.000000
318360.000000
319228.000000
320081.000000
320947.000000
321846.000000
322697.000000
323508.000000
324284.000000
325082.000000
325886.000000
326723.000000
327550.000000
328364.000000
329197.000000
330031.000000
330875.000000
331697.000000
332495.000000
333296.000000
334091.000000
334895.000000
335703.000000
336511.000000
337300.000000
338085.000000
338870.000000
339670.000000
340474.000000
341267.000000
342047.000000
342832.000000
343640.000000
344449.000000
345249.000000
346018.000000
346783.000000
347549.000000
348319.000000
349095.000000
349867.000000
350631.000000
351401.000000
352182.000000
352973.000000
353765.000000
354547.000000
355321.000000
356100.000000
356887.000000
357683.000000
358479.000000
359257.000000
360023.000000
360790.000000
361564.000000
362362.000000
363162.000000
363959.000000
364768.000000
365592.000000
366437.000000
367283.000000
368095.000000
368906.000000
369709.000000
370519.000000
371320.000000
372120.000000
372943.000000
373798.000000
374673.000000
375543.000000
376375.000000
377185.000000
377994.000000
378816.000000
379660.000000
380492.000000
381316.000000
382143.000000
382987.000000
383843.000000
384699.000000
385536.000000
386374.000000
387220.000000
388082.000000
388942.000000
389771.000000
390609.000000
391465.000000
392361.000000
393228.000000
394092.000000
394943.000000
395785.000000
396630.000000
397435.000000
398246.000000
399091.000000
400017.000000
400991.000000
401923.000000
402805.000000
403691.000000
404570.000000
405420.000000
406225.000000
407012.000000
407797.000000
408583.000000
409382.000000
410184.000000
410985.000000
411804.000000
412637.000000
413469.000000
414297.000000
415103.000000
415903.000000
416702.000000
417544.000000
418374.000000
419181.000000
419975.000000
420767.000000
421563.000000
422364.000000
423164.000000
423958.000000
424775.000000
425611.000000
426467.000000
427295.000000
428139.000000
428985.000000
429840.000000
430689.000000
431519.000000
432330.000000
433134.000000
433965.000000
434850.000000
435761.000000
436644.000000
437550.000000
438453.000000
439338.000000
440175.000000
440990.000000
441825.000000
442685.000000
443577.000000
444487.000000
445366.000000
446206.000000
447043.000000
447884.000000
448743.000000
449609.000000
450465.000000
451346.000000
452266.000000
453168.000000
454023.000000
454861.000000
455696.000000
456521.000000
457343.000000
458160.000000
458958.000000
459740.000000
460518.000000
461298.000000
462085.000000
462863.000000
463636.000000
464419.000000
465213.000000
466022.000000
466825.000000
467609.000000
468385.000000
469162.000000
469937.000000
470711.000000
471487.000000
472260.000000
473030.000000
473814.000000
474624.000000
475458.000000
476275.000000
477079.000000
477892.000000
478709.000000
479523.000000
480357.000000
481186.000000
482017.000000
482852.000000
483696.000000
484523.000000
485333.000000
486140.000000
486951.000000
487776.000000
488609.000000
489423.000000
490220.000000
491024.000000
491847.000000
492683.000000
493508.000000
494348.000000
495195.000000
496047.000000
496892.000000
497717.000000
498534.000000
499371.000000
500234.000000
501152.000000
502060.000000
502938.000000
503813.000000
504697.000000
505576.000000
506432.000000
507309.000000
508215.000000
509178.000000
510093.000000
510956.000000
511825.000000
512684.000000
513551.000000
514396.000000
515234.000000
516100.000000
517011.000000
517957.000000
518850.000000
519730.000000
520638.000000
521530.000000
522415.000000
523263.000000
524083.000000
524918.000000
525760.000000
526616.000000
527464.000000
528295.000000
529148.000000
529997.000000
530824.000000
531627.000000
532426.000000
533226.000000
534028.000000
534816.000000
535595.000000
536374.000000
537149.000000
537934.000000
538711.000000
539485.000000
540257.000000
541027.000000
541807.000000
542586.000000
543357.000000
544122.000000
544896.000000
545697.000000
546498.000000
547290.000000
548075.000000
548842.000000
549619.000000
550408.000000
551205.000000
552001.000000
552796.000000
553612.000000
554451.000000
555304.000000
556134.000000
556937.000000
557719.000000
558503.000000
559294.000000
560091.000000
560887.000000
561686.000000
562524.000000
563390.000000
564281.000000
565156.000000
566000.000000
566841.000000
567682.000000
568532.000000
569396.000000
570239.000000
571111.000000
572008.000000
572936.000000
573812.000000
574639.000000
575485.000000
576336.000000
577232.000000
578125.000000
578993.000000
579885.000000
580814.000000
581739.000000
582610.000000
583442.000000
584320.000000
585173.000000
586051.000000
586913.000000
587832.000000
588756.000000
589681.000000
590541.000000
591352.000000
592200.000000
593047.000000
593937.000000
594785.000000
595620.000000
596466.000000
597321.000000
598187.000000
599012.000000
599841.000000
600682.000000
601513.000000
602342.000000
603150.000000
603938.000000
604732.000000
605531.000000
606369.000000
607219.000000
608049.000000
608864.000000
609705.000000
610557.000000
611391.000000
612204.000000
613014.000000
613818.000000
614634.000000
615463.000000
616285.000000
617085.000000
617896.000000
618711.000000
619536.000000
620379.000000
621205.000000
622034.000000
622873.000000
623733.000000
624593.000000
625428.000000
626277.000000
627151.000000
628029.000000
628891.000000
629743.000000
630585.000000
631438.000000
632290.000000
633115.000000
633927.000000
634763.000000
635609.000000
636459.000000
637286.000000
638078.000000
638884.000000
639685.000000
640489.000000
641295.000000
642084.000000
642871.000000
643663.000000
644476.000000
645298.000000
646117.000000
646922.000000
647722.000000
648526.000000
649328.000000
650141.000000
650946.000000
651735.000000
652515.000000
653303.000000
654094.000000
654887.000000
655685.000000
656480.000000
657265.000000
658058.000000
658869.000000
659702.000000
660536.000000
661350.000000
662152.000000
662961.000000
663771.000000
664566.000000
665352.000000
666127.000000
666905.000000
667693.000000
668503.000000
669315.000000
670110.000000
670904.000000
671707.000000
672515.000000
673336.000000
674155.000000
674981.000000
675816.000000
676675.000000
677532.000000
678402.000000
679266.000000
680142.000000
681024.000000
681904.000000
682732.000000
683552.000000
684377.000000
685225.000000
686092.000000
687042.000000
688047.000000
689094.000000
690080.000000
690986.000000
691891.000000
692780.000000
693654.000000
694505.000000
695382.000000
696271.000000
697212.000000
698163.000000
699117.000000
699993.000000
700877.000000
701787.000000
702681.000000
703533.000000
704367.000000
705198.000000
706070.000000
706971.000000
707882.000000
708748.000000
709597.000000
710448.000000
711301.000000
712165.000000
712991.000000
713793.000000
714597.000000
715403.000000
716228.000000
717047.000000
717852.000000
718647.000000
719454.000000
720270.000000
721102.000000
721913.000000
722712.000000
723522.000000
724331.000000
725147.000000
725970.000000
726768.000000
727553.000000
728345.000000
729144.000000
729954.000000
730787.000000
731615.000000
732420.000000
733230.000000
734049.000000
734871.000000
735693.000000
736490.000000
737283.000000
738090.000000
738908.000000
739742.000000
740578.000000
741407.000000
742237.000000
743077.000000
743919.000000
744749.000000
745581.000000
746402.000000
747210.000000
748031.000000
748863.000000
749714.000000
750575.000000
751405.000000
752212.000000
753019.000000
753827.000000
754634.000000
755444.000000
756248.000000
757064.000000
757901.000000
758756.000000
759621.000000
760462.000000
761287.000000
762111.000000
762932.000000
763737.000000
764530.000000
765316.000000
766109.000000
766923.000000
767753.000000
768589.000000
769401.000000
770208.000000
771010.000000
771809.000000
772603.000000
773393.000000
774185.000000
774987.000000
775805.000000
776627.000000
777420.000000
778176.000000
778916.000000
779648.000000
780379.000000
781128.000000
781886.000000
782657.000000
783428.000000
784195.000000
784977.000000
785759.000000
786568.000000
787391.000000
788189.000000
788992.000000
789812.000000
790649.000000
791484.000000
792302.000000
793102.000000
793906.000000
794717.000000
795541.000000
796378.000000
797202.000000
798030.000000
798870.000000
799715.000000
800572.000000
801403.000000
802224.000000
803060.000000
803918.000000
804782.000000
805638.000000
806471.000000
807286.000000
808107.000000
808932.000000
809768.000000
810591.000000
811417.000000
812260.000000
813127.000000
813988.000000
814823.000000
815663.000000
816511.000000
817368.000000
818219.000000
819054.000000
819902.000000
820773.000000
821639.000000
822471.000000
823296.000000
824138.000000
824987.000000
825842.000000
826696.000000
827532.000000
828380.000000
829229.000000
830072.000000
830894.000000
831704.000000
832537.000000
833393.000000
834280.000000
835151.000000
835984.000000
836804.000000
837615.000000
838422.000000
839244.000000
840076.000000
840905.000000
841729.000000
842548.000000
843391.000000
844250.000000
845124.000000
846003.000000
846854.000000
847666.000000
848468.000000
849268.000000
850088.000000
850924.000000
851775.000000
852628.000000
853519.000000
854429.000000
855369.000000
856295.000000
857185.000000
858037.000000
858889.000000
859753.000000
860651.000000
861573.000000
862484.000000
863351.000000
864229.000000
865122.000000
865999.000000
866866.000000
867694.000000
868504.000000
869320.000000
870152.000000
870997.000000
871816.000000
872616.000000
873414.000000
874207.000000
875006.000000
875803.000000
876590.000000
877368.000000
878159.000000
878969.000000
879794.000000
880612.000000
881425.000000
882244.000000
883072.000000
883912.000000
884744.000000
885564.000000
886380.000000
887208.000000
888049.000000
888906.000000
889769.000000
890615.000000
891487.000000
892376.000000
893273.000000
894145.000000
894978.000000
895815.000000
896650.000000
897497.000000
898354.000000
899201.000000
900035.000000
900887.000000
901743.000000
902603.000000
903437.000000
904254.000000
905076.000000
