ECG (ms)
189.000000
960.000000
1796.000000
2589.000000
3398.000000
4222.000000
5008.000000
5804.000000
6642.000000
7433.000000
8161.000000
8921.000000
9704.000000
10454.000000
11233.000000
12032.000000
12827.000000
13593.000000
14411.000000
15274.000000
16051.000000
16833.000000
17624.000000
18387.000000
19179.000000
19954.000000
20684.000000
21436.000000
22224.000000
23007.000000
23758.000000
24580.000000
25399.000000
26173.000000
26990.000000
27848.000000
28655.000000
29395.000000
30192.000000
31000.000000
31744.000000
32517.000000
33310.000000
34056.000000
34825.000000
35630.000000
36388.000000
37136.000000
37933.000000
38778.000000
39530.000000
40343.000000
41212.000000
42011.000000
42792.000000
43601.000000
44379.000000
45131.000000
45920.000000
46752.000000
47514.000000
48272.000000
49094.000000
49940.000000
50728.000000
51501.000000
52324.000000
53135.000000
53900.000000
54697.000000
55526.000000
56338.000000
57122.000000
57942.000000
58794.000000
59561.000000
60386.000000
61242.000000
62082.000000
62879.000000
63712.000000
64547.000000
65323.000000
66151.000000
66959.000000
67703.000000
68458.000000
69234.000000
69967.000000
70724.000000
71544.000000
72296.000000
73085.000000
73944.000000
74768.000000
75545.000000
76368.000000
77222.000000
78009.000000
78808.000000
79619.000000
80413.000000
81177.000000
81973.000000
82756.000000
83505.000000
84308.000000
85130.000000
85904.000000
86691.000000
87474.000000
88216.000000
88982.000000
89783.000000
90557.000000
91299.000000
92088.000000
92877.000000
93650.000000
94479.000000
95311.000000
96139.000000
96974.000000
97791.000000
98547.000000
99289.000000
100056.000000
100784.000000
101536.000000
102307.000000
103045.000000
103771.000000
104577.000000
105398.000000
106152.000000
106938.000000
107683.000000
108386.000000
109100.000000
109866.000000
110592.000000
111328.000000
112090.000000
112842.000000
113576.000000
114330.000000
115086.000000
115824.000000
116607.000000
117396.000000
118165.000000
118890.000000
119665.000000
120422.000000
121147.000000
121894.000000
122700.000000
123452.000000
124195.000000
124982.000000
125782.000000
126564.000000
127364.000000
128175.000000
128912.000000
129652.000000
130427.000000
131208.000000
131961.000000
132735.000000
133571.000000
134328.000000
135100.000000
135909.000000
136696.000000
137444.000000
138230.000000
139010.000000
139749.000000
140523.000000
141337.000000
142134.000000
142887.000000
143676.000000
144473.000000
145226.000000
145987.000000
146778.000000
147538.000000
148271.000000
149031.000000
149781.000000
150527.000000
151304.000000
152129.000000
152886.000000
153651.000000
154450.000000
155232.000000
155960.000000
156702.000000
157464.000000
158204.000000
158971.000000
159768.000000
160510.000000
161282.000000
162112.000000
162925.000000
163678.000000
164467.000000
165284.000000
166058.000000
166854.000000
167676.000000
168440.000000
169177.000000
169944.000000
170740.000000
171505.000000
172280.000000
173105.000000
173919.000000
174707.000000
175530.000000
176361.000000
177144.000000
177944.000000
178787.000000
179570.000000
180362.000000
181125.000000
181848.000000
182565.000000
183332.000000
184210.000000
184984.000000
185795.000000
186601.000000
187357.000000
188135.000000
188920.000000
189652.000000
190348.000000
191012.000000
191724.000000
192675.000000
193527.000000
194338.000000
195124.000000
195959.000000
196789.000000
197581.000000
198388.000000
199179.000000
199937.000000
200713.000000
201494.000000
202306.000000
203105.000000
203926.000000
204719.000000
205502.000000
206308.000000
207097.000000
207880.000000
208668.000000
209414.000000
210112.000000
210774.000000
211447.000000
212146.000000
212914.000000
213743.000000
214630.000000
215441.000000
216260.000000
217089.000000
217861.000000
218587.000000
219365.000000
220157.000000
220916.000000
221704.000000
222513.000000
223267.000000
224060.000000
224934.000000
225695.000000
226463.000000
227296.000000
228075.000000
228881.000000
229684.000000
230424.000000
231181.000000
231957.000000
232709.000000
233484.000000
234384.000000
235221.000000
236012.000000
236881.000000
237744.000000
238534.000000
239390.000000
240238.000000
241033.000000
241876.000000
242749.000000
243573.000000
244374.000000
245219.000000
246047.000000
246851.000000
247652.000000
248480.000000
249259.000000
250081.000000
250899.000000
251688.000000
252508.000000
253342.000000
254186.000000
254969.000000
255804.000000
256653.000000
257428.000000
258169.000000
258948.000000
259811.000000
260585.000000
261410.000000
262261.000000
263060.000000
263878.000000
264716.000000
265479.000000
266280.000000
267111.000000
267903.000000
268697.000000
269505.000000
270318.000000
271096.000000
271952.000000
272811.000000
273590.000000
274416.000000
275205.000000
275958.000000
276760.000000
277579.000000
278359.000000
279234.000000
280136.000000
280961.000000
281793.000000
282611.000000
283370.000000
284163.000000
284995.000000
285793.000000
286592.000000
287447.000000
288328.000000
289157.000000
290094.000000
290981.000000
291785.000000
292584.000000
293380.000000
294144.000000
294901.000000
295718.000000
296568.000000
297379.000000
298209.000000
299129.000000
299964.000000
300776.000000
301620.000000
302501.000000
303304.000000
304117.000000
304961.000000
305764.000000
306545.000000
307390.000000
308245.000000
309005.000000
309773.000000
310599.000000
311453.000000
312218.000000
312986.000000
313794.000000
314573.000000
315378.000000
316230.000000
317047.000000
317804.000000
318605.000000
319429.000000
320183.000000
320930.000000
321709.000000
322531.000000
323289.000000
324076.000000
324881.000000
325617.000000
326367.000000
327164.000000
327936.000000
328670.000000
329447.000000
330265.000000
331031.000000
331798.000000
332579.000000
333370.000000
334104.000000
334838.000000
335582.000000
336317.000000
337106.000000
337942.000000
338699.000000
339520.000000
340397.000000
341215.000000
341983.000000
342786.000000
343615.000000
344387.000000
345154.000000
345961.000000
346708.000000
347446.000000
348240.000000
348975.000000
349678.000000
352063.000000
352924.000000
353763.000000
354617.000000
355438.000000
356230.000000
357027.000000
357848.000000
358706.000000
359585.000000
360423.000000
361266.000000
362106.000000
362941.000000
363741.000000
364572.000000
365408.000000
366239.000000
367056.000000
367841.000000
368625.000000
369431.000000
370278.000000
371147.000000
371940.000000
372652.000000
373393.000000
374169.000000
374923.000000
375651.000000
376455.000000
377309.000000
378091.000000
378925.000000
379790.000000
380581.000000
381371.000000
382201.000000
383050.000000
383836.000000
384682.000000
385540.000000
386346.000000
387137.000000
387953.000000
388782.000000
389560.000000
390356.000000
391192.000000
391971.000000
392761.000000
393558.000000
394330.000000
395095.000000
395898.000000
396750.000000
397549.000000
398348.000000
399221.000000
400046.000000
400820.000000
401622.000000
402466.000000
403286.000000
404048.000000
404826.000000
405633.000000
406390.000000
407195.000000
408057.000000
408915.000000
409715.000000
410548.000000
411371.000000
412127.000000
412910.000000
413715.000000
414483.000000
415245.000000
416038.000000
416850.000000
417627.000000
418451.000000
419302.000000
420074.000000
420819.000000
421612.000000
422421.000000
423183.000000
423990.000000
424764.000000
425497.000000
426241.000000
427059.000000
427800.000000
428554.000000
429402.000000
430192.000000
430919.000000
431670.000000
432396.000000
433134.000000
433910.000000
434683.000000
435414.000000
436167.000000
436934.000000
437684.000000
438454.000000
439230.000000
440027.000000
440790.000000
441570.000000
442369.000000
443131.000000
443898.000000
444698.000000
445513.000000
446257.000000
447000.000000
447806.000000
448617.000000
449363.000000
450144.000000
450920.000000
451719.000000
452489.000000
453293.000000
454099.000000
454877.000000
455632.000000
456407.000000
457184.000000
457945.000000
458715.000000
459538.000000
460330.000000
461073.000000
461863.000000
462702.000000
463483.000000
464252.000000
465061.000000
465823.000000
466564.000000
467300.000000
468065.000000
468795.000000
469550.000000
470349.000000
471128.000000
471877.000000
472642.000000
473457.000000
474203.000000
474962.000000
475782.000000
476608.000000
477367.000000
478131.000000
478934.000000
479737.000000
480495.000000
481340.000000
482223.000000
482980.000000
483772.000000
484585.000000
485411.000000
486203.000000
487070.000000
487970.000000
488785.000000
489635.000000
490473.000000
491260.000000
492031.000000
492849.000000
493670.000000
494444.000000
495260.000000
496071.000000
496855.000000
497668.000000
498488.000000
499260.000000
500029.000000
500839.000000
501703.000000
502491.000000
503292.000000
504136.000000
504968.000000
505757.000000
506595.000000
507438.000000
508266.000000
509068.000000
509898.000000
510747.000000
511517.000000
512299.000000
513114.000000
513907.000000
514673.000000
515486.000000
516358.000000
517157.000000
518000.000000
518773.000000
519518.000000
520241.000000
520969.000000
521721.000000
522451.000000
523227.000000
524088.000000
524890.000000
525669.000000
526488.000000
527300.000000
528043.000000
528798.000000
529568.000000
530292.000000
531051.000000
531887.000000
532732.000000
533493.000000
534288.000000
535086.000000
535902.000000
536681.000000
537534.000000
538380.000000
539144.000000
539934.000000
540743.000000
541514.000000
542286.000000
543059.000000
543828.000000
544604.000000
545451.000000
546276.000000
547080.000000
547879.000000
548638.000000
549381.000000
550112.000000
550853.000000
551643.000000
552399.000000
553178.000000
554002.000000
554766.000000
555533.000000
556326.000000
557120.000000
557873.000000
558680.000000
559487.000000
560259.000000
561030.000000
561801.000000
562554.000000
563288.000000
564038.000000
564850.000000
565612.000000
566364.000000
567203.000000
568043.000000
568827.000000
569634.000000
570484.000000
571250.000000
572042.000000
572895.000000
573731.000000
574521.000000
575356.000000
576223.000000
577015.000000
577788.000000
578583.000000
579369.000000
580093.000000
580864.000000
581693.000000
582469.000000
583255.000000
584119.000000
584903.000000
585694.000000
586511.000000
587306.000000
588049.000000
588831.000000
589641.000000
590401.000000
591241.000000
592124.000000
592967.000000
593783.000000
594642.000000
595487.000000
596250.000000
597054.000000
597879.000000
598696.000000
599451.000000
600252.000000
601077.000000
601839.000000
602654.000000
603511.000000
604311.000000
605112.000000
605936.000000
606722.000000
607476.000000
608259.000000
609083.000000
609865.000000
610663.000000
611498.000000
612318.000000
613067.000000
613864.000000
614677.000000
615450.000000
616166.000000
616901.000000
617654.000000
618384.000000
619170.000000
619978.000000
620742.000000
621519.000000
622346.000000
623174.000000
623922.000000
624611.000000
625278.000000
625971.000000
626927.000000
627817.000000
628670.000000
629502.000000
630327.000000
631076.000000
631874.000000
632714.000000
633536.000000
634333.000000
635167.000000
636045.000000
636889.000000
637649.000000
638434.000000
639225.000000
639977.000000
640751.000000
641563.000000
642417.000000
643230.000000
644054.000000
644892.000000
645704.000000
646482.000000
647295.000000
648110.000000
648850.000000
649629.000000
650446.000000
651205.000000
652009.000000
652840.000000
653634.000000
654387.000000
655152.000000
655915.000000
656629.000000
657344.000000
658055.000000
658757.000000
659474.000000
660211.000000
661033.000000
661806.000000
662623.000000
663448.000000
664223.000000
665042.000000
665812.000000
666602.000000
667411.000000
668227.000000
669005.000000
669805.000000
670625.000000
671421.000000
672132.000000
672856.000000
673612.000000
674389.000000
675170.000000
675959.000000
676696.000000
677474.000000
678300.000000
679136.000000
679938.000000
680773.000000
681623.000000
682417.000000
683153.000000
683928.000000
684740.000000
685511.000000
686275.000000
687098.000000
687926.000000
688785.000000
689608.000000
690472.000000
691247.000000
692036.000000
692847.000000
693697.000000
694502.000000
695314.000000
696180.000000
696978.000000
697790.000000
698631.000000
699413.000000
700228.000000
701078.000000
701844.000000
702596.000000
703407.000000
704265.000000
705063.000000
705876.000000
706777.000000
707631.000000
708425.000000
709221.000000
710055.000000
710840.000000
711592.000000
712390.000000
713220.000000
714013.000000
714800.000000
715625.000000
716474.000000
717244.000000
718040.000000
718859.000000
719641.000000
720357.000000
721084.000000
721838.000000
722563.000000
723349.000000
724209.000000
724976.000000
725773.000000
726633.000000
727446.000000
728215.000000
729016.000000
729807.000000
730551.000000
731314.000000
732113.000000
732896.000000
733729.000000
734608.000000
735451.000000
736247.000000
737034.000000
737749.000000
738466.000000
739197.000000
739942.000000
740684.000000
741477.000000
742293.000000
743053.000000
743817.000000
744626.000000
745431.000000
746194.000000
746970.000000
747767.000000
748529.000000
749312.000000
750093.000000
750834.000000
751581.000000
752369.000000
753156.000000
753887.000000
754667.000000
755482.000000
756308.000000
757093.000000
757893.000000
758666.000000
759405.000000
760181.000000
760948.000000
761754.000000
762539.000000
763379.000000
764190.000000
764947.000000
765703.000000
766462.000000
767176.000000
767900.000000
768691.000000
769621.000000
770454.000000
771329.000000
772205.000000
772982.000000
773788.000000
774621.000000
775374.000000
776151.000000
777008.000000
777813.000000
778581.000000
779369.000000
780156.000000
780905.000000
781685.000000
782504.000000
783285.000000
784043.000000
784817.000000
785593.000000
786315.000000
787070.000000
787843.000000
788565.000000
789286.000000
790056.000000
790849.000000
791622.000000
792422.000000
793235.000000
793996.000000
794785.000000
795594.000000
796350.000000
797121.000000
797884.000000
798622.000000
799383.000000
800164.000000
800926.000000
801710.000000
802549.000000
803337.000000
804047.000000
804789.000000
805533.000000
806234.000000
806930.000000
807673.000000
808700.000000
809583.000000
810484.000000
811385.000000
812227.000000
813035.000000
813803.000000
814546.000000
815297.000000
816116.000000
816947.000000
817702.000000
818510.000000
819361.000000
820184.000000
821081.000000
821952.000000
822735.000000
823508.000000
824361.000000
825174.000000
826020.000000
826879.000000
827669.000000
828493.000000
829353.000000
830135.000000
830898.000000
831723.000000
832581.000000
833387.000000
834211.000000
835050.000000
835870.000000
836634.000000
837440.000000
838195.000000
838893.000000
839586.000000
840238.000000
840870.000000
841501.000000
842170.000000
842898.000000
843728.000000
844529.000000
845362.000000
846218.000000
847042.000000
847918.000000
848805.000000
849601.000000
850361.000000
851114.000000
851848.000000
852582.000000
853456.000000
854364.000000
855149.000000
855959.000000
856812.000000
857571.000000
858386.000000
859227.000000
860009.000000
860824.000000
861729.000000
862640.000000
863472.000000
864332.000000
865207.000000
866006.000000
866741.000000
867551.000000
868404.000000
869164.000000
869938.000000
870763.000000
871566.000000
872347.000000
873206.000000
873964.000000
874765.000000
875620.000000
876475.000000
877220.000000
877991.000000
878824.000000
879587.000000
880334.000000
881132.000000
881966.000000
882728.000000
883518.000000
884346.000000
885082.000000
885790.000000
886499.000000
887237.000000
888068.000000
888967.000000
889792.000000
890599.000000
891393.000000
892177.000000
892942.000000
893729.000000
894537.000000
895272.000000
896057.000000
896874.000000
897688.000000
898441.000000
899228.000000
900057.000000
900822.000000
901596.000000
902405.000000
903213.000000
903993.000000
904810.000000
905663.000000
906445.000000
907264.000000
908100.000000
908886.000000
909695.000000
910593.000000
911490.000000
912291.000000
913112.000000
913939.000000
914740.000000
915639.000000
916554.000000
917346.000000
918123.000000
918967.000000
919790.000000
920568.000000
921390.000000
922217.000000
923007.000000
923927.000000
924860.000000
925687.000000
926507.000000
927335.000000
928177.000000
928957.000000
929812.000000
930717.000000
931552.000000
932377.000000
933235.000000
934076.000000
934889.000000
935718.000000
936563.000000
937374.000000
938207.000000
939082.000000
939900.000000
940657.000000
941445.000000
942334.000000
943158.000000
943989.000000
944840.000000
945681.000000
946547.000000
947427.000000
948210.000000
948981.000000
949791.000000
950632.000000
951438.000000
952272.000000
953173.000000
953953.000000
954764.000000
955535.000000
956265.000000
956988.000000
957772.000000
958615.000000
959388.000000
960237.000000
961175.000000
961986.000000
962759.000000
963585.000000
964379.000000
965169.000000
965930.000000
966690.000000
967428.000000
968199.000000
969007.000000
969770.000000
970570.000000
971393.000000
972188.000000
972940.000000
973753.000000
974560.000000
975318.000000
976011.000000
976682.000000
977339.000000
978044.000000
978880.000000
979743.000000
980633.000000
981503.000000
982323.000000
983176.000000
984044.000000
984886.000000
985724.000000
986595.000000
987405.000000
988145.000000
988916.000000
989719.000000
990474.000000
991190.000000
991975.000000
992979.000000
993874.000000
994664.000000
995503.000000
996342.000000
997149.000000
997972.000000
998832.000000
999605.000000
1000386.000000
1001226.000000
1002048.000000
1002799.000000
1003564.000000
1004356.000000
1005164.000000
1005917.000000
1006700.000000
1007472.000000
1008252.000000
1009042.000000
1009838.000000
1010645.000000
1011377.000000
1012142.000000
1012909.000000
1013644.000000
1014410.000000
1015214.000000
1016039.000000
1016829.000000
1017674.000000
1018585.000000
1019372.000000
1020151.000000
1020940.000000
1021709.000000
1022478.000000
1023288.000000
1024052.000000
1024832.000000
1025700.000000
1026475.000000
1027272.000000
1028105.000000
1028943.000000
1029718.000000
1030480.000000
1031276.000000
1032078.000000
1032833.000000
1033622.000000
1034377.000000
1035100.000000
1035854.000000
1036644.000000
1037368.000000
1038128.000000
1038898.000000
1039658.000000
1040396.000000
1041194.000000
1042061.000000
1042842.000000
1043609.000000
1044424.000000
1045214.000000
1045984.000000
1046789.000000
1047579.000000
1048306.000000
1049031.000000
1049729.000000
1050407.000000
1051078.000000
1051730.000000
1052378.000000
1053046.000000
1053751.000000
1054558.000000
1055351.000000
1056067.000000
1056799.000000
1057561.000000
1058291.000000
1059058.000000
1059842.000000
1060601.000000
1061313.000000
1062067.000000
1062925.000000
1063674.000000
1064402.000000
1067703.000000
1068583.000000
1069451.000000
1070338.000000
1071227.000000
1072050.000000
1072890.000000
1073744.000000
1074609.000000
1075487.000000
1076392.000000
1077304.000000
1078200.000000
1079096.000000
1079984.000000
1080844.000000
1081718.000000
1082589.000000
1083425.000000
1084260.000000
1085072.000000
1085858.000000
1086649.000000
1087413.000000
1088242.000000
1089045.000000
1089872.000000
1090681.000000
1091470.000000
1092304.000000
1093171.000000
1093963.000000
1094751.000000
1095592.000000
1096439.000000
1097253.000000
1098106.000000
1098990.000000
1099770.000000
1100568.000000
1101406.000000
1102201.000000
1103038.000000
1103859.000000
1104666.000000
1105484.000000
1106343.000000
1107170.000000
1107954.000000
1108806.000000
1109658.000000
1110473.000000
1111337.000000
1112244.000000
1113059.000000
1113848.000000
1114727.000000
1115617.000000
1116418.000000
1117280.000000
1118197.000000
1119060.000000
1119878.000000
1120747.000000
1121640.000000
1122462.000000
1123259.000000
1124216.000000
1125109.000000
1125905.000000
1126762.000000
1127693.000000
1128497.000000
1129248.000000
1130059.000000
1130880.000000
1131711.000000
1132535.000000
1133408.000000
1134225.000000
1135042.000000
1135923.000000
1136888.000000
1137754.000000
1138646.000000
1139483.000000
1140286.000000
1141106.000000
1141965.000000
1142820.000000
1143665.000000
1144629.000000
1145540.000000
1146342.000000
1147165.000000
1148004.000000
1148811.000000
1149667.000000
1150544.000000
1151352.000000
1152305.000000
1153255.000000
1154147.000000
1155029.000000
1155909.000000
1156779.000000
1157636.000000
1158501.000000
1159363.000000
1160189.000000
1161046.000000
1161939.000000
1162750.000000
1163565.000000
1164385.000000
1165193.000000
1165991.000000
1166876.000000
1167894.000000
1168776.000000
1169645.000000
1170513.000000
1171378.000000
1172205.000000
1173045.000000
1173884.000000
1174723.000000
1175567.000000
1176368.000000
1177205.000000
1177935.000000
1178616.000000
1179292.000000
1180051.000000
1180901.000000
1181643.000000
1182508.000000
1183414.000000
1184179.000000
1184946.000000
1185666.000000
1186367.000000
1187086.000000
1187821.000000
1188617.000000
1189396.000000
1190216.000000
1191043.000000
1191802.000000
1192564.000000
1193338.000000
1194144.000000
1194927.000000
