ECG (ms)
737.000000
1672.000000
2588.000000
3477.000000
4335.000000
5242.000000
6174.000000
7100.000000
7985.000000
8870.000000
9796.000000
10726.000000
11606.000000
12497.000000
13408.000000
14317.000000
15185.000000
16040.000000
16927.000000
17835.000000
18724.000000
19581.000000
20471.000000
21384.000000
22295.000000
23164.000000
24037.000000
24955.000000
25879.000000
26763.000000
27639.000000
28563.000000
29501.000000
30408.000000
31281.000000
32187.000000
33110.000000
34020.000000
34886.000000
35728.000000
36567.000000
37422.000000
38325.000000
39273.000000
40215.000000
41146.000000
42077.000000
42968.000000
43869.000000
44792.000000
45654.000000
46501.000000
47367.000000
48229.000000
49056.000000
49904.000000
50769.000000
51642.000000
52533.000000
53390.000000
54230.000000
55101.000000
55991.000000
56883.000000
57723.000000
58561.000000
59427.000000
60319.000000
61198.000000
62031.000000
62878.000000
63743.000000
64626.000000
65466.000000
66293.000000
67146.000000
68023.000000
68895.000000
69744.000000
70576.000000
71447.000000
72332.000000
73235.000000
74105.000000
74948.000000
75827.000000
76702.000000
77587.000000
78453.000000
79299.000000
80193.000000
81102.000000
82008.000000
82879.000000
83780.000000
84692.000000
85586.000000
86436.000000
87307.000000
88208.000000
89115.000000
90015.000000
90879.000000
91781.000000
92704.000000
93627.000000
94500.000000
95379.000000
96293.000000
97220.000000
98108.000000
98953.000000
99820.000000
100713.000000
101598.000000
102441.000000
103275.000000
104137.000000
105014.000000
105886.000000
106719.000000
107554.000000
108407.000000
109271.000000
110146.000000
110988.000000
111817.000000
112688.000000
113598.000000
114504.000000
115354.000000
116205.000000
117060.000000
117928.000000
118761.000000
119564.000000
120382.000000
121225.000000
122039.000000
122834.000000
123603.000000
124385.000000
125174.000000
126008.000000
126895.000000
127825.000000
128745.000000
129606.000000
130472.000000
131363.000000
132267.000000
133149.000000
133992.000000
134863.000000
135744.000000
136622.000000
137459.000000
138304.000000
139180.000000
140073.000000
140944.000000
141785.000000
142652.000000
143536.000000
144413.000000
145244.000000
146065.000000
146915.000000
147803.000000
148697.000000
149570.000000
150427.000000
151302.000000
152194.000000
153077.000000
153912.000000
154761.000000
155646.000000
156560.000000
157432.000000
158284.000000
159164.000000
160047.000000
160895.000000
161718.000000
162559.000000
163416.000000
164282.000000
165117.000000
165952.000000
166821.000000
167709.000000
168574.000000
169422.000000
170312.000000
171226.000000
172155.000000
173038.000000
173896.000000
174805.000000
175749.000000
176713.000000
177636.000000
178516.000000
179436.000000
180374.000000
181302.000000
182167.000000
183061.000000
183998.000000
184918.000000
185786.000000
186672.000000
187589.000000
188513.000000
189395.000000
190264.000000
191184.000000
192106.000000
192997.000000
193840.000000
194713.000000
195599.000000
196493.000000
197364.000000
198217.000000
199098.000000
200010.000000
200913.000000
201770.000000
202625.000000
203505.000000
204366.000000
205192.000000
205980.000000
206735.000000
207496.000000
208263.000000
209075.000000
209948.000000
210854.000000
211724.000000
212587.000000
213488.000000
214412.000000
215311.000000
216163.000000
217004.000000
217886.000000
218797.000000
219680.000000
220541.000000
221455.000000
222415.000000
223391.000000
224282.000000
225179.000000
226095.000000
227030.000000
227947.000000
228810.000000
229702.000000
230667.000000
231714.000000
232678.000000
233559.000000
234452.000000
235394.000000
236374.000000
237307.000000
238194.000000
239102.000000
240049.000000
241002.000000
241912.000000
242812.000000
243735.000000
244654.000000
245561.000000
246427.000000
247318.000000
248229.000000
249143.000000
250007.000000
250852.000000
251674.000000
252464.000000
253221.000000
254007.000000
254848.000000
255676.000000
256511.000000
257390.000000
258297.000000
259205.000000
260074.000000
260944.000000
261850.000000
262785.000000
263723.000000
264594.000000
265447.000000
266316.000000
267193.000000
268101.000000
269001.000000
269863.000000
270762.000000
271688.000000
272646.000000
273573.000000
274469.000000
275391.000000
276350.000000
277314.000000
278227.000000
279156.000000
280143.000000
281147.000000
282105.000000
282998.000000
283915.000000
284843.000000
285765.000000
286627.000000
287494.000000
288385.000000
289284.000000
290153.000000
291004.000000
291892.000000
292809.000000
293717.000000
294580.000000
295450.000000
296342.000000
297251.000000
298123.000000
298964.000000
299765.000000
300542.000000
301324.000000
302164.000000
303076.000000
304105.000000
305221.000000
306289.000000
307278.000000
308167.000000
309040.000000
309891.000000
310722.000000
311533.000000
312331.000000
313133.000000
313952.000000
314817.000000
315714.000000
316608.000000
317495.000000
318360.000000
319250.000000
320168.000000
321077.000000
321963.000000
322811.000000
323673.000000
324555.000000
325453.000000
326348.000000
327199.000000
328053.000000
328930.000000
329830.000000
330717.000000
331573.000000
332452.000000
333339.000000
334227.000000
335079.000000
335913.000000
336765.000000
337619.000000
338442.000000
339306.000000
340206.000000
341113.000000
341998.000000
342838.000000
343700.000000
344595.000000
345495.000000
346342.000000
347211.000000
348111.000000
349009.000000
349878.000000
350720.000000
351582.000000
352469.000000
353358.000000
354207.000000
355066.000000
355944.000000
356854.000000
357757.000000
358612.000000
359470.000000
360335.000000
361196.000000
362050.000000
362876.000000
363709.000000
364549.000000
365356.000000
366129.000000
366911.000000
367747.000000
368571.000000
369385.000000
370249.000000
371187.000000
372165.000000
373082.000000
373958.000000
374859.000000
375784.000000
376668.000000
377544.000000
378436.000000
379327.000000
380170.000000
380986.000000
381831.000000
382678.000000
383515.000000
384321.000000
385144.000000
385985.000000
386828.000000
387656.000000
388473.000000
389318.000000
390178.000000
391030.000000
391850.000000
392686.000000
393532.000000
394392.000000
395237.000000
396054.000000
396901.000000
397763.000000
398598.000000
399402.000000
400216.000000
401026.000000
401807.000000
402564.000000
403289.000000
404016.000000
404765.000000
405557.000000
406383.000000
407199.000000
408005.000000
408848.000000
409706.000000
410568.000000
411388.000000
412216.000000
413072.000000
413919.000000
414738.000000
415544.000000
416373.000000
417215.000000
418050.000000
418860.000000
419700.000000
420560.000000
421417.000000
422249.000000
423100.000000
423975.000000
424855.000000
425687.000000
426514.000000
427342.000000
428139.000000
428910.000000
429655.000000
430396.000000
431150.000000
431931.000000
432754.000000
433592.000000
434412.000000
435216.000000
436049.000000
436910.000000
437784.000000
438624.000000
439456.000000
440314.000000
441199.000000
442073.000000
442922.000000
443791.000000
444656.000000
445499.000000
446338.000000
447211.000000
448100.000000
448973.000000
449802.000000
450660.000000
451538.000000
452414.000000
453247.000000
454090.000000
454956.000000
455838.000000
456684.000000
457519.000000
458391.000000
459289.000000
460173.000000
461026.000000
461905.000000
462763.000000
463585.000000
464390.000000
465225.000000
466088.000000
466942.000000
467783.000000
468660.000000
469557.000000
470439.000000
471290.000000
472176.000000
473082.000000
474001.000000
474883.000000
475751.000000
476660.000000
477579.000000
478473.000000
479331.000000
480217.000000
481115.000000
482012.000000
482864.000000
483745.000000
484643.000000
485545.000000
486389.000000
487223.000000
488090.000000
488965.000000
489845.000000
490680.000000
491535.000000
492410.000000
493295.000000
494139.000000
494979.000000
495851.000000
496731.000000
497582.000000
498399.000000
499247.000000
500109.000000
500960.000000
501759.000000
502541.000000
503295.000000
504043.000000
504779.000000
505502.000000
506231.000000
507006.000000
507858.000000
508751.000000
509674.000000
510615.000000
511556.000000
512442.000000
513357.000000
514300.000000
515233.000000
516104.000000
516965.000000
517844.000000
518757.000000
519665.000000
520527.000000
521412.000000
522312.000000
523200.000000
524050.000000
524898.000000
525790.000000
526696.000000
527604.000000
528467.000000
529333.000000
530214.000000
531100.000000
531951.000000
532791.000000
533664.000000
534558.000000
535464.000000
536336.000000
537201.000000
538085.000000
538974.000000
539849.000000
540694.000000
541584.000000
542492.000000
543411.000000
544280.000000
545145.000000
546037.000000
546934.000000
547804.000000
548646.000000
549525.000000
550423.000000
551334.000000
552212.000000
553080.000000
553990.000000
554935.000000
555895.000000
556809.000000
557729.000000
558686.000000
559653.000000
560548.000000
561403.000000
562299.000000
563210.000000
564122.000000
564999.000000
565855.000000
566763.000000
567685.000000
568587.000000
569439.000000
570327.000000
571224.000000
572121.000000
572983.000000
573865.000000
574777.000000
575683.000000
576551.000000
577409.000000
578296.000000
579200.000000
580091.000000
580942.000000
581819.000000
582721.000000
583635.000000
584502.000000
585407.000000
586335.000000
587241.000000
588107.000000
588981.000000
589827.000000
590636.000000
591419.000000
592200.000000
592966.000000
593750.000000
594581.000000
595458.000000
596347.000000
597199.000000
598037.000000
598913.000000
599815.000000
600709.000000
601556.000000
602385.000000
603235.000000
604098.000000
604964.000000
605799.000000
606630.000000
607475.000000
608350.000000
609249.000000
610107.000000
610970.000000
611846.000000
612727.000000
613574.000000
614416.000000
615280.000000
616188.000000
617095.000000
617956.000000
618798.000000
619672.000000
620588.000000
621491.000000
622354.000000
623225.000000
624114.000000
625012.000000
625934.000000
626786.000000
627631.000000
628497.000000
629378.000000
630252.000000
631095.000000
631945.000000
632815.000000
633702.000000
634562.000000
635383.000000
636231.000000
637109.000000
638009.000000
638897.000000
639744.000000
640598.000000
641489.000000
642394.000000
643305.000000
644180.000000
645037.000000
645915.000000
646818.000000
647731.000000
648588.000000
649437.000000
650309.000000
651200.000000
652095.000000
652946.000000
653784.000000
654670.000000
655570.000000
656430.000000
657247.000000
658035.000000
658803.000000
659613.000000
660437.000000
661254.000000
662165.000000
663099.000000
664017.000000
664879.000000
665771.000000
666686.000000
667608.000000
668492.000000
669332.000000
670218.000000
671112.000000
672032.000000
672931.000000
673789.000000
674692.000000
675618.000000
676552.000000
677437.000000
678289.000000
679165.000000
680063.000000
680965.000000
681839.000000
682722.000000
683658.000000
684639.000000
685630.000000
686547.000000
687443.000000
688353.000000
689286.000000
690179.000000
691066.000000
691996.000000
692963.000000
693911.000000
694796.000000
695704.000000
696626.000000
697548.000000
698436.000000
699295.000000
700188.000000
701110.000000
702022.000000
702882.000000
703759.000000
704642.000000
705546.000000
706443.000000
707300.000000
708159.000000
709095.000000
710070.000000
710989.000000
711894.000000
712840.000000
713803.000000
714712.000000
715578.000000
716466.000000
717376.000000
718296.000000
719192.000000
720099.000000
721017.000000
721908.000000
722726.000000
723510.000000
724302.000000
725095.000000
725914.000000
726807.000000
727749.000000
728697.000000
729588.000000
730440.000000
731319.000000
732236.000000
733165.000000
734061.000000
734937.000000
735874.000000
736829.000000
737787.000000
738680.000000
739605.000000
740569.000000
741536.000000
742441.000000
743312.000000
744224.000000
745154.000000
746071.000000
746946.000000
747849.000000
748761.000000
749701.000000
750584.000000
751452.000000
752337.000000
753235.000000
754117.000000
754963.000000
755842.000000
756753.000000
757691.000000
758592.000000
759444.000000
760263.000000
761060.000000
761859.000000
762717.000000
763646.000000
764641.000000
765668.000000
766675.000000
767620.000000
768537.000000
769455.000000
770387.000000
771311.000000
772230.000000
773115.000000
774007.000000
774913.000000
775819.000000
776684.000000
777526.000000
778307.000000
779057.000000
779802.000000
780584.000000
781419.000000
782310.000000
783216.000000
784102.000000
784967.000000
785871.000000
786788.000000
787728.000000
788635.000000
789518.000000
790421.000000
791332.000000
792209.000000
793034.000000
793883.000000
794747.000000
795636.000000
796489.000000
797324.000000
798189.000000
799086.000000
799996.000000
800867.000000
801726.000000
802617.000000
803518.000000
804454.000000
805338.000000
806211.000000
807121.000000
808046.000000
808983.000000
809887.000000
810760.000000
811667.000000
812600.000000
813527.000000
814411.000000
815321.000000
816238.000000
817158.000000
818033.000000
818877.000000
819751.000000
820645.000000
821546.000000
822416.000000
823293.000000
824168.000000
824990.000000
825773.000000
826568.000000
827396.000000
828202.000000
829031.000000
829902.000000
830823.000000
831789.000000
832694.000000
833580.000000
834492.000000
835437.000000
836323.000000
837169.000000
838056.000000
838990.000000
839949.000000
840881.000000
841753.000000
842653.000000
843572.000000
844496.000000
845386.000000
846250.000000
847141.000000
848047.000000
848988.000000
849886.000000
850781.000000
851691.000000
852634.000000
853570.000000
854453.000000
855313.000000
856199.000000
857099.000000
857995.000000
858865.000000
859736.000000
860642.000000
861579.000000
862517.000000
863430.000000
864319.000000
865228.000000
866146.000000
867052.000000
867909.000000
868771.000000
869582.000000
870357.000000
871162.000000
871997.000000
872810.000000
873590.000000
874365.000000
875195.000000
876166.000000
877310.000000
878405.000000
879401.000000
880347.000000
881257.000000
882173.000000
883096.000000
884017.000000
884938.000000
885829.000000
886712.000000
887634.000000
888547.000000
889423.000000
890270.000000
891113.000000
891995.000000
892807.000000
893624.000000
894498.000000
895406.000000
896327.000000
897220.000000
898095.000000
899021.000000
899975.000000
900923.000000
901810.000000
902660.000000
903528.000000
904418.000000
905321.000000
906193.000000
907057.000000
907963.000000
908889.000000
909821.000000
910702.000000
911576.000000
912494.000000
913467.000000
914454.000000
915378.000000
916288.000000
917244.000000
918209.000000
919165.000000
920046.000000
920949.000000
921881.000000
922826.000000
923724.000000
924613.000000
925519.000000
926443.000000
927337.000000
928195.000000
929118.000000
930085.000000
931025.000000
931909.000000
932854.000000
933813.000000
934772.000000
935677.000000
936545.000000
937439.000000
938368.000000
939323.000000
940235.000000
941139.000000
942074.000000
943035.000000
943974.000000
944867.000000
945793.000000
946734.000000
947646.000000
948507.000000
949388.000000
950313.000000
951266.000000
952215.000000
953104.000000
954012.000000
954937.000000
955860.000000
956743.000000
957580.000000
958393.000000
959192.000000
960070.000000
961034.000000
962062.000000
963102.000000
964116.000000
965036.000000
965869.000000
966656.000000
967444.000000
968235.000000
969058.000000
969937.000000
970878.000000
971827.000000
972767.000000
973663.000000
974521.000000
975418.000000
976337.000000
977261.000000
978176.000000
979053.000000
979962.000000
980888.000000
981825.000000
982722.000000
983610.000000
984527.000000
985472.000000
986411.000000
987288.000000
988181.000000
989079.000000
989995.000000
990902.000000
991760.000000
992634.000000
993534.000000
994484.000000
995441.000000
996352.000000
997250.000000
998187.000000
999160.000000
1000160.000000
1001119.000000
1002042.000000
1003001.000000
1003950.000000
1004894.000000
1005809.000000
1006697.000000
1007643.000000
1008660.000000
1009635.000000
1010554.000000
1011499.000000
1012448.000000
1013393.000000
1014301.000000
1015247.000000
1016202.000000
1017152.000000
1018068.000000
1019004.000000
1019977.000000
1020951.000000
1021920.000000
1022847.000000
1023815.000000
1024793.000000
1025757.000000
1026690.000000
1027601.000000
1028533.000000
1029458.000000
1030336.000000
1031193.000000
1032069.000000
1032883.000000
1033659.000000
1034430.000000
1035225.000000
1036161.000000
1037215.000000
1038315.000000
1039297.000000
1040279.000000
1041268.000000
1042206.000000
1043172.000000
1044141.000000
1045098.000000
1046030.000000
1046969.000000
1047925.000000
1048871.000000
1049816.000000
1050717.000000
1051606.000000
1052515.000000
1053429.000000
1054354.000000
1055257.000000
1056150.000000
1057071.000000
1057996.000000
1058917.000000
1059805.000000
1060710.000000
1061631.000000
1062558.000000
1063468.000000
1064344.000000
1065243.000000
1066153.000000
1067068.000000
1067964.000000
1068803.000000
1069704.000000
1070617.000000
1071535.000000
1072457.000000
1073396.000000
1074285.000000
1075167.000000
1076046.000000
1076882.000000
1077797.000000
1078716.000000
1079635.000000
1080544.000000
1081421.000000
1082332.000000
1083272.000000
1084220.000000
1085150.000000
1086040.000000
1086974.000000
1087910.000000
1088846.000000
1089746.000000
1090620.000000
1091549.000000
1092477.000000
1093389.000000
1094261.000000
1095184.000000
1096123.000000
1097070.000000
1098001.000000
1098900.000000
1099826.000000
1100754.000000
1101677.000000
1102577.000000
1103485.000000
1104415.000000
1105354.000000
1106267.000000
1107164.000000
1108086.000000
1109001.000000
1109863.000000
1110714.000000
1111581.000000
1112427.000000
1113249.000000
1114113.000000
1115011.000000
1115945.000000
1116844.000000
1117714.000000
1118643.000000
1119595.000000
1120557.000000
1121462.000000
1122333.000000
1123242.000000
1124186.000000
1125138.000000
1126035.000000
1126881.000000
1127696.000000
1128550.000000
1129495.000000
1130497.000000
1131554.000000
1132523.000000
1133487.000000
1134475.000000
1135453.000000
1136375.000000
1137263.000000
1138190.000000
1139153.000000
1140131.000000
1141032.000000
1141939.000000
1142893.000000
1143923.000000
1144945.000000
1145919.000000
1146895.000000
1147788.000000
1148615.000000
1149440.000000
1150271.000000
1151094.000000
1151965.000000
1152885.000000
1153847.000000
1154813.000000
1155710.000000
1156577.000000
1157484.000000
1158426.000000
1159377.000000
1160294.000000
1161167.000000
1161980.000000
1162779.000000
1163590.000000
1164409.000000
1165249.000000
1166087.000000
1166927.000000
1167873.000000
1168866.000000
1169863.000000
1170798.000000
1171781.000000
1172804.000000
1173864.000000
1174836.000000
1175772.000000
1176644.000000
1177481.000000
1178312.000000
1179108.000000
1179973.000000
1180807.000000
1181598.000000
1182384.000000
1183179.000000
1183976.000000
1184760.000000
1185564.000000
1186421.000000
1187261.000000
1188113.000000
1189003.000000
1189939.000000
1190884.000000
1191806.000000
1192675.000000
1193575.000000
1194470.000000
