ECG (ms)
641.000000
1572.000000
2686.000000
3659.000000
4602.000000
5659.000000
6561.000000
7654.000000
8719.000000
9682.000000
10790.000000
11889.000000
12795.000000
13615.000000
14566.000000
15663.000000
16618.000000
17740.000000
18782.000000
19757.000000
20899.000000
21873.000000
22911.000000
24005.000000
24941.000000
25960.000000
26913.000000
27846.000000
28981.000000
29960.000000
31080.000000
32109.000000
33134.000000
34190.000000
35095.000000
36049.000000
37026.000000
37877.000000
38851.000000
39849.000000
40849.000000
41967.000000
42915.000000
43963.000000
44884.000000
45759.000000
46676.000000
47523.000000
48492.000000
49545.000000
50518.000000
51612.000000
52571.000000
53595.000000
54636.000000
55524.000000
56526.000000
57527.000000
58403.000000
59458.000000
60429.000000
61359.000000
62508.000000
63632.000000
64631.000000
65485.000000
66325.000000
67272.000000
68378.000000
69460.000000
70412.000000
71306.000000
72312.000000
73359.000000
74378.000000
75343.000000
76263.000000
77116.000000
77941.000000
78893.000000
80100.000000
81236.000000
82316.000000
83334.000000
84214.000000
85038.000000
85904.000000
86911.000000
87949.000000
88966.000000
89958.000000
90823.000000
91637.000000
92472.000000
93656.000000
94585.000000
95545.000000
96626.000000
97526.000000
98674.000000
99808.000000
100840.000000
101753.000000
102657.000000
103750.000000
104908.000000
106022.000000
107081.000000
107984.000000
108870.000000
110047.000000
111144.000000
112165.000000
113082.000000
114148.000000
115114.000000
116031.000000
117233.000000
118300.000000
119295.000000
120391.000000
121294.000000
122147.000000
123163.000000
124188.000000
125060.000000
125943.000000
127026.000000
128148.000000
129096.000000
130085.000000
131143.000000
132049.000000
133229.000000
134320.000000
135277.000000
136387.000000
137400.000000
138294.000000
139334.000000
140390.000000
141338.000000
142414.000000
143341.000000
144319.000000
145386.000000
146314.000000
147423.000000
148385.000000
149357.000000
150449.000000
151367.000000
152290.000000
153331.000000
154281.000000
155234.000000
156299.000000
157190.000000
158203.000000
159198.000000
160121.000000
161211.000000
162160.000000
163045.000000
164051.000000
164954.000000
165812.000000
166821.000000
167947.000000
169039.000000
169995.000000
170864.000000
171707.000000
172683.000000
173852.000000
174942.000000
176021.000000
176952.000000
177882.000000
178929.000000
179962.000000
180995.000000
181909.000000
182782.000000
183762.000000
184791.000000
185768.000000
186847.000000
187851.000000
188933.000000
189964.000000
190891.000000
191982.000000
192953.000000
193924.000000
194966.000000
195876.000000
196924.000000
197972.000000
198930.000000
200044.000000
201027.000000
202050.000000
203085.000000
203982.000000
204820.000000
205712.000000
206846.000000
207981.000000
209044.000000
209920.000000
210800.000000
211797.000000
212883.000000
213981.000000
215008.000000
215921.000000
216822.000000
217923.000000
219045.000000
220141.000000
221086.000000
221941.000000
222840.000000
223824.000000
224860.000000
225916.000000
226898.000000
228066.000000
229067.000000
230107.000000
231259.000000
232248.000000
233325.000000
234363.000000
235373.000000
236472.000000
237398.000000
238517.000000
239527.000000
240478.000000
241602.000000
242537.000000
243544.000000
244566.000000
245459.000000
246441.000000
247360.000000
248260.000000
249341.000000
250254.000000
251245.000000
252302.000000
253214.000000
254235.000000
255159.000000
256102.000000
257186.000000
258201.000000
259062.000000
259942.000000
260891.000000
261777.000000
262764.000000
263806.000000
264777.000000
265878.000000
266910.000000
267809.000000
268662.000000
269643.000000
270755.000000
271797.000000
272712.000000
273688.000000
274717.000000
275715.000000
276616.000000
277596.000000
278544.000000
279435.000000
280457.000000
281422.000000
282376.000000
283381.000000
284319.000000
285311.000000
286327.000000
287230.000000
288178.000000
289114.000000
290000.000000
290980.000000
291926.000000
292858.000000
293864.000000
294780.000000
295771.000000
296705.000000
297607.000000
298567.000000
299450.000000
300404.000000
301372.000000
302292.000000
303269.000000
304152.000000
305030.000000
305965.000000
306842.000000
307830.000000
308920.000000
309858.000000
310931.000000
311943.000000
312908.000000
313953.000000
314885.000000
315854.000000
316880.000000
317781.000000
318698.000000
319599.000000
320460.000000
321615.000000
322669.000000
323716.000000
324846.000000
325827.000000
326890.000000
328010.000000
329111.000000
330168.000000
331100.000000
332017.000000
333186.000000
334345.000000
335432.000000
336462.000000
337432.000000
338507.000000
339570.000000
340583.000000
341571.000000
342495.000000
343497.000000
344644.000000
345753.000000
346718.000000
347617.000000
348654.000000
349778.000000
350844.000000
351777.000000
352833.000000
353868.000000
354786.000000
355876.000000
356956.000000
357947.000000
359079.000000
360186.000000
361156.000000
362220.000000
363290.000000
364273.000000
365253.000000
366411.000000
367503.000000
368428.000000
369318.000000
370457.000000
371613.000000
372717.000000
373746.000000
374693.000000
375653.000000
376740.000000
377831.000000
378826.000000
379756.000000
380846.000000
381920.000000
382938.000000
383811.000000
384645.000000
385533.000000
386646.000000
387736.000000
388676.000000
389540.000000
390448.000000
391523.000000
392572.000000
393548.000000
394448.000000
395450.000000
396424.000000
397397.000000
398432.000000
399343.000000
400212.000000
401210.000000
402235.000000
403111.000000
404030.000000
405044.000000
405967.000000
406977.000000
407993.000000
408902.000000
409857.000000
410798.000000
411665.000000
412618.000000
413607.000000
414500.000000
415453.000000
416467.000000
417376.000000
418360.000000
419441.000000
420476.000000
421485.000000
422563.000000
423603.000000
424565.000000
425467.000000
426414.000000
427421.000000
428386.000000
429435.000000
430483.000000
431459.000000
432487.000000
433417.000000
434325.000000
435371.000000
436457.000000
437493.000000
438410.000000
439372.000000
440327.000000
441200.000000
442148.000000
443166.000000
444143.000000
445257.000000
446295.000000
447361.000000
448473.000000
449456.000000
450551.000000
451561.000000
452527.000000
453590.000000
454543.000000
455476.000000
456484.000000
457409.000000
458377.000000
459423.000000
460343.000000
461338.000000
462339.000000
463251.000000
464278.000000
465233.000000
466180.000000
467245.000000
468166.000000
469180.000000
470153.000000
471068.000000
472102.000000
473042.000000
473966.000000
474996.000000
476043.000000
477036.000000
477932.000000
478823.000000
479912.000000
481029.000000
482083.000000
483064.000000
483924.000000
484823.000000
485929.000000
487004.000000
487936.000000
488932.000000
490027.000000
491002.000000
492054.000000
493090.000000
493990.000000
494968.000000
495959.000000
496874.000000
497939.000000
498946.000000
499872.000000
500844.000000
501728.000000
502767.000000
503920.000000
505042.000000
506212.000000
507259.000000
508345.000000
509342.000000
510331.000000
511392.000000
512334.000000
513367.000000
514493.000000
515534.000000
516641.000000
517672.000000
518657.000000
519714.000000
520656.000000
521669.000000
522781.000000
523798.000000
524918.000000
525972.000000
527033.000000
528095.000000
529035.000000
530071.000000
531131.000000
532086.000000
533133.000000
534093.000000
535020.000000
536060.000000
537056.000000
537968.000000
538970.000000
539993.000000
540969.000000
542045.000000
543014.000000
543968.000000
544991.000000
545905.000000
546927.000000
548026.000000
549025.000000
550109.000000
551087.000000
552053.000000
553121.000000
554084.000000
555084.000000
556132.000000
557080.000000
558119.000000
559116.000000
560028.000000
561019.000000
561953.000000
562880.000000
563943.000000
565001.000000
566010.000000
567099.000000
568088.000000
569054.000000
570099.000000
571097.000000
572142.000000
573249.000000
574214.000000
575188.000000
576233.000000
577172.000000
578123.000000
579207.000000
580145.000000
581170.000000
582244.000000
583269.000000
584362.000000
585336.000000
586305.000000
587331.000000
588241.000000
589226.000000
590340.000000
591333.000000
592412.000000
593464.000000
594378.000000
595387.000000
596410.000000
597367.000000
598452.000000
599446.000000
600370.000000
601441.000000
602427.000000
603388.000000
604485.000000
605434.000000
606471.000000
607578.000000
608521.000000
609481.000000
610501.000000
611418.000000
612378.000000
613512.000000
614501.000000
615637.000000
616661.000000
617659.000000
618734.000000
619701.000000
620668.000000
621684.000000
622590.000000
623633.000000
624712.000000
625707.000000
626802.000000
627807.000000
628795.000000
629869.000000
630809.000000
631765.000000
632794.000000
633737.000000
634818.000000
635864.000000
636907.000000
638021.000000
639012.000000
640096.000000
641176.000000
642158.000000
643246.000000
644237.000000
645194.000000
646226.000000
647153.000000
648080.000000
649237.000000
650307.000000
651452.000000
652523.000000
653603.000000
654708.000000
655668.000000
656709.000000
657716.000000
658663.000000
659724.000000
660692.000000
661674.000000
662820.000000
663801.000000
664828.000000
665838.000000
666778.000000
667840.000000
668846.000000
669825.000000
670861.000000
671809.000000
672753.000000
673831.000000
674793.000000
675702.000000
676774.000000
677887.000000
678954.000000
679881.000000
680801.000000
681811.000000
682799.000000
683695.000000
684674.000000
685635.000000
686533.000000
687586.000000
688665.000000
689576.000000
690468.000000
691532.000000
692559.000000
693481.000000
694372.000000
695366.000000
696477.000000
697467.000000
698363.000000
699316.000000
700439.000000
701532.000000
702470.000000
703349.000000
704323.000000
705406.000000
706419.000000
707360.000000
708406.000000
709429.000000
710409.000000
711475.000000
712457.000000
713385.000000
714389.000000
715345.000000
716285.000000
717506.000000
718590.000000
719676.000000
720811.000000
721828.000000
722937.000000
724019.000000
724995.000000
726062.000000
727108.000000
728112.000000
729180.000000
730183.000000
731197.000000
732295.000000
733356.000000
734273.000000
735134.000000
736120.000000
737216.000000
738280.000000
739219.000000
740182.000000
741332.000000
742360.000000
743374.000000
744426.000000
745395.000000
746424.000000
747510.000000
748512.000000
749576.000000
750603.000000
751496.000000
752437.000000
753455.000000
754371.000000
755400.000000
756623.000000
757682.000000
758782.000000
759832.000000
760813.000000
761876.000000
762872.000000
763810.000000
764789.000000
765739.000000
766654.000000
767715.000000
768699.000000
769688.000000
770712.000000
771629.000000
772584.000000
773609.000000
774500.000000
775455.000000
776513.000000
777450.000000
778496.000000
779544.000000
780477.000000
781464.000000
782485.000000
783413.000000
784537.000000
785642.000000
786680.000000
787775.000000
788759.000000
789703.000000
790710.000000
791641.000000
792498.000000
793508.000000
794626.000000
795718.000000
796899.000000
797915.000000
799038.000000
800171.000000
801122.000000
802049.000000
803180.000000
804335.000000
805406.000000
806365.000000
807339.000000
808449.000000
809562.000000
810643.000000
811582.000000
812512.000000
813605.000000
814729.000000
815854.000000
816838.000000
817787.000000
818815.000000
819886.000000
820912.000000
821836.000000
822734.000000
823763.000000
824907.000000
826023.000000
827011.000000
828006.000000
829133.000000
830256.000000
831368.000000
832356.000000
833240.000000
834173.000000
835317.000000
836427.000000
837447.000000
838394.000000
839439.000000
840515.000000
841481.000000
842543.000000
843607.000000
844574.000000
845630.000000
846703.000000
847735.000000
848871.000000
849924.000000
850866.000000
851879.000000
853004.000000
854073.000000
855112.000000
856002.000000
856956.000000
857971.000000
858928.000000
859909.000000
860956.000000
861875.000000
862896.000000
863910.000000
864825.000000
865792.000000
866736.000000
867617.000000
868627.000000
869630.000000
870597.000000
871667.000000
872684.000000
873638.000000
874724.000000
875721.000000
876619.000000
877635.000000
878600.000000
879573.000000
880682.000000
881668.000000
882662.000000
883703.000000
884621.000000
885557.000000
886598.000000
887587.000000
888491.000000
889479.000000
890579.000000
891546.000000
892576.000000
893611.000000
894637.000000
895671.000000
896699.000000
897688.000000
898528.000000
899396.000000
900287.000000
901114.000000
901985.000000
902813.000000
903618.000000
904543.000000
905479.000000
906362.000000
907427.000000
908396.000000
909278.000000
910186.000000
911069.000000
