ECG (ms)
561.000000
1328.000000
2156.000000
2991.000000
3782.000000
4592.000000
5435.000000
6246.000000
7003.000000
7854.000000
8702.000000
9488.000000
10328.000000
11168.000000
11944.000000
12766.000000
13638.000000
14430.000000
15229.000000
16089.000000
16938.000000
17722.000000
18493.000000
19252.000000
19996.000000
20802.000000
21668.000000
22558.000000
23447.000000
24328.000000
25178.000000
25960.000000
26792.000000
27648.000000
28490.000000
29306.000000
30113.000000
30978.000000
31862.000000
32743.000000
33554.000000
34362.000000
35233.000000
36095.000000
36906.000000
37706.000000
38584.000000
39454.000000
40292.000000
41089.000000
41872.000000
42704.000000
43564.000000
44389.000000
45190.000000
46023.000000
46816.000000
47615.000000
48461.000000
49301.000000
50094.000000
50941.000000
51804.000000
52663.000000
53465.000000
54321.000000
55184.000000
56010.000000
56805.000000
57669.000000
58547.000000
59377.000000
60167.000000
61017.000000
61907.000000
62787.000000
63614.000000
64426.000000
65300.000000
66189.000000
67072.000000
67937.000000
68763.000000
69613.000000
70512.000000
71407.000000
72238.000000
73042.000000
73937.000000
74825.000000
75629.000000
76443.000000
77332.000000
78207.000000
79015.000000
79853.000000
80749.000000
81614.000000
82405.000000
83251.000000
84135.000000
84963.000000
85766.000000
86625.000000
87488.000000
88286.000000
89101.000000
89962.000000
90809.000000
91604.000000
92446.000000
93325.000000
94170.000000
94964.000000
95828.000000
96704.000000
97518.000000
98346.000000
99212.000000
100054.000000
100853.000000
101707.000000
102578.000000
103379.000000
104214.000000
105091.000000
105937.000000
106742.000000
107629.000000
108513.000000
109323.000000
110187.000000
111091.000000
111935.000000
112747.000000
113654.000000
114563.000000
115393.000000
116244.000000
117154.000000
118043.000000
118863.000000
119663.000000
120495.000000
121428.000000
122366.000000
123272.000000
124092.000000
124978.000000
125856.000000
126693.000000
127542.000000
128346.000000
129195.000000
130114.000000
130974.000000
131772.000000
132633.000000
133518.000000
134368.000000
135173.000000
136030.000000
136923.000000
137777.000000
138577.000000
139444.000000
140333.000000
141176.000000
141986.000000
142800.000000
143677.000000
144569.000000
145436.000000
146273.000000
147083.000000
147891.000000
148764.000000
149652.000000
150473.000000
151288.000000
152166.000000
153045.000000
153875.000000
154678.000000
155550.000000
156437.000000
157259.000000
158063.000000
158933.000000
159825.000000
160653.000000
161474.000000
162346.000000
163202.000000
164009.000000
164890.000000
165809.000000
166628.000000
167444.000000
168342.000000
169221.000000
170038.000000
170912.000000
171797.000000
172609.000000
173483.000000
174377.000000
175189.000000
176061.000000
176969.000000
177792.000000
178631.000000
179524.000000
180366.000000
181171.000000
182047.000000
182913.000000
183722.000000
184588.000000
185452.000000
186255.000000
187103.000000
187971.000000
188780.000000
189654.000000
190591.000000
191479.000000
192316.000000
193228.000000
194133.000000
194954.000000
195846.000000
196759.000000
197615.000000
198484.000000
199396.000000
200257.000000
201089.000000
202001.000000
202904.000000
203720.000000
204588.000000
205497.000000
206376.000000
207202.000000
208056.000000
208954.000000
209836.000000
210655.000000
211477.000000
212388.000000
213296.000000
214129.000000
214944.000000
215774.000000
216689.000000
217611.000000
218474.000000
219301.000000
220197.000000
221087.000000
221914.000000
222791.000000
223696.000000
224567.000000
225385.000000
226274.000000
227169.000000
227996.000000
228816.000000
229688.000000
230566.000000
231368.000000
232199.000000
233069.000000
233926.000000
234719.000000
235575.000000
236458.000000
237279.000000
238092.000000
238961.000000
239806.000000
240591.000000
241457.000000
242341.000000
243151.000000
244010.000000
244907.000000
245741.000000
246541.000000
247367.000000
248265.000000
249177.000000
250064.000000
250918.000000
251729.000000
252572.000000
253459.000000
254325.000000
255142.000000
255953.000000
256831.000000
257715.000000
258540.000000
259364.000000
260266.000000
261183.000000
262022.000000
262846.000000
263740.000000
264631.000000
265438.000000
266287.000000
267173.000000
268014.000000
268817.000000
269691.000000
270604.000000
271441.000000
272246.000000
273132.000000
274035.000000
274858.000000
275668.000000
276553.000000
277449.000000
278274.000000
279069.000000
279928.000000
280790.000000
281584.000000
282374.000000
283200.000000
284073.000000
284912.000000
285687.000000
286529.000000
287408.000000
288220.000000
289031.000000
289914.000000
290788.000000
291600.000000
292421.000000
293299.000000
294160.000000
294963.000000
295835.000000
296724.000000
297550.000000
298377.000000
299269.000000
300143.000000
300946.000000
301807.000000
302699.000000
303535.000000
304331.000000
305175.000000
306063.000000
306891.000000
307690.000000
308547.000000
309332.000000
310107.000000
310945.000000
311795.000000
312581.000000
313363.000000
314266.000000
315194.000000
316083.000000
316881.000000
317720.000000
318589.000000
319452.000000
320241.000000
321054.000000
321919.000000
322763.000000
323547.000000
324398.000000
325272.000000
326114.000000
326915.000000
327791.000000
328683.000000
329520.000000
330360.000000
331241.000000
332126.000000
332939.000000
333840.000000
334720.000000
335526.000000
336442.000000
337355.000000
338182.000000
339077.000000
340002.000000
340884.000000
341691.000000
342502.000000
343420.000000
344364.000000
345202.000000
346056.000000
346948.000000
347823.000000
348629.000000
349488.000000
350375.000000
351203.000000
352014.000000
352866.000000
353695.000000
354519.000000
355316.000000
356101.000000
356957.000000
357814.000000
358615.000000
359455.000000
360327.000000
361137.000000
361959.000000
362835.000000
363697.000000
364492.000000
365344.000000
366214.000000
367030.000000
367822.000000
368672.000000
369562.000000
370393.000000
371219.000000
372100.000000
372942.000000
373754.000000
374634.000000
375518.000000
376338.000000
377195.000000
378090.000000
378920.000000
379755.000000
380649.000000
381491.000000
382306.000000
383181.000000
384058.000000
384861.000000
385709.000000
386582.000000
387428.000000
388230.000000
389071.000000
389957.000000
390827.000000
391637.000000
392491.000000
393377.000000
394213.000000
395025.000000
395909.000000
396784.000000
397596.000000
398457.000000
399345.000000
400188.000000
400982.000000
401838.000000
402722.000000
403553.000000
404360.000000
405239.000000
406113.000000
406933.000000
407800.000000
408689.000000
409513.000000
410348.000000
411237.000000
412075.000000
412907.000000
413798.000000
414658.000000
415474.000000
416353.000000
417233.000000
418067.000000
418877.000000
419763.000000
420641.000000
421448.000000
422325.000000
423243.000000
424079.000000
424901.000000
425801.000000
426675.000000
427488.000000
428379.000000
429303.000000
430127.000000
431011.000000
431932.000000
432760.000000
433626.000000
434555.000000
435386.000000
436219.000000
437122.000000
437990.000000
438798.000000
439670.000000
440578.000000
441429.000000
442232.000000
443101.000000
443981.000000
444796.000000
445596.000000
446457.000000
447318.000000
448106.000000
448939.000000
449801.000000
450619.000000
451402.000000
452214.000000
453074.000000
453937.000000
454731.000000
455565.000000
456428.000000
457231.000000
458048.000000
458920.000000
459744.000000
460542.000000
461396.000000
462230.000000
463020.000000
463871.000000
464709.000000
465502.000000
466353.000000
467214.000000
468017.000000
468855.000000
469729.000000
470559.000000
471346.000000
472204.000000
473085.000000
473929.000000
474729.000000
475607.000000
476501.000000
477323.000000
478145.000000
479034.000000
479930.000000
480759.000000
481553.000000
482362.000000
483262.000000
484160.000000
485007.000000
485821.000000
486696.000000
487577.000000
488392.000000
489242.000000
490124.000000
490940.000000
491744.000000
492615.000000
493468.000000
494265.000000
495129.000000
496005.000000
496819.000000
497613.000000
498479.000000
499384.000000
500245.000000
501056.000000
501898.000000
502765.000000
503569.000000
504415.000000
505289.000000
506099.000000
506909.000000
507784.000000
508617.000000
509410.000000
510271.000000
511130.000000
511923.000000
512765.000000
513649.000000
514470.000000
515272.000000
516136.000000
516990.000000
517783.000000
518626.000000
519493.000000
520344.000000
521140.000000
521982.000000
522860.000000
523689.000000
524486.000000
525355.000000
526240.000000
527062.000000
527892.000000
528774.000000
529652.000000
530458.000000
531310.000000
532210.000000
533052.000000
533851.000000
534734.000000
535631.000000
536452.000000
537300.000000
538202.000000
539044.000000
539853.000000
540743.000000
541640.000000
542467.000000
543260.000000
544151.000000
545083.000000
545933.000000
546752.000000
547450.000000
548159.000000
548909.000000
549843.000000
550717.000000
551575.000000
552521.000000
553452.000000
554301.000000
555220.000000
556144.000000
556983.000000
557812.000000
558657.000000
559490.000000
560267.000000
561112.000000
561988.000000
562790.000000
563609.000000
564479.000000
565316.000000
566113.000000
566988.000000
567884.000000
568697.000000
569547.000000
570444.000000
571277.000000
572092.000000
572968.000000
573854.000000
574667.000000
575488.000000
576366.000000
577237.000000
578043.000000
578872.000000
579754.000000
580611.000000
581402.000000
582177.000000
583032.000000
583918.000000
584780.000000
585584.000000
586433.000000
587323.000000
588173.000000
588977.000000
589849.000000
590733.000000
591561.000000
592385.000000
593276.000000
594179.000000
595009.000000
595845.000000
596765.000000
597648.000000
598460.000000
599347.000000
600259.000000
601087.000000
601915.000000
602809.000000
603705.000000
604521.000000
605391.000000
606303.000000
607155.000000
607965.000000
608861.000000
609741.000000
610547.000000
611399.000000
612281.000000
613089.000000
613892.000000
614772.000000
615619.000000
616415.000000
617287.000000
618167.000000
618975.000000
619810.000000
620718.000000
621574.000000
622396.000000
623274.000000
624153.000000
624958.000000
625806.000000
626695.000000
627513.000000
628319.000000
629189.000000
630047.000000
630845.000000
631696.000000
632568.000000
633377.000000
634204.000000
635109.000000
635956.000000
636748.000000
637609.000000
638506.000000
639386.000000
640191.000000
641022.000000
641900.000000
642728.000000
643524.000000
644385.000000
645250.000000
646047.000000
646891.000000
647757.000000
648555.000000
649390.000000
650254.000000
651046.000000
651866.000000
652736.000000
653572.000000
654373.000000
655226.000000
656084.000000
656878.000000
657710.000000
658588.000000
659421.000000
660223.000000
661100.000000
661955.000000
662758.000000
663633.000000
664507.000000
665306.000000
666181.000000
667053.000000
667845.000000
668689.000000
669561.000000
670350.000000
671183.000000
672068.000000
672905.000000
673733.000000
674636.000000
675483.000000
676295.000000
677174.000000
678035.000000
678838.000000
679694.000000
680580.000000
681391.000000
682239.000000
683112.000000
683913.000000
684756.000000
685649.000000
686466.000000
687265.000000
688137.000000
688971.000000
689740.000000
690469.000000
691253.000000
692134.000000
693001.000000
693870.000000
694692.000000
695492.000000
696351.000000
697213.000000
698009.000000
698855.000000
699718.000000
700534.000000
701338.000000
702203.000000
703055.000000
703845.000000
704689.000000
705556.000000
706408.000000
707198.000000
708044.000000
708927.000000
709792.000000
710589.000000
711420.000000
712296.000000
713180.000000
713999.000000
714828.000000
715717.000000
716586.000000
717395.000000
718259.000000
719146.000000
720003.000000
720803.000000
721663.000000
722556.000000
723379.000000
724185.000000
725061.000000
725916.000000
726708.000000
727562.000000
728431.000000
729226.000000
730069.000000
730930.000000
731722.000000
732551.000000
733421.000000
734222.000000
735016.000000
735878.000000
736731.000000
737519.000000
738333.000000
739194.000000
740000.000000
740792.000000
741659.000000
742495.000000
743274.000000
744124.000000
744999.000000
745800.000000
746599.000000
747455.000000
748321.000000
749122.000000
749950.000000
750825.000000
751681.000000
752477.000000
753315.000000
754201.000000
755045.000000
755850.000000
756725.000000
757621.000000
758457.000000
759269.000000
760156.000000
761026.000000
761854.000000
762546.000000
763223.000000
763939.000000
764830.000000
765693.000000
766522.000000
767436.000000
768345.000000
769183.000000
770088.000000
770998.000000
771836.000000
772750.000000
773734.000000
774625.000000
775566.000000
776516.000000
777371.000000
778276.000000
779207.000000
780101.000000
781064.000000
782013.000000
782905.000000
783886.000000
784840.000000
785743.000000
786714.000000
787631.000000
788526.000000
789479.000000
790369.000000
791276.000000
792218.000000
793131.000000
794069.000000
795006.000000
795902.000000
796868.000000
797725.000000
798531.000000
799373.000000
800182.000000
800970.000000
801815.000000
802647.000000
803435.000000
804284.000000
805123.000000
805947.000000
806733.000000
807573.000000
808432.000000
809281.000000
810072.000000
810905.000000
811768.000000
812623.000000
813410.000000
814250.000000
815114.000000
815934.000000
816725.000000
817593.000000
818452.000000
819249.000000
820110.000000
820979.000000
821771.000000
822642.000000
823509.000000
824336.000000
825242.000000
826148.000000
826967.000000
827837.000000
828736.000000
829558.000000
830422.000000
831307.000000
832132.000000
833004.000000
833906.000000
834736.000000
835594.000000
836503.000000
837349.000000
838176.000000
839072.000000
839942.000000
840760.000000
841677.000000
842563.000000
843386.000000
844298.000000
845167.000000
845991.000000
846902.000000
847763.000000
848577.000000
849472.000000
850344.000000
851199.000000
852083.000000
852895.000000
853763.000000
854644.000000
855456.000000
856333.000000
857199.000000
858013.000000
858917.000000
859832.000000
860658.000000
861545.000000
862453.000000
863315.000000
864143.000000
865059.000000
866003.000000
866843.000000
867752.000000
868700.000000
869556.000000
870402.000000
871321.000000
872216.000000
873039.000000
873913.000000
874827.000000
875695.000000
876507.000000
877397.000000
878303.000000
879127.000000
879908.000000
880713.000000
881599.000000
882566.000000
883433.000000
884239.000000
885107.000000
885978.000000
886783.000000
887632.000000
888495.000000
889286.000000
890094.000000
890970.000000
891811.000000
892613.000000
893465.000000
894325.000000
895136.000000
895979.000000
896856.000000
897721.000000
898541.000000
899409.000000
900296.000000
901117.000000
901962.000000
902841.000000
903667.000000
904463.000000
905338.000000
906220.000000
907025.000000
907879.000000
908782.000000
909617.000000
910484.000000
911374.000000
912202.000000
913059.000000
913950.000000
914802.000000
915609.000000
916510.000000
917411.000000
918249.000000
919069.000000
919956.000000
920847.000000
921686.000000
922495.000000
923336.000000
924248.000000
925156.000000
925989.000000
926836.000000
927730.000000
928612.000000
929426.000000
930289.000000
931184.000000
932017.000000
932826.000000
933713.000000
934610.000000
935462.000000
936296.000000
937205.000000
938091.000000
938916.000000
939800.000000
940736.000000
941596.000000
942411.000000
943225.000000
944062.000000
944988.000000
945916.000000
946778.000000
947613.000000
948462.000000
949322.000000
950190.000000
950986.000000
951869.000000
952751.000000
953556.000000
954356.000000
955236.000000
956125.000000
956939.000000
957801.000000
958694.000000
959530.000000
960348.000000
961250.000000
962148.000000
962982.000000
963861.000000
964761.000000
965590.000000
966402.000000
967302.000000
968208.000000
969073.000000
969888.000000
970685.000000
971552.000000
972460.000000
973349.000000
974174.000000
975024.000000
975906.000000
976751.000000
977561.000000
978448.000000
979320.000000
980145.000000
980993.000000
981891.000000
982764.000000
983576.000000
984389.000000
985278.000000
986174.000000
987038.000000
987853.000000
988713.000000
989605.000000
990453.000000
991279.000000
992159.000000
993043.000000
993854.000000
994707.000000
995609.000000
996490.000000
997304.000000
998178.000000
999076.000000
999914.000000
1000725.000000
1001626.000000
1002536.000000
1003360.000000
1004203.000000
1005114.000000
1005998.000000
1006809.000000
1007679.000000
1008605.000000
1009495.000000
1010314.000000
1011210.000000
1012126.000000
1012979.000000
1013805.000000
1014699.000000
1015601.000000
1016426.000000
1017293.000000
1018210.000000
1019054.000000
1019859.000000
1020749.000000
1021660.000000
1022496.000000
1023315.000000
1024199.000000
1025079.000000
1025880.000000
1026749.000000
1027652.000000
1028459.000000
1029305.000000
1030187.000000
1031007.000000
1031806.000000
1032681.000000
1033545.000000
1034344.000000
1035183.000000
1036048.000000
1036861.000000
1037673.000000
1038548.000000
1039388.000000
1040187.000000
1041055.000000
1041909.000000
1042712.000000
1043593.000000
1044466.000000
1045268.000000
1046131.000000
1047026.000000
1047851.000000
1048676.000000
1049569.000000
1050417.000000
1051219.000000
1052089.000000
1052978.000000
1053775.000000
1054586.000000
1055337.000000
1056181.000000
1057048.000000
1057887.000000
1058675.000000
1059511.000000
1060403.000000
1061279.000000
1062092.000000
1062958.000000
1063864.000000
1064698.000000
1065546.000000
1066464.000000
1067365.000000
1068190.000000
1069100.000000
1070038.000000
1070868.000000
1071785.000000
1072719.000000
1073549.000000
1074427.000000
1075333.000000
1076199.000000
1077018.000000
1077919.000000
1078851.000000
1079696.000000
1080558.000000
1081463.000000
1082362.000000
1083189.000000
1084071.000000
1084995.000000
1085844.000000
1086681.000000
1087592.000000
1088483.000000
1089300.000000
1090141.000000
1091044.000000
1091916.000000
1092723.000000
1093589.000000
1094474.000000
1095286.000000
1096075.000000
1096940.000000
1097825.000000
1098697.000000
1099504.000000
1100335.000000
1101222.000000
1102056.000000
1102875.000000
1103756.000000
1104624.000000
1105429.000000
1106287.000000
1107170.000000
1108002.000000
1108800.000000
1109677.000000
1110570.000000
1111394.000000
1112236.000000
1113123.000000
1113955.000000
1114761.000000
1115657.000000
1116528.000000
1117335.000000
1118214.000000
1119102.000000
1119908.000000
1120758.000000
1121664.000000
1122532.000000
1123339.000000
1124197.000000
1125100.000000
1125965.000000
1126773.000000
1127626.000000
1128539.000000
1129428.000000
1130243.000000
1131127.000000
1132050.000000
1132891.000000
1133738.000000
1134645.000000
1135506.000000
1136316.000000
1137213.000000
1138107.000000
1138919.000000
1139794.000000
1140705.000000
1141525.000000
1142369.000000
1143264.000000
1144094.000000
1144910.000000
1145811.000000
1146712.000000
1147532.000000
1148393.000000
1149298.000000
1150124.000000
1150960.000000
1151863.000000
1152715.000000
1153522.000000
1154389.000000
1155250.000000
1156052.000000
1156877.000000
1157771.000000
1158634.000000
1159431.000000
1160314.000000
1161204.000000
1162012.000000
1162880.000000
1163774.000000
1164578.000000
1165442.000000
1166340.000000
1167147.000000
1168007.000000
1168901.000000
1169713.000000
1170532.000000
1171407.000000
1172235.000000
1173035.000000
1173910.000000
1174737.000000
1175535.000000
1176412.000000
1177298.000000
1178106.000000
1178960.000000
1179839.000000
1180650.000000
1181475.000000
1182359.000000
1183192.000000
1183995.000000
1184869.000000
1185742.000000
1186548.000000
1187384.000000
1188287.000000
1189166.000000
1189989.000000
1190891.000000
1191812.000000
1192655.000000
1193499.000000
1194421.000000
1195340.000000
1196166.000000
1196953.000000
1197804.000000
1198742.000000
1199673.000000
1200534.000000
1201353.000000
1202244.000000
1203139.000000
1203979.000000
1204827.000000
1205736.000000
1206616.000000
1207441.000000
1208352.000000
1209287.000000
1210144.000000
1211001.000000
