ECG (ms)
157.000000
694.000000
1230.000000
1769.000000
2321.000000
2890.000000
3456.000000
4002.000000
4544.000000
5094.000000
5653.000000
6237.000000
6848.000000
7522.000000
8171.000000
8832.000000
9495.000000
10179.000000
10850.000000
11493.000000
12151.000000
12799.000000
13426.000000
14032.000000
14635.000000
15236.000000
15853.000000
16470.000000
17085.000000
17721.000000
18385.000000
19125.000000
19879.000000
20635.000000
21358.000000
22075.000000
22796.000000
23522.000000
24260.000000
24981.000000
25685.000000
26398.000000
27165.000000
27929.000000
28684.000000
29448.000000
30193.000000
30865.000000
31529.000000
32204.000000
32927.000000
33741.000000
34569.000000
35368.000000
36195.000000
37023.000000
37786.000000
38589.000000
39405.000000
40192.000000
41008.000000
41863.000000
42702.000000
43509.000000
44337.000000
45194.000000
46008.000000
46776.000000
47575.000000
48440.000000
49266.000000
50069.000000
50925.000000
51754.000000
52524.000000
53272.000000
54056.000000
54840.000000
55619.000000
56412.000000
57239.000000
58076.000000
58854.000000
59662.000000
60456.000000
61204.000000
61985.000000
62747.000000
63519.000000
64268.000000
65062.000000
65869.000000
66644.000000
67410.000000
68189.000000
68959.000000
69707.000000
70477.000000
71277.000000
72077.000000
72855.000000
73669.000000
74489.000000
75265.000000
76019.000000
76790.000000
77552.000000
78306.000000
79071.000000
79802.000000
80513.000000
81232.000000
81935.000000
82639.000000
83393.000000
84132.000000
84832.000000
85487.000000
86133.000000
86785.000000
87446.000000
88166.000000
88942.000000
89712.000000
90467.000000
91182.000000
91897.000000
92648.000000
93451.000000
94270.000000
95052.000000
95813.000000
96580.000000
97345.000000
98086.000000
98816.000000
99591.000000
100323.000000
100999.000000
101729.000000
102453.000000
103241.000000
104015.000000
104770.000000
105561.000000
106376.000000
107202.000000
107988.000000
108739.000000
109503.000000
110284.000000
111061.000000
111789.000000
112526.000000
113236.000000
113915.000000
114605.000000
115277.000000
115935.000000
116616.000000
117313.000000
117991.000000
118626.000000
119302.000000
120018.000000
120713.000000
121367.000000
121983.000000
122581.000000
123178.000000
123787.000000
124426.000000
125057.000000
125671.000000
126266.000000
126843.000000
127416.000000
127986.000000
128566.000000
129179.000000
129791.000000
130420.000000
131034.000000
131649.000000
132246.000000
132845.000000
133457.000000
134096.000000
134787.000000
135470.000000
136178.000000
136918.000000
137691.000000
138487.000000
139282.000000
140014.000000
140729.000000
141416.000000
142121.000000
142808.000000
143518.000000
144251.000000
144995.000000
145725.000000
146472.000000
147188.000000
147906.000000
148640.000000
149368.000000
150119.000000
150875.000000
151550.000000
152186.000000
152838.000000
153550.000000
154321.000000
155136.000000
155965.000000
156739.000000
157514.000000
158281.000000
159046.000000
159777.000000
160513.000000
161255.000000
162036.000000
162806.000000
163562.000000
164339.000000
165167.000000
166028.000000
166879.000000
167700.000000
168474.000000
169183.000000
169900.000000
170611.000000
171347.000000
172115.000000
172909.000000
173692.000000
174444.000000
175196.000000
175907.000000
176559.000000
177214.000000
177900.000000
178643.000000
179459.000000
180309.000000
181129.000000
181965.000000
182803.000000
183586.000000
184367.000000
185168.000000
186006.000000
186800.000000
187579.000000
188336.000000
189093.000000
189829.000000
190617.000000
191455.000000
192314.000000
193174.000000
193975.000000
194757.000000
195534.000000
196311.000000
197069.000000
197858.000000
198664.000000
199470.000000
200271.000000
201086.000000
201881.000000
202648.000000
203434.000000
204227.000000
205001.000000
205784.000000
206567.000000
207337.000000
208064.000000
208808.000000
209540.000000
210268.000000
210945.000000
211621.000000
212308.000000
213059.000000
213889.000000
214772.000000
215575.000000
216393.000000
217185.000000
217952.000000
218700.000000
219454.000000
220240.000000
221012.000000
221751.000000
222517.000000
223294.000000
224091.000000
224859.000000
225645.000000
226449.000000
227220.000000
227981.000000
228790.000000
229583.000000
230341.000000
231069.000000
231787.000000
232515.000000
233242.000000
233959.000000
234702.000000
235475.000000
236213.000000
236957.000000
237714.000000
238489.000000
239231.000000
240004.000000
240777.000000
241560.000000
242314.000000
243081.000000
243832.000000
244563.000000
245276.000000
245973.000000
246629.000000
247270.000000
247948.000000
248666.000000
249422.000000
250218.000000
251027.000000
251840.000000
252632.000000
253428.000000
254217.000000
254997.000000
255772.000000
256548.000000
257283.000000
258011.000000
258764.000000
259588.000000
260442.000000
261247.000000
262061.000000
262905.000000
263752.000000
264534.000000
265325.000000
266111.000000
266899.000000
267697.000000
268543.000000
269397.000000
270229.000000
271052.000000
271897.000000
272716.000000
273475.000000
274262.000000
275048.000000
275807.000000
276566.000000
277361.000000
278181.000000
278991.000000
279769.000000
280587.000000
281412.000000
282187.000000
282982.000000
283771.000000
284562.000000
285306.000000
286067.000000
286836.000000
287593.000000
288344.000000
289154.000000
290008.000000
290818.000000
291623.000000
292447.000000
293260.000000
294038.000000
294819.000000
295586.000000
296373.000000
297123.000000
297909.000000
298710.000000
299484.000000
300222.000000
300987.000000
301770.000000
302554.000000
303302.000000
304060.000000
304809.000000
305527.000000
306238.000000
306915.000000
307572.000000
308241.000000
308950.000000
309702.000000
310512.000000
311339.000000
312143.000000
312961.000000
313789.000000
314615.000000
315394.000000
316197.000000
316985.000000
317755.000000
318506.000000
319284.000000
320092.000000
320936.000000
321729.000000
322546.000000
323361.000000
324214.000000
325064.000000
325878.000000
326674.000000
327509.000000
328342.000000
329128.000000
329927.000000
330733.000000
331584.000000
332396.000000
333231.000000
334052.000000
334880.000000
335640.000000
336418.000000
337212.000000
338028.000000
338830.000000
339657.000000
340502.000000
341334.000000
342153.000000
342989.000000
343822.000000
344644.000000
345421.000000
346240.000000
347065.000000
347871.000000
348652.000000
349453.000000
350260.000000
351004.000000
351708.000000
352409.000000
353107.000000
353855.000000
354674.000000
355526.000000
356365.000000
357225.000000
358097.000000
358901.000000
359693.000000
360483.000000
361279.000000
362059.000000
362839.000000
363669.000000
364511.000000
365349.000000
366168.000000
366955.000000
367694.000000
368449.000000
369209.000000
370001.000000
370825.000000
371660.000000
372490.000000
373349.000000
374241.000000
375081.000000
375865.000000
376654.000000
377429.000000
378151.000000
378881.000000
379635.000000
380450.000000
381237.000000
382055.000000
382869.000000
383691.000000
384478.000000
385236.000000
386013.000000
386803.000000
387561.000000
388328.000000
389127.000000
389968.000000
390789.000000
391576.000000
392353.000000
393110.000000
393875.000000
394634.000000
395372.000000
396137.000000
396923.000000
397669.000000
398378.000000
399117.000000
399866.000000
400648.000000
401461.000000
402262.000000
403003.000000
403753.000000
404505.000000
405235.000000
405958.000000
406740.000000
407560.000000
408371.000000
409147.000000
409940.000000
410728.000000
411473.000000
412211.000000
412973.000000
413729.000000
414460.000000
415211.000000
415982.000000
416757.000000
417514.000000
418287.000000
419071.000000
419828.000000
420581.000000
421349.000000
422127.000000
422910.000000
423649.000000
424400.000000
425160.000000
425894.000000
426620.000000
427363.000000
428154.000000
428961.000000
429779.000000
430607.000000
431397.000000
432172.000000
432942.000000
433718.000000
434476.000000
435253.000000
436074.000000
436930.000000
437767.000000
438548.000000
439318.000000
440083.000000
440846.000000
441615.000000
442367.000000
443136.000000
443940.000000
444738.000000
445477.000000
446251.000000
447036.000000
447786.000000
448478.000000
449157.000000
449852.000000
450584.000000
451310.000000
452073.000000
452853.000000
453645.000000
454433.000000
455192.000000
455943.000000
456702.000000
457498.000000
458315.000000
459135.000000
459985.000000
460851.000000
461682.000000
462549.000000
463397.000000
464182.000000
464915.000000
465629.000000
466344.000000
467096.000000
467868.000000
468680.000000
469538.000000
470427.000000
471296.000000
472150.000000
473028.000000
473909.000000
474715.000000
475499.000000
476278.000000
476998.000000
477679.000000
478347.000000
479037.000000
479798.000000
480629.000000
481467.000000
482277.000000
483109.000000
483964.000000
484802.000000
485626.000000
486490.000000
487385.000000
488235.000000
489112.000000
490023.000000
490902.000000
491745.000000
492603.000000
493461.000000
494255.000000
495056.000000
495897.000000
496722.000000
497527.000000
498379.000000
499268.000000
500114.000000
500971.000000
501811.000000
502623.000000
503395.000000
504187.000000
504992.000000
505792.000000
506631.000000
507526.000000
508387.000000
509218.000000
510027.000000
510809.000000
511568.000000
512376.000000
513204.000000
514027.000000
514862.000000
515734.000000
516554.000000
517333.000000
518143.000000
518981.000000
519825.000000
520614.000000
521391.000000
522170.000000
522961.000000
523739.000000
524484.000000
525231.000000
525951.000000
526631.000000
527286.000000
527931.000000
528598.000000
529341.000000
530139.000000
530963.000000
531751.000000
532545.000000
533324.000000
534047.000000
534721.000000
535367.000000
536015.000000
536697.000000
537433.000000
538201.000000
538933.000000
539659.000000
540395.000000
541132.000000
541842.000000
542574.000000
543314.000000
544062.000000
544770.000000
545495.000000
546237.000000
546993.000000
547739.000000
548505.000000
549298.000000
550089.000000
550857.000000
551609.000000
552364.000000
553134.000000
553882.000000
554630.000000
555400.000000
556201.000000
556963.000000
557710.000000
558478.000000
559264.000000
560015.000000
560779.000000
561576.000000
562384.000000
563232.000000
564080.000000
564899.000000
565717.000000
566538.000000
567366.000000
568165.000000
568930.000000
569709.000000
570481.000000
571269.000000
572047.000000
572851.000000
573700.000000
574546.000000
575340.000000
576149.000000
576955.000000
577731.000000
578463.000000
579199.000000
579910.000000
580574.000000
581227.000000
581920.000000
582672.000000
583481.000000
584300.000000
585071.000000
585839.000000
586609.000000
587391.000000
588183.000000
588923.000000
589647.000000
590388.000000
591153.000000
591955.000000
592772.000000
593586.000000
594372.000000
595099.000000
595831.000000
596605.000000
597422.000000
598290.000000
599168.000000
600022.000000
600840.000000
601685.000000
602530.000000
603366.000000
604178.000000
604960.000000
605702.000000
606457.000000
607263.000000
608106.000000
608944.000000
609765.000000
610543.000000
611296.000000
612079.000000
612845.000000
613627.000000
614424.000000
615215.000000
616015.000000
616846.000000
617695.000000
618477.000000
619228.000000
620003.000000
620772.000000
621495.000000
622180.000000
622852.000000
623515.000000
624206.000000
624966.000000
625796.000000
626667.000000
627529.000000
628368.000000
629186.000000
630023.000000
630869.000000
631664.000000
632493.000000
633332.000000
634177.000000
634970.000000
635829.000000
636717.000000
637567.000000
638388.000000
639234.000000
640047.000000
640809.000000
641596.000000
642355.000000
643104.000000
643878.000000
644709.000000
645555.000000
646367.000000
647209.000000
648041.000000
648833.000000
649636.000000
650478.000000
651335.000000
652156.000000
652976.000000
653763.000000
654511.000000
655234.000000
655940.000000
656614.000000
657258.000000
657937.000000
658676.000000
659522.000000
660409.000000
661259.000000
662045.000000
662810.000000
663563.000000
664293.000000
664994.000000
665737.000000
666506.000000
667306.000000
668081.000000
668882.000000
669691.000000
670478.000000
671247.000000
672032.000000
672838.000000
673620.000000
674374.000000
675141.000000
675908.000000
676668.000000
677414.000000
678173.000000
678950.000000
679750.000000
680534.000000
681362.000000
682185.000000
683000.000000
683785.000000
684596.000000
685387.000000
686140.000000
686878.000000
687637.000000
688399.000000
689146.000000
689879.000000
690619.000000
691369.000000
692154.000000
692904.000000
693690.000000
694470.000000
695251.000000
695995.000000
696759.000000
697513.000000
698265.000000
698996.000000
699764.000000
700530.000000
701241.000000
701921.000000
702602.000000
703288.000000
704007.000000
704769.000000
705567.000000
706325.000000
707089.000000
707857.000000
708664.000000
709457.000000
710228.000000
711000.000000
711805.000000
712638.000000
713459.000000
714221.000000
715020.000000
715831.000000
716615.000000
717387.000000
718184.000000
718987.000000
719825.000000
720634.000000
721456.000000
722274.000000
723051.000000
723819.000000
724611.000000
725409.000000
726247.000000
727055.000000
727896.000000
728752.000000
729630.000000
730468.000000
731236.000000
732011.000000
732784.000000
733591.000000
734426.000000
735258.000000
736071.000000
736898.000000
737712.000000
738465.000000
739162.000000
739832.000000
740523.000000
741243.000000
742030.000000
742911.000000
743817.000000
744711.000000
745589.000000
746415.000000
747190.000000
747951.000000
748714.000000
749515.000000
750365.000000
751199.000000
752002.000000
752823.000000
753673.000000
754558.000000
755392.000000
756211.000000
757058.000000
757905.000000
758688.000000
759449.000000
760222.000000
761006.000000
761768.000000
762533.000000
763312.000000
764137.000000
764983.000000
765841.000000
766722.000000
767583.000000
768402.000000
769237.000000
770086.000000
770914.000000
771737.000000
772577.000000
773370.000000
774128.000000
774893.000000
775646.000000
776390.000000
777137.000000
777893.000000
778679.000000
779489.000000
780291.000000
781086.000000
781929.000000
782803.000000
783617.000000
784416.000000
785188.000000
785956.000000
786705.000000
787506.000000
788319.000000
789116.000000
789895.000000
790733.000000
791617.000000
792450.000000
793233.000000
794022.000000
794772.000000
795473.000000
796143.000000
796784.000000
797456.000000
798206.000000
799053.000000
799901.000000
800773.000000
801620.000000
802404.000000
803188.000000
803972.000000
804751.000000
805501.000000
806260.000000
807031.000000
807843.000000
808627.000000
809446.000000
810253.000000
811079.000000
811853.000000
812634.000000
813429.000000
814249.000000
815038.000000
815836.000000
816663.000000
817513.000000
818379.000000
819185.000000
820003.000000
820834.000000
821669.000000
822480.000000
823286.000000
824135.000000
824999.000000
825836.000000
826644.000000
827462.000000
828272.000000
829064.000000
829838.000000
830630.000000
831457.000000
832322.000000
833150.000000
834033.000000
834921.000000
835768.000000
836646.000000
837493.000000
838286.000000
839050.000000
839826.000000
840609.000000
841401.000000
842252.000000
843121.000000
843910.000000
844647.000000
845375.000000
846112.000000
846847.000000
847636.000000
848429.000000
849226.000000
850064.000000
850938.000000
851756.000000
852534.000000
853302.000000
854071.000000
854833.000000
855615.000000
856433.000000
857273.000000
858083.000000
858899.000000
859752.000000
860584.000000
861398.000000
862191.000000
862997.000000
863769.000000
864538.000000
865317.000000
866130.000000
866939.000000
867825.000000
868800.000000
869735.000000
870614.000000
871477.000000
872311.000000
873129.000000
873917.000000
874683.000000
875432.000000
876202.000000
876998.000000
877801.000000
878645.000000
879520.000000
880390.000000
881232.000000
882030.000000
882838.000000
883625.000000
884363.000000
885041.000000
885699.000000
886396.000000
887142.000000
887967.000000
888865.000000
889726.000000
890590.000000
891470.000000
892327.000000
893128.000000
893924.000000
894747.000000
895593.000000
896425.000000
897253.000000
898121.000000
899038.000000
899901.000000
900778.000000
901647.000000
902448.000000
903219.000000
904017.000000
904871.000000
905733.000000
906632.000000
907543.000000
908431.000000
909275.000000
910125.000000
910940.000000
911717.000000
912477.000000
913270.000000
914111.000000
914959.000000
915818.000000
916710.000000
917601.000000
918447.000000
919302.000000
920143.000000
920927.000000
921732.000000
922523.000000
923300.000000
924057.000000
924842.000000
925596.000000
926317.000000
927043.000000
927776.000000
928542.000000
929369.000000
930213.000000
931023.000000
931820.000000
932614.000000
933403.000000
934155.000000
934918.000000
935718.000000
936542.000000
937345.000000
938181.000000
939030.000000
939824.000000
940620.000000
941434.000000
942246.000000
943036.000000
943809.000000
944597.000000
945415.000000
946218.000000
947066.000000
947956.000000
948828.000000
949663.000000
950512.000000
951377.000000
952209.000000
953053.000000
953862.000000
954621.000000
955375.000000
956120.000000
956905.000000
957754.000000
958596.000000
959391.000000
960204.000000
960994.000000
961736.000000
962428.000000
963117.000000
963797.000000
964517.000000
965286.000000
966114.000000
966930.000000
967772.000000
968632.000000
969461.000000
970301.000000
971153.000000
971988.000000
972772.000000
973562.000000
974342.000000
975098.000000
975833.000000
976591.000000
977353.000000
978168.000000
978946.000000
979750.000000
980552.000000
981378.000000
982151.000000
982916.000000
983683.000000
984449.000000
985209.000000
985955.000000
986734.000000
987533.000000
988320.000000
989102.000000
989891.000000
990676.000000
991419.000000
992192.000000
992950.000000
993745.000000
994564.000000
995359.000000
996192.000000
997033.000000
997836.000000
998614.000000
999407.000000
1000168.000000
1000903.000000
1001654.000000
1002378.000000
1003068.000000
1003733.000000
1004405.000000
1005096.000000
1005797.000000
1006511.000000
1007260.000000
1008015.000000
1008744.000000
1009491.000000
1010252.000000
1011020.000000
1011765.000000
1012514.000000
1013263.000000
1014045.000000
1014818.000000
1015557.000000
1016312.000000
1017082.000000
1017887.000000
1018643.000000
1019407.000000
1020160.000000
1020924.000000
1021660.000000
1022427.000000
1023234.000000
1024095.000000
1024950.000000
1025787.000000
1026615.000000
1027451.000000
1028239.000000
1029012.000000
1029792.000000
1030590.000000
1031368.000000
1032130.000000
1032901.000000
1033657.000000
1034356.000000
1035038.000000
1035776.000000
1036525.000000
1037326.000000
1038164.000000
1039012.000000
1039826.000000
1040687.000000
1041532.000000
1042364.000000
1043166.000000
1043963.000000
1044751.000000
1045500.000000
1046248.000000
1047012.000000
1047813.000000
1048625.000000
1049457.000000
1050336.000000
1051240.000000
1052104.000000
1052960.000000
1053785.000000
1054560.000000
1055324.000000
1056087.000000
1056884.000000
1057639.000000
1058363.000000
1059111.000000
1059828.000000
1060514.000000
1061224.000000
1061959.000000
1062732.000000
1063536.000000
1064334.000000
1065113.000000
1065909.000000
1066708.000000
1067519.000000
1068348.000000
1069138.000000
1069897.000000
1070679.000000
1071496.000000
1072300.000000
1073063.000000
1073829.000000
1074608.000000
1075420.000000
1076228.000000
1077034.000000
1077860.000000
1078720.000000
1079603.000000
1080419.000000
1081263.000000
1082111.000000
1082927.000000
1083733.000000
1084581.000000
1085426.000000
1086230.000000
1087084.000000
1087944.000000
1088790.000000
1089571.000000
1090352.000000
1091096.000000
1091794.000000
1092460.000000
1093123.000000
1093818.000000
1094600.000000
1095447.000000
1096331.000000
1097141.000000
1097984.000000
1098814.000000
1099637.000000
1100433.000000
1101196.000000
1101977.000000
1102778.000000
1103595.000000
1104410.000000
1105253.000000
1106118.000000
1106971.000000
1107784.000000
1108598.000000
1109417.000000
1110234.000000
1111010.000000
1111796.000000
1112589.000000
1113364.000000
1114165.000000
1115000.000000
1115840.000000
1116618.000000
1117425.000000
1118219.000000
1119004.000000
1119779.000000
1120572.000000
1121393.000000
1122216.000000
1123011.000000
1123827.000000
1124610.000000
1125329.000000
1126007.000000
1126677.000000
1127367.000000
1128105.000000
1128916.000000
1129790.000000
1130646.000000
1131448.000000
1132264.000000
1133090.000000
1133959.000000
1134802.000000
1135571.000000
1136333.000000
1137077.000000
1137834.000000
1138605.000000
1139409.000000
1140263.000000
1141186.000000
1142085.000000
1142917.000000
1143750.000000
1144605.000000
1145434.000000
1146213.000000
1146969.000000
1147722.000000
1148463.000000
1149184.000000
1149860.000000
1150518.000000
1151207.000000
1151955.000000
1152776.000000
1153650.000000
1154552.000000
1155448.000000
1156271.000000
1157034.000000
1157804.000000
1158597.000000
1159365.000000
1160123.000000
1160919.000000
1161748.000000
1162603.000000
1163425.000000
1164290.000000
1165158.000000
1166000.000000
1166819.000000
1167641.000000
1168485.000000
1169286.000000
1170071.000000
1170850.000000
1171604.000000
1172340.000000
1173117.000000
1173904.000000
1174727.000000
1175523.000000
1176368.000000
1177271.000000
1178169.000000
1179008.000000
1179857.000000
1180709.000000
1181508.000000
1182295.000000
1183095.000000
1183912.000000
1184706.000000
1185479.000000
1186281.000000
1187119.000000
1187923.000000
1188743.000000
1189562.000000
1190387.000000
1191183.000000
1191985.000000
1192819.000000
1193655.000000
1194443.000000
1195245.000000
1196044.000000
1196821.000000
1197570.000000
1198334.000000
1199089.000000
1199871.000000
1200639.000000
1201419.000000
1202230.000000
1203069.000000
1203881.000000
1204657.000000
1205457.000000
1206241.000000
1206976.000000
1207670.000000
1208361.000000
1209045.000000
1209757.000000
1210507.000000
1211335.000000
1212190.000000
1213023.000000
1213849.000000
1214695.000000
1215548.000000
1216373.000000
1217160.000000
1217955.000000
1218775.000000
1219611.000000
1220410.000000
1221253.000000
1222118.000000
1222977.000000
1223802.000000
1224666.000000
1225520.000000
1226372.000000
1227178.000000
1227992.000000
1228815.000000
1229648.000000
1230470.000000
1231340.000000
1232211.000000
1233074.000000
1233935.000000
1234813.000000
1235667.000000
1236501.000000
1237344.000000
1238202.000000
1239050.000000
1239908.000000
1240818.000000
1241736.000000
1242633.000000
1243535.000000
1244463.000000
1245327.000000
1246207.000000
1247082.000000
1247931.000000
1248761.000000
1249575.000000
1250360.000000
1251112.000000
1251888.000000
1252696.000000
1253561.000000
1254409.000000
1255247.000000
1256140.000000
1257015.000000
1257821.000000
1258626.000000
1259405.000000
1260163.000000
1260933.000000
1261693.000000
1262444.000000
1263205.000000
1263946.000000
1264644.000000
1265360.000000
1266134.000000
1266999.000000
1267874.000000
1268689.000000
1269511.000000
1270349.000000
1271205.000000
1272022.000000
1272809.000000
1273621.000000
1274464.000000
1275333.000000
1276183.000000
1277010.000000
1277829.000000
1278653.000000
1279456.000000
1280227.000000
1281009.000000
1281849.000000
1282720.000000
1283574.000000
1284452.000000
1285355.000000
1286253.000000
1287099.000000
1287962.000000
1288854.000000
1289718.000000
1290552.000000
1291410.000000
1292314.000000
1293208.000000
1294121.000000
1295051.000000
1295967.000000
1296879.000000
1297810.000000
1298721.000000
1299574.000000
1300440.000000
1301323.000000
1302197.000000
1303063.000000
1303973.000000
1304875.000000
1305734.000000
1306598.000000
1307475.000000
1308324.000000
1309135.000000
1309972.000000
1310853.000000
1311749.000000
1312623.000000
1313517.000000
1314418.000000
1315238.000000
1316050.000000
1316881.000000
1317704.000000
1318497.000000
1319325.000000
1320173.000000
1321014.000000
1321807.000000
1322623.000000
1323465.000000
1324335.000000
1325138.000000
1325942.000000
1326744.000000
1327562.000000
1328361.000000
1329131.000000
1329914.000000
1330698.000000
1331469.000000
1332255.000000
1333052.000000
1333875.000000
1334630.000000
1335340.000000
