ECG (ms)
471.000000
1083.000000
1712.000000
2366.000000
3074.000000
3794.000000
4518.000000
5222.000000
5903.000000
6559.000000
7196.000000
7827.000000
8453.000000
9075.000000
9698.000000
10329.000000
11008.000000
11762.000000
12526.000000
13256.000000
13961.000000
14633.000000
15280.000000
15902.000000
16496.000000
17075.000000
17646.000000
18225.000000
18829.000000
19491.000000
20275.000000
21048.000000
21777.000000
22481.000000
23157.000000
23816.000000
24456.000000
25076.000000
25691.000000
26300.000000
26905.000000
27517.000000
28144.000000
28805.000000
29503.000000
30274.000000
31179.000000
32014.000000
32773.000000
33481.000000
34153.000000
34802.000000
35434.000000
36050.000000
36672.000000
37293.000000
37919.000000
38552.000000
39184.000000
39820.000000
40460.000000
41108.000000
41760.000000
42429.000000
43162.000000
43915.000000
44648.000000
45357.000000
46036.000000
46690.000000
47328.000000
47949.000000
48564.000000
49163.000000
49754.000000
50329.000000
50902.000000
51493.000000
52111.000000
52775.000000
53512.000000
54271.000000
55022.000000
55744.000000
56449.000000
57129.000000
57787.000000
58431.000000
59067.000000
59701.000000
60340.000000
60981.000000
61632.000000
62301.000000
63023.000000
63752.000000
64470.000000
65161.000000
65831.000000
66484.000000
67125.000000
67754.000000
68379.000000
69020.000000
69664.000000
70322.000000
70986.000000
71685.000000
72400.000000
73117.000000
73815.000000
74490.000000
75147.000000
75789.000000
76409.000000
77018.000000
77621.000000
78224.000000
78837.000000
79492.000000
80235.000000
80998.000000
81731.000000
82444.000000
83136.000000
83804.000000
84448.000000
85077.000000
85687.000000
86296.000000
86903.000000
87511.000000
88127.000000
88745.000000
89377.000000
90048.000000
90854.000000
91838.000000
92658.000000
93407.000000
94117.000000
94790.000000
95439.000000
96060.000000
96666.000000
97264.000000
97861.000000
98459.000000
99063.000000
99676.000000
100299.000000
100935.000000
101582.000000
102232.000000
102894.000000
103614.000000
104431.000000
105244.000000
106002.000000
106712.000000
107390.000000
108042.000000
108678.000000
109295.000000
109897.000000
110500.000000
111111.000000
111727.000000
112342.000000
112948.000000
113534.000000
114117.000000
114711.000000
115327.000000
115980.000000
116662.000000
117371.000000
118075.000000
118764.000000
119433.000000
120085.000000
120723.000000
121346.000000
121957.000000
122568.000000
123180.000000
123798.000000
124419.000000
125038.000000
125659.000000
126275.000000
126896.000000
127530.000000
128179.000000
128843.000000
129541.000000
130281.000000
131013.000000
131719.000000
132405.000000
133069.000000
133715.000000
134346.000000
134968.000000
135580.000000
136192.000000
136812.000000
137439.000000
138074.000000
138708.000000
139341.000000
139975.000000
140607.000000
141253.000000
141944.000000
142695.000000
143439.000000
144161.000000
144851.000000
145524.000000
146172.000000
146803.000000
147428.000000
148046.000000
148662.000000
149286.000000
149919.000000
150565.000000
151221.000000
151886.000000
152568.000000
153286.000000
154015.000000
154718.000000
155393.000000
156048.000000
156685.000000
157295.000000
157887.000000
158461.000000
159020.000000
159571.000000
160124.000000
160695.000000
161278.000000
161884.000000
162494.000000
163107.000000
163733.000000
164394.000000
165057.000000
165715.000000
166360.000000
166991.000000
167608.000000
168219.000000
168824.000000
169421.000000
170016.000000
170606.000000
171203.000000
171803.000000
172408.000000
173011.000000
173627.000000
174259.000000
174912.000000
175586.000000
176316.000000
177173.000000
177949.000000
178675.000000
179368.000000
180036.000000
180690.000000
181324.000000
181946.000000
182559.000000
183172.000000
183791.000000
184410.000000
185044.000000
185690.000000
186337.000000
186983.000000
187631.000000
188268.000000
188891.000000
189505.000000
190120.000000
190744.000000
191401.000000
192080.000000
192770.000000
193453.000000
194126.000000
194783.000000
195426.000000
196050.000000
196662.000000
197269.000000
197884.000000
198495.000000
199114.000000
199741.000000
200386.000000
201075.000000
201807.000000
202536.000000
203249.000000
203941.000000
204603.000000
205246.000000
205869.000000
206480.000000
207087.000000
207692.000000
208298.000000
208915.000000
209542.000000
210173.000000
210807.000000
211442.000000
212088.000000
212757.000000
213425.000000
214090.000000
214742.000000
215379.000000
216013.000000
216632.000000
217241.000000
217841.000000
218434.000000
219026.000000
219622.000000
220231.000000
220874.000000
221549.000000
222228.000000
222905.000000
223572.000000
224226.000000
224858.000000
225478.000000
226087.000000
226688.000000
227292.000000
227902.000000
228525.000000
229156.000000
229797.000000
230440.000000
231075.000000
231708.000000
232331.000000
232942.000000
233554.000000
234172.000000
234820.000000
235490.000000
236165.000000
236839.000000
237499.000000
238142.000000
238772.000000
239396.000000
240004.000000
240601.000000
241185.000000
241764.000000
242346.000000
242915.000000
243481.000000
244062.000000
244658.000000
245305.000000
246019.000000
246758.000000
247488.000000
248198.000000
248888.000000
249555.000000
250206.000000
250845.000000
251471.000000
252094.000000
252722.000000
253385.000000
254150.000000
255157.000000
256062.000000
256870.000000
257624.000000
258335.000000
259012.000000
259665.000000
260296.000000
260917.000000
261531.000000
262151.000000
262779.000000
263420.000000
264099.000000
264880.000000
265911.000000
266784.000000
267578.000000
268316.000000
269012.000000
269677.000000
270314.000000
270933.000000
271545.000000
272156.000000
272766.000000
273379.000000
274002.000000
274632.000000
275286.000000
275978.000000
276739.000000
277509.000000
278242.000000
278945.000000
279625.000000
280279.000000
280903.000000
281512.000000
282112.000000
282716.000000
283331.000000
283953.000000
284595.000000
285253.000000
285925.000000
286625.000000
287379.000000
288198.000000
289033.000000
289813.000000
290551.000000
291259.000000
291942.000000
292605.000000
293250.000000
293886.000000
294513.000000
295138.000000
295765.000000
296397.000000
297023.000000
297644.000000
298264.000000
298888.000000
299524.000000
300195.000000
300902.000000
301722.000000
302517.000000
303259.000000
303963.000000
304638.000000
305290.000000
305922.000000
306537.000000
307142.000000
307743.000000
308349.000000
308942.000000
309522.000000
310103.000000
310703.000000
311315.000000
311934.000000
312560.000000
313189.000000
313825.000000
314498.000000
315225.000000
315977.000000
316709.000000
317413.000000
318095.000000
318757.000000
319403.000000
320030.000000
320649.000000
321263.000000
321877.000000
322498.000000
323137.000000
323794.000000
324442.000000
325089.000000
325727.000000
326359.000000
326983.000000
327609.000000
328238.000000
328881.000000
329560.000000
330286.000000
330994.000000
331688.000000
332368.000000
333030.000000
333678.000000
334319.000000
334946.000000
335564.000000
336178.000000
336782.000000
337369.000000
337958.000000
338536.000000
339105.000000
339678.000000
340267.000000
340880.000000
341526.000000
342195.000000
342897.000000
343593.000000
344270.000000
344934.000000
345583.000000
346227.000000
346864.000000
347487.000000
348106.000000
348729.000000
349355.000000
349987.000000
350624.000000
351273.000000
351928.000000
352597.000000
353301.000000
354011.000000
354713.000000
355403.000000
356074.000000
356729.000000
357368.000000
357993.000000
358611.000000
359226.000000
359835.000000
360457.000000
361083.000000
361720.000000
362383.000000
363089.000000
363807.000000
364511.000000
365199.000000
365872.000000
366527.000000
367168.000000
367787.000000
368400.000000
369009.000000
369617.000000
370228.000000
370850.000000
371474.000000
372117.000000
372779.000000
373458.000000
374152.000000
374854.000000
375548.000000
376230.000000
376894.000000
377538.000000
378171.000000
378794.000000
379411.000000
380021.000000
380616.000000
381198.000000
381778.000000
382370.000000
382978.000000
383657.000000
384376.000000
385106.000000
385819.000000
386520.000000
387213.000000
387887.000000
388549.000000
389200.000000
389842.000000
390478.000000
391114.000000
391761.000000
392435.000000
393138.000000
393952.000000
394759.000000
395541.000000
396291.000000
397030.000000
397729.000000
398404.000000
399062.000000
399705.000000
400345.000000
400983.000000
401636.000000
402292.000000
402953.000000
403618.000000
404317.000000
405038.000000
405764.000000
406479.000000
407169.000000
407835.000000
408487.000000
409126.000000
409755.000000
410374.000000
410994.000000
411617.000000
412250.000000
412896.000000
413574.000000
414265.000000
414987.000000
415722.000000
416441.000000
417143.000000
417824.000000
418516.000000
419185.000000
419832.000000
420463.000000
421082.000000
421696.000000
422316.000000
422937.000000
423583.000000
424285.000000
425094.000000
426155.000000
427038.000000
427838.000000
428584.000000
429288.000000
429966.000000
430623.000000
431254.000000
431868.000000
432463.000000
433048.000000
433633.000000
434238.000000
434858.000000
435507.000000
436178.000000
436888.000000
437672.000000
438615.000000
439481.000000
440288.000000
441033.000000
441749.000000
442436.000000
443097.000000
443735.000000
444361.000000
444983.000000
445603.000000
446225.000000
446851.000000
447494.000000
448145.000000
448816.000000
449512.000000
450232.000000
451038.000000
451859.000000
452633.000000
453367.000000
454069.000000
454744.000000
455396.000000
456029.000000
456644.000000
457246.000000
457831.000000
458408.000000
458992.000000
459587.000000
460211.000000
460866.000000
461540.000000
462219.000000
462908.000000
463614.000000
464405.000000
465203.000000
465946.000000
466658.000000
467341.000000
467995.000000
468626.000000
469243.000000
469862.000000
470486.000000
471119.000000
471771.000000
472430.000000
473087.000000
473747.000000
474399.000000
475047.000000
475692.000000
476337.000000
477006.000000
477707.000000
478424.000000
479135.000000
479831.000000
480510.000000
481174.000000
481823.000000
482458.000000
483088.000000
483718.000000
484357.000000
485003.000000
485661.000000
486331.000000
486988.000000
487643.000000
488299.000000
488960.000000
489646.000000
490345.000000
491049.000000
491751.000000
492441.000000
493112.000000
493768.000000
494409.000000
495044.000000
495679.000000
496319.000000
496960.000000
497604.000000
498255.000000
498916.000000
499595.000000
500329.000000
501061.000000
501778.000000
502473.000000
503148.000000
503799.000000
504431.000000
505051.000000
505652.000000
506242.000000
506826.000000
507413.000000
508006.000000
508589.000000
509169.000000
509761.000000
510374.000000
511005.000000
511685.000000
512364.000000
513026.000000
513681.000000
514324.000000
514953.000000
515572.000000
516181.000000
516789.000000
517392.000000
517995.000000
518598.000000
519205.000000
519828.000000
520490.000000
521177.000000
521871.000000
522589.000000
523302.000000
524001.000000
524686.000000
525357.000000
526012.000000
526646.000000
527266.000000
527883.000000
528500.000000
529121.000000
529760.000000
530425.000000
531112.000000
531794.000000
532479.000000
533154.000000
533834.000000
534527.000000
535250.000000
535964.000000
536671.000000
537363.000000
538043.000000
538716.000000
539375.000000
540027.000000
540677.000000
541317.000000
541955.000000
542595.000000
543237.000000
543886.000000
544535.000000
545188.000000
545847.000000
546522.000000
547206.000000
547884.000000
548550.000000
549209.000000
549845.000000
550469.000000
551078.000000
551679.000000
552278.000000
552875.000000
553477.000000
554084.000000
554696.000000
555320.000000
555948.000000
556587.000000
557246.000000
557926.000000
558609.000000
559285.000000
559950.000000
560605.000000
561243.000000
561869.000000
562490.000000
563105.000000
563720.000000
564334.000000
564948.000000
565562.000000
566180.000000
566810.000000
567470.000000
568155.000000
568850.000000
569541.000000
570224.000000
570899.000000
571551.000000
572194.000000
572824.000000
573446.000000
574061.000000
574672.000000
575280.000000
575891.000000
576519.000000
577166.000000
577849.000000
578585.000000
579413.000000
580215.000000
580967.000000
581683.000000
582376.000000
583054.000000
583722.000000
584378.000000
585035.000000
585687.000000
586341.000000
587001.000000
587660.000000
588320.000000
588986.000000
589651.000000
590327.000000
591021.000000
591732.000000
592438.000000
593135.000000
593823.000000
594496.000000
595153.000000
595800.000000
596438.000000
597067.000000
597695.000000
598323.000000
598957.000000
599604.000000
600272.000000
601004.000000
601744.000000
602470.000000
603169.000000
603848.000000
604509.000000
605147.000000
605773.000000
606393.000000
607009.000000
607631.000000
608253.000000
608878.000000
609506.000000
610142.000000
610789.000000
611445.000000
612132.000000
612902.000000
613844.000000
614702.000000
615473.000000
616203.000000
616893.000000
617556.000000
618191.000000
618803.000000
619403.000000
619987.000000
620567.000000
621166.000000
621799.000000
622475.000000
623188.000000
623986.000000
624875.000000
625719.000000
626481.000000
627206.000000
627905.000000
628577.000000
629225.000000
629862.000000
630501.000000
631138.000000
631774.000000
632418.000000
633068.000000
633717.000000
634368.000000
635046.000000
635745.000000
636444.000000
637129.000000
637806.000000
638470.000000
639119.000000
639757.000000
640392.000000
641025.000000
641669.000000
642337.000000
643025.000000
643726.000000
644420.000000
645102.000000
645771.000000
646434.000000
647101.000000
647770.000000
648449.000000
649119.000000
649793.000000
650472.000000
651132.000000
651791.000000
652442.000000
653090.000000
653756.000000
654445.000000
655136.000000
655829.000000
656509.000000
657184.000000
657846.000000
658502.000000
659150.000000
659784.000000
660424.000000
661071.000000
661733.000000
662408.000000
663089.000000
663760.000000
664436.000000
665106.000000
665764.000000
666420.000000
667068.000000
667707.000000
668346.000000
668990.000000
669652.000000
670339.000000
671033.000000
671731.000000
672437.000000
673166.000000
673858.000000
674535.000000
675203.000000
675889.000000
676596.000000
677314.000000
678036.000000
678745.000000
679445.000000
680130.000000
680807.000000
681478.000000
682127.000000
682771.000000
683417.000000
684086.000000
684839.000000
685753.000000
686704.000000
687555.000000
688344.000000
689080.000000
689793.000000
690487.000000
691162.000000
691818.000000
692468.000000
693115.000000
693769.000000
694429.000000
695091.000000
695757.000000
696432.000000
697143.000000
697919.000000
698706.000000
699472.000000
700199.000000
700897.000000
701564.000000
702212.000000
702844.000000
703469.000000
704093.000000
704724.000000
705369.000000
706057.000000
706781.000000
707504.000000
708215.000000
708909.000000
709575.000000
710223.000000
710859.000000
711488.000000
712130.000000
712792.000000
713476.000000
714179.000000
714871.000000
715553.000000
716225.000000
716887.000000
717537.000000
718175.000000
718806.000000
719432.000000
720085.000000
720768.000000
721492.000000
722215.000000
722941.000000
723669.000000
724371.000000
725051.000000
725718.000000
726371.000000
727017.000000
727653.000000
728297.000000
728957.000000
729689.000000
730671.000000
731560.000000
732339.000000
733073.000000
733775.000000
734456.000000
735114.000000
735742.000000
736347.000000
736939.000000
737538.000000
738156.000000
738808.000000
739531.000000
740312.000000
741067.000000
741789.000000
742485.000000
743162.000000
743820.000000
744466.000000
745110.000000
745751.000000
746389.000000
747036.000000
747691.000000
748364.000000
749058.000000
749880.000000
750691.000000
751455.000000
752180.000000
752877.000000
753550.000000
754207.000000
754848.000000
755476.000000
756102.000000
756725.000000
757349.000000
757985.000000
758633.000000
759311.000000
760021.000000
760843.000000
761701.000000
762480.000000
763210.000000
763908.000000
764578.000000
765223.000000
765848.000000
766468.000000
767087.000000
767707.000000
768339.000000
768978.000000
769620.000000
770273.000000
770941.000000
771622.000000
772335.000000
773056.000000
773764.000000
774456.000000
775126.000000
775779.000000
776416.000000
777042.000000
777661.000000
778272.000000
778886.000000
779512.000000
780194.000000
780971.000000
781893.000000
782715.000000
783491.000000
784223.000000
784919.000000
785588.000000
786230.000000
786856.000000
787463.000000
788060.000000
788657.000000
789241.000000
789822.000000
790418.000000
791039.000000
791714.000000
792439.000000
793169.000000
793879.000000
794566.000000
795228.000000
795873.000000
796503.000000
797123.000000
797739.000000
798351.000000
798972.000000
799622.000000
800328.000000
801060.000000
801785.000000
802511.000000
803232.000000
803930.000000
804599.000000
805252.000000
805895.000000
806524.000000
807148.000000
807776.000000
808430.000000
809145.000000
809886.000000
810628.000000
811367.000000
812097.000000
812800.000000
813478.000000
814129.000000
814766.000000
815401.000000
816070.000000
816797.000000
817569.000000
818351.000000
819115.000000
819854.000000
820569.000000
821270.000000
821951.000000
822613.000000
823271.000000
823934.000000
824654.000000
825445.000000
826235.000000
827003.000000
827746.000000
828457.000000
829152.000000
829826.000000
830489.000000
831145.000000
831797.000000
832454.000000
833158.000000
833922.000000
834688.000000
835449.000000
836176.000000
836881.000000
837565.000000
838236.000000
838892.000000
839536.000000
840175.000000
840813.000000
841452.000000
842093.000000
842764.000000
843473.000000
844193.000000
844893.000000
845580.000000
846251.000000
846909.000000
847552.000000
848185.000000
848816.000000
849452.000000
850097.000000
850751.000000
851415.000000
852082.000000
852751.000000
853417.000000
854071.000000
854717.000000
855356.000000
855986.000000
856624.000000
857273.000000
857930.000000
858596.000000
859262.000000
859927.000000
860594.000000
861249.000000
861898.000000
862539.000000
863174.000000
863809.000000
864440.000000
865073.000000
865709.000000
866370.000000
867057.000000
867759.000000
868448.000000
869138.000000
869807.000000
870461.000000
871105.000000
871738.000000
872365.000000
872988.000000
873609.000000
874229.000000
874856.000000
875507.000000
876218.000000
877093.000000
878045.000000
878980.000000
879782.000000
880518.000000
881218.000000
881890.000000
882540.000000
883174.000000
883806.000000
884445.000000
885099.000000
885796.000000
886592.000000
887494.000000
888316.000000
889088.000000
889820.000000
890522.000000
891203.000000
891862.000000
892508.000000
893144.000000
893779.000000
894414.000000
895042.000000
895674.000000
896318.000000
