ECG (ms)
173.000000
1083.000000
2023.000000
2977.000000
3934.000000
4872.000000
5826.000000
6751.000000
7704.000000
8617.000000
9525.000000
10471.000000
11391.000000
12298.000000
13243.000000
14181.000000
15096.000000
16008.000000
16879.000000
17747.000000
18570.000000
19385.000000
20204.000000
20998.000000
21764.000000
22576.000000
23353.000000
24146.000000
24956.000000
25805.000000
26702.000000
27540.000000
28397.000000
29246.000000
30068.000000
30879.000000
31691.000000
32483.000000
33285.000000
34072.000000
34876.000000
35655.000000
36456.000000
37256.000000
38048.000000
38834.000000
39632.000000
40447.000000
41271.000000
42103.000000
42947.000000
43819.000000
44681.000000
45533.000000
46415.000000
47287.000000
48150.000000
49034.000000
49881.000000
50740.000000
51590.000000
52429.000000
53258.000000
54072.000000
54882.000000
55713.000000
56534.000000
57363.000000
58200.000000
59045.000000
59882.000000
60713.000000
61563.000000
62422.000000
63260.000000
64121.000000
64981.000000
65821.000000
66640.000000
67453.000000
68245.000000
69036.000000
69818.000000
70596.000000
71369.000000
72140.000000
72914.000000
73659.000000
74341.000000
75139.000000
76000.000000
76867.000000
77728.000000
78596.000000
79473.000000
80342.000000
81198.000000
82030.000000
82851.000000
83668.000000
84451.000000
85240.000000
86049.000000
86886.000000
87714.000000
88617.000000
89493.000000
90395.000000
91278.000000
92155.000000
93011.000000
93853.000000
94666.000000
95499.000000
96345.000000
97238.000000
98128.000000
99023.000000
99969.000000
100906.000000
101870.000000
102830.000000
103818.000000
104736.000000
105624.000000
106533.000000
107418.000000
108274.000000
109098.000000
109933.000000
110786.000000
111638.000000
112494.000000
113339.000000
114166.000000
114988.000000
115788.000000
116594.000000
117386.000000
118191.000000
118993.000000
119817.000000
120649.000000
121449.000000
122207.000000
123013.000000
123827.000000
124665.000000
125495.000000
126321.000000
127136.000000
127956.000000
128791.000000
129611.000000
130444.000000
131302.000000
132180.000000
133050.000000
133963.000000
134835.000000
135665.000000
136506.000000
137389.000000
138252.000000
139141.000000
140030.000000
140914.000000
141787.000000
142619.000000
143481.000000
144371.000000
145239.000000
146108.000000
147010.000000
147902.000000
148768.000000
149654.000000
150536.000000
151383.000000
152199.000000
153020.000000
153809.000000
154637.000000
155456.000000
156325.000000
157170.000000
158025.000000
158864.000000
159716.000000
160555.000000
161386.000000
162188.000000
163005.000000
163813.000000
164606.000000
165436.000000
166260.000000
167106.000000
167940.000000
168788.000000
169650.000000
170520.000000
171390.000000
172244.000000
173067.000000
173907.000000
174764.000000
175599.000000
176476.000000
177359.000000
178241.000000
179116.000000
179637.000000
180808.000000
181605.000000
182333.000000
183103.000000
183894.000000
184801.000000
185669.000000
186534.000000
187386.000000
188261.000000
189198.000000
190101.000000
190985.000000
191834.000000
192685.000000
193509.000000
194299.000000
195066.000000
195898.000000
196737.000000
197572.000000
198457.000000
199328.000000
200220.000000
201099.000000
201991.000000
202838.000000
203689.000000
204531.000000
205349.000000
206165.000000
206984.000000
207845.000000
208691.000000
209531.000000
210383.000000
211235.000000
212094.000000
212943.000000
213764.000000
214593.000000
215401.000000
216183.000000
216990.000000
217808.000000
218644.000000
219474.000000
220282.000000
221112.000000
221953.000000
222806.000000
223626.000000
224459.000000
225320.000000
226167.000000
226999.000000
227812.000000
228588.000000
229379.000000
230207.000000
231069.000000
231940.000000
232818.000000
233707.000000
234597.000000
235455.000000
236295.000000
237142.000000
237698.000000
238855.000000
239660.000000
240409.000000
241205.000000
242090.000000
243017.000000
243874.000000
244741.000000
245627.000000
246495.000000
247367.000000
248240.000000
249102.000000
249992.000000
250896.000000
251784.000000
252646.000000
253533.000000
254410.000000
255316.000000
256199.000000
257084.000000
257949.000000
258785.000000
259606.000000
260417.000000
261239.000000
262072.000000
262937.000000
263799.000000
264650.000000
265500.000000
266315.000000
267114.000000
267924.000000
268754.000000
269608.000000
270493.000000
271352.000000
272189.000000
273027.000000
273842.000000
274665.000000
275484.000000
276292.000000
277094.000000
277872.000000
278648.000000
279346.000000
280287.000000
281145.000000
281967.000000
282803.000000
283607.000000
284390.000000
285215.000000
286063.000000
286908.000000
287791.000000
288650.000000
289546.000000
290475.000000
291351.000000
292238.000000
293149.000000
294050.000000
294977.000000
295910.000000
296855.000000
297785.000000
298713.000000
299636.000000
300579.000000
301503.000000
302427.000000
303363.000000
304276.000000
305229.000000
306167.000000
307107.000000
308077.000000
309061.000000
310042.000000
311068.000000
312071.000000
313111.000000
314101.000000
315030.000000
316015.000000
317031.000000
318002.000000
319050.000000
320109.000000
321079.000000
322099.000000
323144.000000
324118.000000
325136.000000
326116.000000
327058.000000
328067.000000
329120.000000
330128.000000
331152.000000
332142.000000
333129.000000
334165.000000
335149.000000
336149.000000
337136.000000
338124.000000
339132.000000
340167.000000
341124.000000
342151.000000
343197.000000
344159.000000
345166.000000
346176.000000
347131.000000
348136.000000
349134.000000
350128.000000
351174.000000
352163.000000
353078.000000
354074.000000
355081.000000
356046.000000
357064.000000
358082.000000
359029.000000
359983.000000
360939.000000
361864.000000
362831.000000
363770.000000
364680.000000
365611.000000
366523.000000
367417.000000
368336.000000
368900.000000
370155.000000
371044.000000
371972.000000
372934.000000
373792.000000
374687.000000
375596.000000
376500.000000
377433.000000
378385.000000
379310.000000
380234.000000
381169.000000
382072.000000
383001.000000
383996.000000
384940.000000
385913.000000
386899.000000
387847.000000
388807.000000
389769.000000
390705.000000
391692.000000
392733.000000
393701.000000
394700.000000
395732.000000
396685.000000
397671.000000
398634.000000
399560.000000
400579.000000
401589.000000
402537.000000
403499.000000
404420.000000
405324.000000
406277.000000
407248.000000
408159.000000
409146.000000
410276.000000
411252.000000
412257.000000
413230.000000
414208.000000
415184.000000
416156.000000
417169.000000
418175.000000
419139.000000
420169.000000
421171.000000
422185.000000
423198.000000
424146.000000
425103.000000
426084.000000
427023.000000
427991.000000
428953.000000
429870.000000
430817.000000
431735.000000
432634.000000
433546.000000
434458.000000
435363.000000
436312.000000
437247.000000
438167.000000
439161.000000
440148.000000
441100.000000
442084.000000
443041.000000
444015.000000
445049.000000
446013.000000
447005.000000
448047.000000
449021.000000
450060.000000
451087.000000
452074.000000
453101.000000
454143.000000
455111.000000
456085.000000
457066.000000
458049.000000
459054.000000
460107.000000
461085.000000
462074.000000
463072.000000
464046.000000
465048.000000
466064.000000
467028.000000
468046.000000
469074.000000
470058.000000
471058.000000
472048.000000
473005.000000
473951.000000
474904.000000
475837.000000
476752.000000
477677.000000
478622.000000
479552.000000
480522.000000
481490.000000
482488.000000
483470.000000
484424.000000
485352.000000
486281.000000
487196.000000
488087.000000
489003.000000
489906.000000
490784.000000
491666.000000
492555.000000
493473.000000
494364.000000
495278.000000
496161.000000
497039.000000
497938.000000
498822.000000
499715.000000
500625.000000
501505.000000
502382.000000
503278.000000
504182.000000
505062.000000
505936.000000
506852.000000
507732.000000
508660.000000
509614.000000
510507.000000
511411.000000
512313.000000
513209.000000
514123.000000
515038.000000
515982.000000
516926.000000
517870.000000
518794.000000
519787.000000
520776.000000
521725.000000
522705.000000
523691.000000
524648.000000
525611.000000
526554.000000
527440.000000
528386.000000
529312.000000
530229.000000
531207.000000
532184.000000
533091.000000
534051.000000
535006.000000
535912.000000
536849.000000
537847.000000
538755.000000
539720.000000
540686.000000
541595.000000
542516.000000
543439.000000
544338.000000
545252.000000
546200.000000
547148.000000
548129.000000
549157.000000
550084.000000
551017.000000
551938.000000
552825.000000
553749.000000
554648.000000
555528.000000
556444.000000
557389.000000
558295.000000
559197.000000
560123.000000
561021.000000
561943.000000
562887.000000
563797.000000
564744.000000
565695.000000
566594.000000
567430.000000
568349.000000
569247.000000
570206.000000
571154.000000
572095.000000
573062.000000
574009.000000
574948.000000
575909.000000
576906.000000
577845.000000
578803.000000
579753.000000
580724.000000
581738.000000
582774.000000
583735.000000
584761.000000
585789.000000
586778.000000
587792.000000
588765.000000
589690.000000
590706.000000
591744.000000
592697.000000
593674.000000
594646.000000
595607.000000
596606.000000
597627.000000
598612.000000
599619.000000
600609.000000
601578.000000
602545.000000
603529.000000
604509.000000
605528.000000
606503.000000
607463.000000
608457.000000
609427.000000
610345.000000
611299.000000
612252.000000
613145.000000
614098.000000
615046.000000
615966.000000
616907.000000
617862.000000
618814.000000
619706.000000
620640.000000
621545.000000
622445.000000
623370.000000
624327.000000
625247.000000
626139.000000
627035.000000
627936.000000
628814.000000
629706.000000
630654.000000
631558.000000
632454.000000
633363.000000
634271.000000
635149.000000
636049.000000
636953.000000
637826.000000
638726.000000
639694.000000
640639.000000
641585.000000
642533.000000
643448.000000
644382.000000
645333.000000
646257.000000
647234.000000
648171.000000
649054.000000
649966.000000
650913.000000
651811.000000
652718.000000
653662.000000
654582.000000
655522.000000
656466.000000
657372.000000
658292.000000
659214.000000
660117.000000
661004.000000
661904.000000
662797.000000
663668.000000
664555.000000
665449.000000
666323.000000
667225.000000
668136.000000
669046.000000
669924.000000
670820.000000
671725.000000
672597.000000
673503.000000
674429.000000
675309.000000
676195.000000
677098.000000
677631.000000
678842.000000
679788.000000
680646.000000
681509.000000
682398.000000
683274.000000
684118.000000
684994.000000
685932.000000
686833.000000
687831.000000
688801.000000
689719.000000
690645.000000
691611.000000
692524.000000
693455.000000
694356.000000
695233.000000
696117.000000
697039.000000
697926.000000
698835.000000
699742.000000
700621.000000
701505.000000
702425.000000
703336.000000
704223.000000
705130.000000
706042.000000
706924.000000
707833.000000
708749.000000
709654.000000
710581.000000
711522.000000
712419.000000
713356.000000
714291.000000
715188.000000
716078.000000
717000.000000
717878.000000
718793.000000
719783.000000
720730.000000
721639.000000
722575.000000
723527.000000
724478.000000
725444.000000
726420.000000
727370.000000
728354.000000
729321.000000
730234.000000
731154.000000
732065.000000
732961.000000
733859.000000
734776.000000
735687.000000
736644.000000
737584.000000
738523.000000
739475.000000
740444.000000
741395.000000
742389.000000
743377.000000
744282.000000
745217.000000
746146.000000
747033.000000
747939.000000
748804.000000
749666.000000
750556.000000
751467.000000
752357.000000
753244.000000
754125.000000
754975.000000
755830.000000
756703.000000
757583.000000
758448.000000
759340.000000
760237.000000
761115.000000
762007.000000
762900.000000
763771.000000
764653.000000
765566.000000
766479.000000
767363.000000
768260.000000
769140.000000
770005.000000
770874.000000
771738.000000
772576.000000
773435.000000
774316.000000
775224.000000
776097.000000
776998.000000
777897.000000
778776.000000
779667.000000
780562.000000
781417.000000
782290.000000
783219.000000
784121.000000
784991.000000
785886.000000
786746.000000
787600.000000
788507.000000
789409.000000
790286.000000
791222.000000
792154.000000
793066.000000
793975.000000
794870.000000
795730.000000
796629.000000
797512.000000
798355.000000
799217.000000
800105.000000
800978.000000
801845.000000
802756.000000
803668.000000
804547.000000
805470.000000
806381.000000
807267.000000
808167.000000
809105.000000
810022.000000
810929.000000
811849.000000
812737.000000
813609.000000
814517.000000
815411.000000
816272.000000
817157.000000
818070.000000
818968.000000
819838.000000
820743.000000
821643.000000
822512.000000
823390.000000
824280.000000
825140.000000
826003.000000
826898.000000
827774.000000
828636.000000
829526.000000
830408.000000
831275.000000
832161.000000
833035.000000
833887.000000
834739.000000
835620.000000
836482.000000
837339.000000
838194.000000
839087.000000
839960.000000
840861.000000
841764.000000
842625.000000
843504.000000
844031.000000
845227.000000
845970.000000
846704.000000
847574.000000
848586.000000
849493.000000
850346.000000
851249.000000
852134.000000
853007.000000
853935.000000
854843.000000
855873.000000
856875.000000
857804.000000
858767.000000
859732.000000
860711.000000
861741.000000
862731.000000
863715.000000
864708.000000
865665.000000
866597.000000
867555.000000
868491.000000
869392.000000
870330.000000
871270.000000
872181.000000
873120.000000
874062.000000
874980.000000
875893.000000
876830.000000
877751.000000
878676.000000
879629.000000
880564.000000
881499.000000
882447.000000
883404.000000
884364.000000
885391.000000
886413.000000
887338.000000
888287.000000
889135.000000
889974.000000
890801.000000
891599.000000
892349.000000
893297.000000
894198.000000
895139.000000
896101.000000
897065.000000
898109.000000
899149.000000
900172.000000
901169.000000
902242.000000
903275.000000
904307.000000
905362.000000
906387.000000
907443.000000
908542.000000
909585.000000
910660.000000
911731.000000
912743.000000
913767.000000
914804.000000
915810.000000
916843.000000
917916.000000
918931.000000
919932.000000
920934.000000
921927.000000
922970.000000
923977.000000
924984.000000
926018.000000
927025.000000
927991.000000
928919.000000
929812.000000
930650.000000
931497.000000
932478.000000
933382.000000
934345.000000
935340.000000
936310.000000
937374.000000
938413.000000
939388.000000
940405.000000
941413.000000
942408.000000
943453.000000
944516.000000
945483.000000
946466.000000
947491.000000
948428.000000
949406.000000
950399.000000
951381.000000
952382.000000
953382.000000
954401.000000
955438.000000
956472.000000
957461.000000
958481.000000
959514.000000
960495.000000
961493.000000
962469.000000
963422.000000
964421.000000
965404.000000
966346.000000
967328.000000
968309.000000
969247.000000
970222.000000
971163.000000
972123.000000
973056.000000
974032.000000
974979.000000
975937.000000
976952.000000
977924.000000
978913.000000
979893.000000
980864.000000
981879.000000
982926.000000
983903.000000
984922.000000
985944.000000
986918.000000
987913.000000
988921.000000
989871.000000
990834.000000
991779.000000
992681.000000
993573.000000
994471.000000
995372.000000
996253.000000
997157.000000
998081.000000
998973.000000
999860.000000
1000749.000000
1001638.000000
1002550.000000
1003463.000000
1004370.000000
1005237.000000
1006115.000000
1007003.000000
1007891.000000
1008818.000000
1009732.000000
1010612.000000
1011474.000000
1012372.000000
1013250.000000
1014096.000000
1014948.000000
1015804.000000
1016663.000000
1017524.000000
1018384.000000
1019233.000000
1020086.000000
1020935.000000
1021742.000000
1022559.000000
1023398.000000
1024231.000000
1025052.000000
1025923.000000
1026783.000000
1027612.000000
1028420.000000
1029268.000000
1030111.000000
1030951.000000
1031818.000000
1032685.000000
1033532.000000
1034387.000000
1035243.000000
1036070.000000
1036902.000000
1037739.000000
1038581.000000
1039400.000000
1040238.000000
1041082.000000
1041934.000000
1042792.000000
1043659.000000
1044548.000000
1045401.000000
1046291.000000
1047189.000000
1048061.000000
1048924.000000
1049802.000000
1050714.000000
1051585.000000
1052487.000000
1053406.000000
1054281.000000
1055144.000000
1056028.000000
1056892.000000
1057761.000000
1058644.000000
1059517.000000
1060384.000000
1061256.000000
1062151.000000
1062997.000000
1063864.000000
1064720.000000
1065544.000000
1066373.000000
1067196.000000
1068039.000000
1068861.000000
1069677.000000
1070529.000000
1071366.000000
1072204.000000
1073071.000000
1073938.000000
1074782.000000
1075649.000000
1076521.000000
1077371.000000
1078242.000000
1079109.000000
1079973.000000
1080831.000000
1081708.000000
1082579.000000
1083424.000000
1084305.000000
1085190.000000
1086045.000000
1086924.000000
1087847.000000
1088727.000000
1089596.000000
1090473.000000
1091330.000000
1092182.000000
1093094.000000
1093997.000000
1094869.000000
1095765.000000
1096666.000000
1097524.000000
1098365.000000
1099190.000000
1100031.000000
1100873.000000
1101763.000000
1102659.000000
1103524.000000
1104420.000000
1105350.000000
1106255.000000
1107183.000000
1108143.000000
1109053.000000
1109956.000000
1110878.000000
1111814.000000
1112746.000000
1113694.000000
1114613.000000
1115505.000000
1116438.000000
1117366.000000
1118265.000000
1119169.000000
1120095.000000
1121006.000000
1121904.000000
1122843.000000
1123758.000000
1124663.000000
1125579.000000
1126478.000000
1127347.000000
1128241.000000
1129145.000000
1130028.000000
1130916.000000
1131851.000000
1132778.000000
1133687.000000
1134629.000000
1135568.000000
1136466.000000
1137372.000000
1138240.000000
1139115.000000
1140021.000000
1140914.000000
1141792.000000
1142653.000000
1143549.000000
1144434.000000
1145310.000000
1146197.000000
1147094.000000
1148005.000000
1148938.000000
1149861.000000
1150775.000000
1151705.000000
1152643.000000
1153535.000000
1154449.000000
1155371.000000
1156280.000000
1157187.000000
1158118.000000
1159036.000000
1159946.000000
1160886.000000
1161845.000000
1162793.000000
1163705.000000
1164613.000000
1165219.000000
1166399.000000
1167255.000000
1168106.000000
1168957.000000
1169840.000000
1170774.000000
1171699.000000
1172641.000000
1173618.000000
1174568.000000
1175502.000000
1176449.000000
1177396.000000
1178309.000000
1179254.000000
1180205.000000
1181133.000000
1182073.000000
1183035.000000
1183951.000000
1184887.000000
1185847.000000
1186786.000000
1187694.000000
1188648.000000
1189618.000000
1190578.000000
1191554.000000
1192609.000000
1193579.000000
1194578.000000
1195568.000000
1196598.000000
1197615.000000
1198659.000000
1199636.000000
1200670.000000
