ECG (ms)
-2.000000
912.000000
1853.000000
2819.000000
3770.000000
4639.000000
5533.000000
6428.000000
7354.000000
8259.000000
9156.000000
10147.000000
11160.000000
12132.000000
13063.000000
14064.000000
15097.000000
16090.000000
17015.000000
17935.000000
18920.000000
19911.000000
20882.000000
21803.000000
22685.000000
23619.000000
24580.000000
25532.000000
26475.000000
27373.000000
28243.000000
29163.000000
30096.000000
31035.000000
31944.000000
32824.000000
33756.000000
34729.000000
35711.000000
36669.000000
37574.000000
38433.000000
39324.000000
40256.000000
41207.000000
42182.000000
43126.000000
44060.000000
44949.000000
45860.000000
46802.000000
47732.000000
48655.000000
49569.000000
50439.000000
51286.000000
52178.000000
53099.000000
54023.000000
54934.000000
55847.000000
56757.000000
57626.000000
58480.000000
59373.000000
60302.000000
61263.000000
62211.000000
63177.000000
64141.000000
65053.000000
65935.000000
66880.000000
67865.000000
68840.000000
69782.000000
70716.000000
71644.000000
72567.000000
73420.000000
74299.000000
75219.000000
76162.000000
77099.000000
77985.000000
78864.000000
79778.000000
80705.000000
81620.000000
82527.000000
83421.000000
84271.000000
85155.000000
86092.000000
87050.000000
87987.000000
88881.000000
89773.000000
90734.000000
91724.000000
92690.000000
93646.000000
94589.000000
95523.000000
96402.000000
97270.000000
98191.000000
99133.000000
100044.000000
100936.000000
101909.000000
102969.000000
104022.000000
105005.000000
105944.000000
106946.000000
107972.000000
108968.000000
109912.000000
110808.000000
111746.000000
112746.000000
113770.000000
114746.000000
115653.000000
116577.000000
117535.000000
118494.000000
119440.000000
120348.000000
121212.000000
122102.000000
123015.000000
123956.000000
124903.000000
125814.000000
126680.000000
127580.000000
128530.000000
129497.000000
130429.000000
131343.000000
132346.000000
133408.000000
134401.000000
135314.000000
136279.000000
137290.000000
138299.000000
139246.000000
140199.000000
141177.000000
142129.000000
143030.000000
143959.000000
144943.000000
145961.000000
146969.000000
147929.000000
148830.000000
149780.000000
150745.000000
151703.000000
152651.000000
153571.000000
154459.000000
155381.000000
156324.000000
157273.000000
158226.000000
159146.000000
160026.000000
160927.000000
161875.000000
162825.000000
163776.000000
164704.000000
165579.000000
166485.000000
167429.000000
168372.000000
169314.000000
170231.000000
171104.000000
171984.000000
172914.000000
173859.000000
174821.000000
175773.000000
176726.000000
177633.000000
178496.000000
179406.000000
180331.000000
181282.000000
182218.000000
183135.000000
184009.000000
184910.000000
185865.000000
186849.000000
187820.000000
188738.000000
189625.000000
190572.000000
191543.000000
192513.000000
193462.000000
194370.000000
195320.000000
196289.000000
197251.000000
198186.000000
199078.000000
199968.000000
200921.000000
201893.000000
202885.000000
203869.000000
204792.000000
205713.000000
206685.000000
207677.000000
208645.000000
209580.000000
210527.000000
211506.000000
212485.000000
213433.000000
214342.000000
215235.000000
216198.000000
217175.000000
218157.000000
219131.000000
220060.000000
220975.000000
221937.000000
222908.000000
223900.000000
224830.000000
225762.000000
226738.000000
227717.000000
228663.000000
229565.000000
230504.000000
231469.000000
232434.000000
233363.000000
234291.000000
235256.000000
236210.000000
237118.000000
238027.000000
238978.000000
239938.000000
240889.000000
241783.000000
242673.000000
243608.000000
244563.000000
245495.000000
246403.000000
247267.000000
248194.000000
249118.000000
250043.000000
250931.000000
251789.000000
252706.000000
253655.000000
254619.000000
255542.000000
256435.000000
257384.000000
258344.000000
259290.000000
260202.000000
261069.000000
261965.000000
262899.000000
263876.000000
264862.000000
265803.000000
266723.000000
267694.000000
268684.000000
269665.000000
270602.000000
271505.000000
272460.000000
273424.000000
274377.000000
275286.000000
276164.000000
277098.000000
278029.000000
278964.000000
279855.000000
280744.000000
281672.000000
282621.000000
283571.000000
284496.000000
285437.000000
286372.000000
287281.000000
288154.000000
289080.000000
290005.000000
290935.000000
291828.000000
292756.000000
293696.000000
294642.000000
295554.000000
296496.000000
297438.000000
298375.000000
299277.000000
300182.000000
301135.000000
302092.000000
303032.000000
303941.000000
304906.000000
305890.000000
306817.000000
307747.000000
308702.000000
309628.000000
310525.000000
311446.000000
312443.000000
313459.000000
314409.000000
315408.000000
316421.000000
317384.000000
318309.000000
319293.000000
320290.000000
321238.000000
322187.000000
323161.000000
324117.000000
325027.000000
325979.000000
326965.000000
327949.000000
328915.000000
329831.000000
330738.000000
331702.000000
332684.000000
333617.000000
334539.000000
335500.000000
336464.000000
337395.000000
338349.000000
339317.000000
340263.000000
341176.000000
342054.000000
342970.000000
343907.000000
344808.000000
345716.000000
346667.000000
347631.000000
348564.000000
349507.000000
350474.000000
351419.000000
352321.000000
353252.000000
354214.000000
355163.000000
356071.000000
356997.000000
357920.000000
358843.000000
359732.000000
360650.000000
361678.000000
362825.000000
363892.000000
364868.000000
365947.000000
367096.000000
368160.000000
369062.000000
369948.000000
370949.000000
371985.000000
373024.000000
374006.000000
375009.000000
376048.000000
377088.000000
378062.000000
379045.000000
380057.000000
381065.000000
382010.000000
382940.000000
383918.000000
384898.000000
385868.000000
386799.000000
387773.000000
388759.000000
389739.000000
390673.000000
391593.000000
392543.000000
393496.000000
394404.000000
395358.000000
396327.000000
397310.000000
398255.000000
399201.000000
400165.000000
401123.000000
402051.000000
402944.000000
403895.000000
404848.000000
405794.000000
406692.000000
407590.000000
408543.000000
409509.000000
410494.000000
411479.000000
412433.000000
413395.000000
414395.000000
415417.000000
416407.000000
417351.000000
418250.000000
419136.000000
420106.000000
421111.000000
422111.000000
423076.000000
424000.000000
424977.000000
425965.000000
426966.000000
427937.000000
428859.000000
429814.000000
430788.000000
431754.000000
432711.000000
433677.000000
434630.000000
435580.000000
436490.000000
437454.000000
438482.000000
439589.000000
440614.000000
441752.000000
443029.000000
444172.000000
445295.000000
446390.000000
447356.000000
448319.000000
449217.000000
450010.000000
450779.000000
451866.000000
452798.000000
453754.000000
454732.000000
455688.000000
456591.000000
457572.000000
458563.000000
459503.000000
460422.000000
461414.000000
462406.000000
463334.000000
464271.000000
465234.000000
466222.000000
467136.000000
468093.000000
469060.000000
470043.000000
470990.000000
471957.000000
472959.000000
473979.000000
474948.000000
475967.000000
476993.000000
478001.000000
478953.000000
479938.000000
480948.000000
481903.000000
482873.000000
483865.000000
484843.000000
485762.000000
486712.000000
487658.000000
488619.000000
489556.000000
490462.000000
491446.000000
492452.000000
493430.000000
494368.000000
495348.000000
496330.000000
497278.000000
498232.000000
499201.000000
500151.000000
501072.000000
502031.000000
503011.000000
504004.000000
504978.000000
505923.000000
506923.000000
507946.000000
508950.000000
509900.000000
510897.000000
511913.000000
512961.000000
513972.000000
514953.000000
515984.000000
517015.000000
518058.000000
519060.000000
520056.000000
521112.000000
522157.000000
523200.000000
524224.000000
525254.000000
526254.000000
527218.000000
528228.000000
529237.000000
530229.000000
531199.000000
532196.000000
533251.000000
534301.000000
535325.000000
536304.000000
537253.000000
538265.000000
539302.000000
540332.000000
541312.000000
542253.000000
543241.000000
544256.000000
545263.000000
546215.000000
547204.000000
548224.000000
549254.000000
550233.000000
551165.000000
552154.000000
553149.000000
554145.000000
555097.000000
556086.000000
557114.000000
558124.000000
559084.000000
560032.000000
561051.000000
562054.000000
563036.000000
563990.000000
564968.000000
565966.000000
566945.000000
567881.000000
568820.000000
569792.000000
570764.000000
571698.000000
572645.000000
573624.000000
574610.000000
575550.000000
576518.000000
577525.000000
578531.000000
579456.000000
580406.000000
581362.000000
582325.000000
583250.000000
584194.000000
585194.000000
586205.000000
587140.000000
588119.000000
589136.000000
590161.000000
591112.000000
592072.000000
593074.000000
595056.000000
595972.000000
596952.000000
597961.000000
598964.000000
599921.000000
600856.000000
601822.000000
602802.000000
603726.000000
604638.000000
605628.000000
606638.000000
607604.000000
608584.000000
609600.000000
610621.000000
611604.000000
612522.000000
613491.000000
614480.000000
615471.000000
616435.000000
617434.000000
618455.000000
619466.000000
620428.000000
621411.000000
622439.000000
623464.000000
624448.000000
625441.000000
626468.000000
627488.000000
628469.000000
629437.000000
630450.000000
631458.000000
632435.000000
633407.000000
634405.000000
635394.000000
636352.000000
637303.000000
638340.000000
639462.000000
640565.000000
641682.000000
642854.000000
644018.000000
645055.000000
646100.000000
647182.000000
648226.000000
649200.000000
650233.000000
651264.000000
652242.000000
653242.000000
654263.000000
655267.000000
656222.000000
657211.000000
658206.000000
659200.000000
660149.000000
661136.000000
662151.000000
663132.000000
664082.000000
665021.000000
666016.000000
667046.000000
668059.000000
669073.000000
670133.000000
671191.000000
672215.000000
673181.000000
674211.000000
675255.000000
676255.000000
677209.000000
678245.000000
679272.000000
680250.000000
681189.000000
682183.000000
683192.000000
684186.000000
685125.000000
686094.000000
687075.000000
688038.000000
688950.000000
689949.000000
690974.000000
692013.000000
692991.000000
693958.000000
694978.000000
695994.000000
696947.000000
697888.000000
698903.000000
699931.000000
700909.000000
701851.000000
702850.000000
703846.000000
704802.000000
705759.000000
706759.000000
707780.000000
708750.000000
709681.000000
710685.000000
711678.000000
712665.000000
713603.000000
714591.000000
715581.000000
716561.000000
717482.000000
718431.000000
719400.000000
720368.000000
721293.000000
722256.000000
723233.000000
724219.000000
725150.000000
726140.000000
727163.000000
728169.000000
729128.000000
730121.000000
731133.000000
732115.000000
733048.000000
734036.000000
735030.000000
736013.000000
736955.000000
737939.000000
738943.000000
739880.000000
740838.000000
741804.000000
742756.000000
743660.000000
744645.000000
745657.000000
746638.000000
747607.000000
748671.000000
749660.000000
750645.000000
751644.000000
752605.000000
753564.000000
754571.000000
755603.000000
756586.000000
757587.000000
758629.000000
759662.000000
760624.000000
761580.000000
762573.000000
763576.000000
764554.000000
765528.000000
766536.000000
767536.000000
768499.000000
769431.000000
770411.000000
771415.000000
772410.000000
773375.000000
774362.000000
775371.000000
776373.000000
777368.000000
778317.000000
779297.000000
780290.000000
781303.000000
782249.000000
783247.000000
784304.000000
785337.000000
786286.000000
787263.000000
788266.000000
789257.000000
790193.000000
791161.000000
792150.000000
793142.000000
794087.000000
795083.000000
796112.000000
797117.000000
798077.000000
798992.000000
799956.000000
800949.000000
801947.000000
802927.000000
803869.000000
804826.000000
805821.000000
806814.000000
807803.000000
808733.000000
809710.000000
810702.000000
811692.000000
812635.000000
813574.000000
814581.000000
815605.000000
816587.000000
817526.000000
818530.000000
819553.000000
820578.000000
821532.000000
822514.000000
823528.000000
824500.000000
825431.000000
826402.000000
827405.000000
828387.000000
829310.000000
830304.000000
831300.000000
832257.000000
833168.000000
834142.000000
835114.000000
836055.000000
836986.000000
837975.000000
838964.000000
839936.000000
840859.000000
841815.000000
842788.000000
843757.000000
844676.000000
845642.000000
846662.000000
847704.000000
848736.000000
849707.000000
850654.000000
851656.000000
852675.000000
853652.000000
854591.000000
855594.000000
856625.000000
857614.000000
858547.000000
859513.000000
860507.000000
861508.000000
862464.000000
863440.000000
864433.000000
865415.000000
866332.000000
867280.000000
868248.000000
869237.000000
870179.000000
871132.000000
872146.000000
873173.000000
874158.000000
875092.000000
876075.000000
877090.000000
878089.000000
879026.000000
879980.000000
880976.000000
881972.000000
882925.000000
883891.000000
884892.000000
885884.000000
886822.000000
887742.000000
888704.000000
889613.000000
890427.000000
891180.000000
892197.000000
893132.000000
894017.000000
894971.000000
895970.000000
896946.000000
897881.000000
898878.000000
899886.000000
900905.000000
901859.000000
902807.000000
903795.000000
904789.000000
905741.000000
906716.000000
907697.000000
908679.000000
909610.000000
910569.000000
911582.000000
912588.000000
913525.000000
914497.000000
915497.000000
916498.000000
917425.000000
918371.000000
919348.000000
920351.000000
921289.000000
922248.000000
923237.000000
924253.000000
925237.000000
926162.000000
927145.000000
928145.000000
929141.000000
930066.000000
931035.000000
932014.000000
932991.000000
933908.000000
934865.000000
935844.000000
936848.000000
937785.000000
938751.000000
939730.000000
940731.000000
941706.000000
942724.000000
943787.000000
944823.000000
945800.000000
946845.000000
947886.000000
948871.000000
949825.000000
950833.000000
951834.000000
952781.000000
953731.000000
954725.000000
955752.000000
956729.000000
957662.000000
958669.000000
959696.000000
960709.000000
961669.000000
962664.000000
963682.000000
964679.000000
965637.000000
966658.000000
967707.000000
968728.000000
969696.000000
970660.000000
971685.000000
972699.000000
973659.000000
974661.000000
975670.000000
976665.000000
977603.000000
978571.000000
979545.000000
980541.000000
981521.000000
982449.000000
983425.000000
984442.000000
985482.000000
986459.000000
987477.000000
988551.000000
989666.000000
990675.000000
991671.000000
992699.000000
993724.000000
994739.000000
995709.000000
996721.000000
997757.000000
998749.000000
999700.000000
1000698.000000
1001722.000000
1002706.000000
1003662.000000
1004671.000000
1005715.000000
1006683.000000
1007682.000000
1008713.000000
1009704.000000
1010646.000000
1011633.000000
1012643.000000
1013608.000000
1014592.000000
1015601.000000
1016635.000000
1017643.000000
1018599.000000
1019631.000000
1020673.000000
1021693.000000
1022641.000000
1023632.000000
1024661.000000
1025676.000000
1026655.000000
1027683.000000
1028722.000000
1029710.000000
1030677.000000
1031697.000000
1032724.000000
1033735.000000
1034701.000000
1035703.000000
1036712.000000
1037726.000000
1038674.000000
1039690.000000
1040732.000000
1041743.000000
1042736.000000
1043819.000000
1044892.000000
1045916.000000
1046902.000000
1047933.000000
1048953.000000
1049969.000000
1050964.000000
1052046.000000
1053176.000000
1054295.000000
1055356.000000
1056449.000000
1057564.000000
1058649.000000
1059650.000000
1060698.000000
1061743.000000
1062774.000000
1063726.000000
1064742.000000
1065766.000000
1066787.000000
1067761.000000
1068773.000000
1069791.000000
1070807.000000
1071758.000000
1072700.000000
1073685.000000
1074688.000000
1075646.000000
1076648.000000
1077648.000000
1078646.000000
1079609.000000
1080581.000000
1081589.000000
1082581.000000
1083528.000000
1084481.000000
1085518.000000
1086570.000000
1087576.000000
1088648.000000
1089730.000000
1090803.000000
1091795.000000
1092839.000000
1093884.000000
1094903.000000
1095869.000000
1096924.000000
1098029.000000
1099106.000000
1100115.000000
1101204.000000
1102303.000000
1103378.000000
1104386.000000
1105360.000000
1106390.000000
1107416.000000
1108432.000000
1109395.000000
1110390.000000
1111408.000000
1112438.000000
1113404.000000
1114418.000000
1115438.000000
1116452.000000
1117401.000000
1118355.000000
1119325.000000
1120306.000000
1121235.000000
1122178.000000
1123153.000000
1124177.000000
1125137.000000
1126053.000000
1127027.000000
1128060.000000
1129056.000000
1129981.000000
1130963.000000
1131974.000000
1132962.000000
1133907.000000
1134901.000000
1135905.000000
1136888.000000
1137827.000000
1138799.000000
1139792.000000
1140786.000000
1141726.000000
1142770.000000
1143800.000000
1144829.000000
1145831.000000
1146796.000000
1147764.000000
1148771.000000
1149785.000000
1150743.000000
1151688.000000
1152722.000000
1153750.000000
1154720.000000
1155693.000000
1156708.000000
1157734.000000
1158681.000000
1159711.000000
1160746.000000
1161748.000000
1162693.000000
1163684.000000
1164688.000000
1165666.000000
1166620.000000
1167549.000000
1168546.000000
1169597.000000
1170643.000000
1171641.000000
1172667.000000
1173711.000000
1174740.000000
1175698.000000
1176683.000000
1177691.000000
1178684.000000
1179617.000000
1180617.000000
1181629.000000
1182635.000000
1183600.000000
1184523.000000
1185500.000000
1186493.000000
1187427.000000
