ECG (ms)
669.000000
1757.000000
2812.000000
3944.000000
5130.000000
6246.000000
7365.000000
8493.000000
9545.000000
10562.000000
11674.000000
12809.000000
13907.000000
14968.000000
16106.000000
17276.000000
18379.000000
19450.000000
20545.000000
21691.000000
22806.000000
23868.000000
24954.000000
26052.000000
27122.000000
28201.000000
29314.000000
30396.000000
31456.000000
32576.000000
33803.000000
34979.000000
36053.000000
37162.000000
38391.000000
39567.000000
40680.000000
41882.000000
43110.000000
44372.000000
45520.000000
46739.000000
47964.000000
49169.000000
50387.000000
51523.000000
52629.000000
53696.000000
54911.000000
56182.000000
57309.000000
58330.000000
59434.000000
60595.000000
61702.000000
62755.000000
63868.000000
65029.000000
66185.000000
67240.000000
68306.000000
69426.000000
70568.000000
71626.000000
72663.000000
73766.000000
74897.000000
75979.000000
76981.000000
78029.000000
79107.000000
80228.000000
81288.000000
82378.000000
83535.000000
84634.000000
85710.000000
86894.000000
88039.000000
89136.000000
90226.000000
91387.000000
92530.000000
93644.000000
94716.000000
95852.000000
97029.000000
98143.000000
99272.000000
100463.000000
101584.000000
102631.000000
103665.000000
104786.000000
105935.000000
107045.000000
108103.000000
109168.000000
110261.000000
111337.000000
112334.000000
113352.000000
114451.000000
115561.000000
116626.000000
117736.000000
118851.000000
119905.000000
120909.000000
121951.000000
123028.000000
124096.000000
125123.000000
126175.000000
127291.000000
128426.000000
129492.000000
130513.000000
131509.000000
132564.000000
133615.000000
134615.000000
135713.000000
136901.000000
138086.000000
139212.000000
140374.000000
141552.000000
142637.000000
143710.000000
144832.000000
145985.000000
147092.000000
148149.000000
149287.000000
150448.000000
151556.000000
152597.000000
153636.000000
154745.000000
155941.000000
157078.000000
158139.000000
159259.000000
160412.000000
161526.000000
162568.000000
163655.000000
164776.000000
165832.000000
166807.000000
167832.000000
168957.000000
170117.000000
171176.000000
172277.000000
173423.000000
174501.000000
175533.000000
176609.000000
177726.000000
178847.000000
179906.000000
180991.000000
182097.000000
183238.000000
184345.000000
185417.000000
186588.000000
187731.000000
188813.000000
189838.000000
190824.000000
191857.000000
193038.000000
194209.000000
195338.000000
196375.000000
197471.000000
198471.000000
199446.000000
200465.000000
201503.000000
202504.000000
203507.000000
204558.000000
205586.000000
206587.000000
207638.000000
208754.000000
209871.000000
210936.000000
212022.000000
213193.000000
214347.000000
215501.000000
216621.000000
217730.000000
218872.000000
219963.000000
221039.000000
222096.000000
223238.000000
224382.000000
225511.000000
226641.000000
227730.000000
228814.000000
229904.000000
230936.000000
232028.000000
233238.000000
234361.000000
235561.000000
236842.000000
237990.000000
239062.000000
240201.000000
241392.000000
242503.000000
243613.000000
244789.000000
245983.000000
247151.000000
248279.000000
249484.000000
250699.000000
251929.000000
253094.000000
254148.000000
255153.000000
256209.000000
257230.000000
258154.000000
259110.000000
260233.000000
261316.000000
262353.000000
263454.000000
264605.000000
265748.000000
266789.000000
267816.000000
268911.000000
270044.000000
271182.000000
272316.000000
273452.000000
274526.000000
275572.000000
276686.000000
277839.000000
278991.000000
280119.000000
281228.000000
282293.000000
283464.000000
284594.000000
285660.000000
286690.000000
287768.000000
289005.000000
290099.000000
291167.000000
292376.000000
293573.000000
294680.000000
295833.000000
296986.000000
298120.000000
299218.000000
300293.000000
301401.000000
302420.000000
303392.000000
304456.000000
305575.000000
306631.000000
307654.000000
308721.000000
309770.000000
310740.000000
311745.000000
312824.000000
313875.000000
314867.000000
315865.000000
316909.000000
317972.000000
319064.000000
320137.000000
321187.000000
322280.000000
323366.000000
324436.000000
325469.000000
326558.000000
327746.000000
328893.000000
329993.000000
331025.000000
332047.000000
333008.000000
334025.000000
335105.000000
336275.000000
337344.000000
338473.000000
339623.000000
340643.000000
341673.000000
342798.000000
343998.000000
345194.000000
346388.000000
347502.000000
348624.000000
349838.000000
351028.000000
352216.000000
353349.000000
354446.000000
355547.000000
356668.000000
357697.000000
358755.000000
359936.000000
361075.000000
362148.000000
363379.000000
364599.000000
365803.000000
366934.000000
367982.000000
369080.000000
370165.000000
371281.000000
372385.000000
373512.000000
374809.000000
376080.000000
377199.000000
378290.000000
379457.000000
380636.000000
381780.000000
382930.000000
384145.000000
385332.000000
386497.000000
387585.000000
388698.000000
389815.000000
390927.000000
392040.000000
393159.000000
394201.000000
395216.000000
396292.000000
397563.000000
398716.000000
399773.000000
400830.000000
401963.000000
403013.000000
404032.000000
405111.000000
406264.000000
407311.000000
408324.000000
409375.000000
410467.000000
411552.000000
412578.000000
413625.000000
414707.000000
415799.000000
416818.000000
417793.000000
418802.000000
419893.000000
421005.000000
422051.000000
423031.000000
423989.000000
425005.000000
426136.000000
427248.000000
428311.000000
429422.000000
430623.000000
431778.000000
432864.000000
433909.000000
435065.000000
436227.000000
437427.000000
438534.000000
439631.000000
440766.000000
441880.000000
442980.000000
444144.000000
445396.000000
446620.000000
447814.000000
448919.000000
450070.000000
451252.000000
452416.000000
453553.000000
454658.000000
455838.000000
457012.000000
458135.000000
459318.000000
460536.000000
461716.000000
462801.000000
463865.000000
465078.000000
466425.000000
467691.000000
468867.000000
469967.000000
471129.000000
472366.000000
473504.000000
474630.000000
475720.000000
476834.000000
477931.000000
479002.000000
480192.000000
481385.000000
482491.000000
483578.000000
484749.000000
485976.000000
487126.000000
488225.000000
489376.000000
490550.000000
491709.000000
492783.000000
493844.000000
494955.000000
496053.000000
497206.000000
498370.000000
499572.000000
500678.000000
501780.000000
503029.000000
504289.000000
505453.000000
506563.000000
507624.000000
508670.000000
509877.000000
511058.000000
512145.000000
513212.000000
514249.000000
515631.000000
516966.000000
518197.000000
519321.000000
520349.000000
521343.000000
522402.000000
523604.000000
524724.000000
525891.000000
527164.000000
528404.000000
529515.000000
530561.000000
531677.000000
532853.000000
533974.000000
535078.000000
536227.000000
537420.000000
538602.000000
539707.000000
540805.000000
541960.000000
543142.000000
544315.000000
545447.000000
546552.000000
547610.000000
548666.000000
549835.000000
550973.000000
552063.000000
553087.000000
554068.000000
555209.000000
556316.000000
557362.000000
558361.000000
559458.000000
560601.000000
561698.000000
562807.000000
563997.000000
565190.000000
566370.000000
567460.000000
568504.000000
569549.000000
570705.000000
571980.000000
573237.000000
574457.000000
575626.000000
576760.000000
577811.000000
578915.000000
580144.000000
581357.000000
582412.000000
583461.000000
584729.000000
586152.000000
587392.000000
588570.000000
589681.000000
590797.000000
591950.000000
593099.000000
594276.000000
595432.000000
596535.000000
597746.000000
599007.000000
600109.000000
601181.000000
602212.000000
603275.000000
604483.000000
605732.000000
606864.000000
607935.000000
608983.000000
610172.000000
611393.000000
612580.000000
613703.000000
614791.000000
615836.000000
616865.000000
617865.000000
618885.000000
620037.000000
621310.000000
622454.000000
623620.000000
624822.000000
625906.000000
626957.000000
628096.000000
629307.000000
630437.000000
631503.000000
632533.000000
633613.000000
634713.000000
635824.000000
636913.000000
637981.000000
639025.000000
640057.000000
641172.000000
642337.000000
643469.000000
644576.000000
645651.000000
646701.000000
647715.000000
648787.000000
649808.000000
650805.000000
651920.000000
653122.000000
654220.000000
655319.000000
656548.000000
657769.000000
658972.000000
660052.000000
661156.000000
662316.000000
663500.000000
664607.000000
665643.000000
666718.000000
667931.000000
669058.000000
670140.000000
671269.000000
672415.000000
673554.000000
674673.000000
675757.000000
676792.000000
677903.000000
679126.000000
680335.000000
681379.000000
682362.000000
683479.000000
684857.000000
686056.000000
687223.000000
688471.000000
689658.000000
690838.000000
691929.000000
692949.000000
694001.000000
695146.000000
696242.000000
697270.000000
698350.000000
699587.000000
700783.000000
701936.000000
703106.000000
704251.000000
705372.000000
706476.000000
707637.000000
708781.000000
709940.000000
711006.000000
711989.000000
712894.000000
713776.000000
714732.000000
716149.000000
717273.000000
718274.000000
719352.000000
720501.000000
721537.000000
722523.000000
723591.000000
724670.000000
725692.000000
726681.000000
727687.000000
728709.000000
729679.000000
730602.000000
731535.000000
732525.000000
733495.000000
734416.000000
735351.000000
736315.000000
737328.000000
738287.000000
739275.000000
740282.000000
741321.000000
742347.000000
743347.000000
744385.000000
745418.000000
746469.000000
747484.000000
748461.000000
749422.000000
750444.000000
751491.000000
752507.000000
753429.000000
754279.000000
755099.000000
755883.000000
756728.000000
757584.000000
758427.000000
759334.000000
760392.000000
761382.000000
762347.000000
763363.000000
764445.000000
765530.000000
766580.000000
767658.000000
768799.000000
769934.000000
771081.000000
772177.000000
773245.000000
774408.000000
775624.000000
776835.000000
777966.000000
779082.000000
780173.000000
781304.000000
782473.000000
783593.000000
784637.000000
785645.000000
786865.000000
788144.000000
789404.000000
790629.000000
791769.000000
792910.000000
794009.000000
795049.000000
796449.000000
797684.000000
798794.000000
800013.000000
801273.000000
802479.000000
803760.000000
805002.000000
806204.000000
807341.000000
808485.000000
809656.000000
810834.000000
811949.000000
813060.000000
814177.000000
815205.000000
816191.000000
817158.000000
818230.000000
819427.000000
820544.000000
821674.000000
822890.000000
824052.000000
825157.000000
826296.000000
827458.000000
828560.000000
829624.000000
830842.000000
832076.000000
833290.000000
834445.000000
835559.000000
836657.000000
837752.000000
838847.000000
839910.000000
841015.000000
842166.000000
843254.000000
844304.000000
845408.000000
846547.000000
847637.000000
848675.000000
849758.000000
850705.000000
851588.000000
852463.000000
853448.000000
854489.000000
855491.000000
856511.000000
857565.000000
858611.000000
859620.000000
860671.000000
861748.000000
862819.000000
863825.000000
864742.000000
865642.000000
866546.000000
867460.000000
868461.000000
869473.000000
870476.000000
871559.000000
872635.000000
873688.000000
874658.000000
875529.000000
876340.000000
877121.000000
878096.000000
879125.000000
880138.000000
881242.000000
882440.000000
883611.000000
884772.000000
885914.000000
887045.000000
888120.000000
889166.000000
890143.000000
891126.000000
892270.000000
893392.000000
894452.000000
895543.000000
896678.000000
897784.000000
898757.000000
899624.000000
900461.000000
901356.000000
902289.000000
903302.000000
904392.000000
905456.000000
906471.000000
907474.000000
908470.000000
909374.000000
910251.000000
911153.000000
912053.000000
912925.000000
913836.000000
914814.000000
915785.000000
916727.000000
917679.000000
918647.000000
919591.000000
920500.000000
921439.000000
922417.000000
923388.000000
924337.000000
925312.000000
926306.000000
927281.000000
928235.000000
929150.000000
930105.000000
931070.000000
932041.000000
933071.000000
934121.000000
935138.000000
936117.000000
937140.000000
938199.000000
939226.000000
940215.000000
941209.000000
942257.000000
943334.000000
944354.000000
945385.000000
946448.000000
947495.000000
948506.000000
949543.000000
950650.000000
951712.000000
952725.000000
953738.000000
954765.000000
955744.000000
956700.000000
957770.000000
958875.000000
959911.000000
960926.000000
962013.000000
963113.000000
964154.000000
965176.000000
966237.000000
967274.000000
968286.000000
969320.000000
970379.000000
971382.000000
972343.000000
973329.000000
974335.000000
975292.000000
976195.000000
977099.000000
978074.000000
979072.000000
980011.000000
980939.000000
981903.000000
982836.000000
983759.000000
984763.000000
985804.000000
986816.000000
987801.000000
988802.000000
989822.000000
990792.000000
991724.000000
992649.000000
993635.000000
994711.000000
995778.000000
996785.000000
997784.000000
998757.000000
999722.000000
1000754.000000
1001862.000000
1002942.000000
1003959.000000
1005007.000000
1006118.000000
1007236.000000
1008281.000000
1009318.000000
1010411.000000
1011500.000000
1012542.000000
1013562.000000
1014658.000000
1015776.000000
1016866.000000
1017940.000000
1019102.000000
1020228.000000
1021302.000000
1022409.000000
1023573.000000
1024715.000000
1025786.000000
1026871.000000
1027954.000000
1028951.000000
1029961.000000
1031067.000000
1032210.000000
1033279.000000
1034314.000000
1035361.000000
1036424.000000
1037463.000000
1038585.000000
1039747.000000
1040850.000000
1041932.000000
1043033.000000
1044141.000000
1045194.000000
1046244.000000
1047319.000000
1048367.000000
1049386.000000
1050484.000000
1051617.000000
1052725.000000
1053811.000000
1054902.000000
1055948.000000
1056954.000000
1057966.000000
1059066.000000
1060200.000000
1061266.000000
1062358.000000
1063464.000000
1064512.000000
1065478.000000
1066425.000000
1067391.000000
1068343.000000
1069315.000000
1070367.000000
1071445.000000
1072459.000000
1073471.000000
1074518.000000
1075532.000000
1076504.000000
1077485.000000
1078502.000000
1079518.000000
1080489.000000
1081485.000000
1082501.000000
1083505.000000
1084460.000000
1085437.000000
1086392.000000
1087316.000000
1088233.000000
1089209.000000
1090232.000000
1091240.000000
1092210.000000
1093192.000000
1094216.000000
1095238.000000
1096220.000000
1097187.000000
1098183.000000
1099217.000000
1100189.000000
1101157.000000
1102156.000000
1103167.000000
1104172.000000
1105184.000000
1106235.000000
1107283.000000
1108276.000000
1109255.000000
1110293.000000
1111366.000000
1112402.000000
1113463.000000
1114579.000000
1115674.000000
1116721.000000
1117741.000000
1118772.000000
1119847.000000
1120871.000000
1121862.000000
1122885.000000
1123953.000000
1124977.000000
1125951.000000
1126961.000000
1127997.000000
1129066.000000
1130100.000000
1131153.000000
1132256.000000
1133335.000000
1134359.000000
1135361.000000
1136439.000000
1137535.000000
1138574.000000
1139593.000000
1140647.000000
1141717.000000
1142693.000000
1143683.000000
1144748.000000
1145825.000000
1146829.000000
1147848.000000
1148924.000000
1150021.000000
1151079.000000
1152120.000000
1153201.000000
1154290.000000
1155324.000000
1156298.000000
1157372.000000
1158518.000000
1159639.000000
1160685.000000
1161760.000000
1162864.000000
1163929.000000
1164937.000000
1165961.000000
1167080.000000
1168213.000000
1169270.000000
1170324.000000
1171406.000000
1172501.000000
1173548.000000
1174568.000000
1175610.000000
1176654.000000
1177660.000000
1178652.000000
1179714.000000
1180841.000000
1181960.000000
1183017.000000
1184098.000000
1185189.000000
1186272.000000
1187314.000000
1188371.000000
1189474.000000
1190587.000000
1191665.000000
1192713.000000
1193817.000000
1194962.000000
1196075.000000
1197137.000000
1198257.000000
1199436.000000
1200544.000000
1201614.000000
1202726.000000
1203923.000000
1205057.000000
1206144.000000
1207266.000000
1208422.000000
1209551.000000
1210616.000000
1211699.000000
1212831.000000
1213906.000000
1214952.000000
1216029.000000
1217164.000000
1218247.000000
1219328.000000
1220440.000000
1221564.000000
1222637.000000
1223735.000000
1224857.000000
1225966.000000
1227030.000000
1228110.000000
1229225.000000
1230260.000000
1231279.000000
1232307.000000
1233361.000000
1234391.000000
1235407.000000
1236459.000000
1237543.000000
1238586.000000
1239594.000000
1240665.000000
1241767.000000
1242832.000000
1243853.000000
1244865.000000
1245924.000000
1247042.000000
1248096.000000
1249126.000000
1250207.000000
1251319.000000
1252372.000000
1253432.000000
1254540.000000
1255656.000000
1256708.000000
1257742.000000
1258834.000000
1259945.000000
1260988.000000
1261992.000000
1263020.000000
1264097.000000
1265195.000000
1266245.000000
1267331.000000
1268421.000000
1269482.000000
1270513.000000
1271556.000000
1272659.000000
1273780.000000
1274856.000000
1275910.000000
1276952.000000
1278044.000000
1279131.000000
1280239.000000
1281416.000000
1282584.000000
1283767.000000
1284867.000000
1285957.000000
1287067.000000
1288259.000000
1289440.000000
1290544.000000
1291617.000000
1292720.000000
1293858.000000
1294963.000000
1296002.000000
1297107.000000
1298276.000000
1299351.000000
1300409.000000
1301534.000000
1302633.000000
1303653.000000
1304656.000000
1305707.000000
1306749.000000
1307740.000000
1308729.000000
1309785.000000
1310868.000000
1311918.000000
1312920.000000
1313966.000000
1315050.000000
1316129.000000
1317177.000000
1318238.000000
1319372.000000
1320499.000000
1321570.000000
1322623.000000
1323736.000000
1324866.000000
1325977.000000
1327051.000000
1328168.000000
1329292.000000
1330383.000000
1331458.000000
1332624.000000
1333832.000000
1334948.000000
1336029.000000
1337187.000000
1338338.000000
1339477.000000
1340545.000000
1341648.000000
1342872.000000
1344120.000000
1345279.000000
1346419.000000
1347518.000000
1348699.000000
1349870.000000
1350946.000000
1351953.000000
1352853.000000
1353712.000000
1355010.000000
1356228.000000
1357240.000000
1358142.000000
1358975.000000
1359896.000000
1360932.000000
1362045.000000
1363098.000000
1364113.000000
1365139.000000
1366160.000000
1367172.000000
1368144.000000
1369114.000000
1370125.000000
1371141.000000
1372138.000000
1373112.000000
1374147.000000
1375237.000000
1376316.000000
1377345.000000
1378415.000000
1379485.000000
1380541.000000
1381551.000000
1382560.000000
1383556.000000
1384572.000000
1385619.000000
1386616.000000
1387487.000000
1388301.000000
1389070.000000
1389847.000000
1390707.000000
1391583.000000
1392434.000000
1393277.000000
1394107.000000
1394954.000000
1395846.000000
1396770.000000
1397699.000000
1398636.000000
1399591.000000
1400528.000000
1401461.000000
1402486.000000
1403567.000000
1404666.000000
1405718.000000
1406738.000000
1407774.000000
1408830.000000
1409866.000000
1410878.000000
1411931.000000
1413055.000000
1414173.000000
1415266.000000
1416294.000000
1417336.000000
1418421.000000
1419468.000000
1420502.000000
1421611.000000
1422738.000000
1423823.000000
1424864.000000
1425932.000000
1426988.000000
1428025.000000
1429088.000000
1430188.000000
1431294.000000
1432350.000000
1433412.000000
1434512.000000
1435547.000000
1436551.000000
1437612.000000
1438747.000000
1439779.000000
1440805.000000
1441898.000000
1443067.000000
1444205.000000
1445274.000000
1446365.000000
1447508.000000
1448621.000000
1449715.000000
1450740.000000
1451738.000000
1452734.000000
1453803.000000
1454888.000000
1455917.000000
1456959.000000
1458025.000000
1459105.000000
1460173.000000
1461218.000000
1462327.000000
1463429.000000
1464479.000000
1465512.000000
1466555.000000
1467609.000000
1468610.000000
1469604.000000
1470630.000000
1471665.000000
1472647.000000
1473611.000000
1474590.000000
1475583.000000
1476563.000000
1477522.000000
1478506.000000
1479523.000000
1480523.000000
1481490.000000
1482496.000000
1483498.000000
1484482.000000
1485462.000000
1486462.000000
1487484.000000
1488483.000000
1489452.000000
1490473.000000
1491562.000000
1492667.000000
1493752.000000
1494853.000000
1495966.000000
1497087.000000
1498154.000000
1499188.000000
1500233.000000
1501333.000000
1502429.000000
1503489.000000
1504558.000000
1505656.000000
1506751.000000
1507807.000000
1508927.000000
1510113.000000
1511267.000000
1512385.000000
1513464.000000
1514590.000000
1515701.000000
1516817.000000
1517962.000000
1519112.000000
1520292.000000
1521413.000000
1522578.000000
1523788.000000
1524968.000000
1526076.000000
1527129.000000
1528237.000000
1529529.000000
1530705.000000
1531814.000000
1532865.000000
1533991.000000
1535198.000000
1536329.000000
1537454.000000
1538740.000000
1539987.000000
1541224.000000
1542367.000000
1543479.000000
1544711.000000
1545979.000000
1547222.000000
1548376.000000
1549518.000000
1550671.000000
1551845.000000
1552941.000000
1554028.000000
1555191.000000
1556313.000000
1557352.000000
1558462.000000
1559663.000000
1560760.000000
1561823.000000
1562961.000000
1564129.000000
1565290.000000
1566436.000000
1567551.000000
1568659.000000
1569773.000000
1570925.000000
1572085.000000
1573200.000000
1574307.000000
1575394.000000
1576433.000000
1577492.000000
1578672.000000
1579929.000000
1581170.000000
1582255.000000
1583329.000000
1584463.000000
1585619.000000
1586697.000000
1587945.000000
1589230.000000
1590424.000000
1591648.000000
1592850.000000
1594029.000000
1595130.000000
1596216.000000
1597397.000000
1598608.000000
1599810.000000
1600990.000000
1602108.000000
1603188.000000
1604296.000000
1605389.000000
1606440.000000
1607494.000000
1608630.000000
1609779.000000
1610860.000000
1611966.000000
1613165.000000
1614227.000000
1615255.000000
1616335.000000
1617506.000000
1618677.000000
1619790.000000
1620903.000000
1622058.000000
1623252.000000
1624386.000000
1625409.000000
1626298.000000
1627134.000000
1627920.000000
1629265.000000
1630299.000000
1631386.000000
1632569.000000
1633704.000000
1634771.000000
1635910.000000
1637075.000000
1638244.000000
1639360.000000
1640396.000000
1641392.000000
1642428.000000
1643505.000000
1644548.000000
1645683.000000
1646867.000000
1647971.000000
1649086.000000
1650173.000000
1651290.000000
1652514.000000
1653760.000000
1654975.000000
1656165.000000
1657259.000000
1658294.000000
1659345.000000
1660497.000000
1661570.000000
1662555.000000
1663435.000000
1664306.000000
1665481.000000
1666599.000000
1667740.000000
1668826.000000
1669843.000000
1670903.000000
1671951.000000
1673029.000000
1674130.000000
1675195.000000
1676249.000000
1677374.000000
1678484.000000
1679595.000000
1680709.000000
1681849.000000
1682967.000000
1684107.000000
1685248.000000
1686375.000000
1687473.000000
1688522.000000
1689580.000000
1690827.000000
1692059.000000
1693195.000000
1694245.000000
1695443.000000
1696730.000000
1697950.000000
1699083.000000
1700150.000000
1701377.000000
1702634.000000
1703863.000000
1705094.000000
1706227.000000
1707343.000000
1708459.000000
1709552.000000
1710601.000000
1711683.000000
1712837.000000
1713918.000000
1714967.000000
1716101.000000
1717273.000000
1718376.000000
1719431.000000
1720556.000000
1721657.000000
1722630.000000
1723592.000000
1724658.000000
1725690.000000
1726763.000000
1727844.000000
1728919.000000
1729910.000000
1730898.000000
1731852.000000
1732785.000000
1733713.000000
1734619.000000
1735515.000000
1736398.000000
1737303.000000
1738287.000000
1739271.000000
1740238.000000
1741224.000000
1742229.000000
1743227.000000
1744159.000000
1745117.000000
1746097.000000
1747097.000000
1748067.000000
1749062.000000
1750122.000000
1751211.000000
1752286.000000
1753335.000000
1754382.000000
1755443.000000
1756508.000000
1757562.000000
1758594.000000
1759705.000000
1760862.000000
1761965.000000
1762997.000000
1763974.000000
1764995.000000
1766129.000000
1767204.000000
1768237.000000
1769314.000000
1770463.000000
1771581.000000
1772623.000000
1773727.000000
1774873.000000
1775938.000000
1776976.000000
1778044.000000
1779167.000000
1780207.000000
1781221.000000
1782292.000000
1783441.000000
1784592.000000
1785676.000000
1786787.000000
1787904.000000
1789004.000000
1790057.000000
1791142.000000
1792293.000000
1793480.000000
1794597.000000
1795758.000000
1796993.000000
1798170.000000
