ECG (ms)
277.000000
1702.000000
3113.000000
4519.000000
5988.000000
7397.000000
8753.000000
10177.000000
11562.000000
12881.000000
14271.000000
15675.000000
17027.000000
18420.000000
19819.000000
21166.000000
22543.000000
23961.000000
25304.000000
26722.000000
28140.000000
29460.000000
30913.000000
32306.000000
33629.000000
35096.000000
36499.000000
37859.000000
39296.000000
40752.000000
42095.000000
43508.000000
44907.000000
46250.000000
47694.000000
49136.000000
50521.000000
51985.000000
53395.000000
54805.000000
56289.000000
57697.000000
59063.000000
60526.000000
61989.000000
63419.000000
64923.000000
66417.000000
67818.000000
69335.000000
70803.000000
72212.000000
73701.000000
75077.000000
76460.000000
77959.000000
79381.000000
80866.000000
82319.000000
83705.000000
85217.000000
86683.000000
88088.000000
89536.000000
90989.000000
92335.000000
93789.000000
95190.000000
96570.000000
98048.000000
99527.000000
100946.000000
102398.000000
103876.000000
105247.000000
106684.000000
108114.000000
109458.000000
110891.000000
112321.000000
113746.000000
115168.000000
116689.000000
118180.000000
119632.000000
121141.000000
122569.000000
123948.000000
125387.000000
126834.000000
128225.000000
129700.000000
131158.000000
132531.000000
133938.000000
135374.000000
136768.000000
138234.000000
139660.000000
141053.000000
142589.000000
144074.000000
145515.000000
147045.000000
148473.000000
149941.000000
151446.000000
152848.000000
154233.000000
155691.000000
157150.000000
158525.000000
159973.000000
161395.000000
162780.000000
164281.000000
165758.000000
167175.000000
168652.000000
170120.000000
171540.000000
173014.000000
174468.000000
175853.000000
177308.000000
178778.000000
180159.000000
181612.000000
183067.000000
184444.000000
185938.000000
187424.000000
188833.000000
190263.000000
191747.000000
193163.000000
194646.000000
196056.000000
196850.000000
198245.000000
199894.000000
201388.000000
202938.000000
204338.000000
205756.000000
207287.000000
208761.000000
210174.000000
211666.000000
213113.000000
214489.000000
215998.000000
217481.000000
218917.000000
220457.000000
221947.000000
223394.000000
224885.000000
226351.000000
227748.000000
229231.000000
230693.000000
232052.000000
233531.000000
234991.000000
236433.000000
237904.000000
239347.000000
240743.000000
242238.000000
243682.000000
245092.000000
246599.000000
248042.000000
249407.000000
250857.000000
252302.000000
253694.000000
255170.000000
256641.000000
258018.000000
259468.000000
260931.000000
262324.000000
263794.000000
265271.000000
266712.000000
268205.000000
269685.000000
271081.000000
272537.000000
273983.000000
275363.000000
276877.000000
278373.000000
279853.000000
281414.000000
282926.000000
284351.000000
285860.000000
287335.000000
288752.000000
290220.000000
291729.000000
293152.000000
294618.000000
296102.000000
297535.000000
299022.000000
300460.000000
301861.000000
303340.000000
304819.000000
306231.000000
307695.000000
309145.000000
310606.000000
312173.000000
313621.000000
314937.000000
316193.000000
317479.000000
318770.000000
320117.000000
320470.000000
321448.000000
322795.000000
324190.000000
325562.000000
327047.000000
328496.000000
329871.000000
331320.000000
332771.000000
334203.000000
335698.000000
337152.000000
338614.000000
340172.000000
341657.000000
343123.000000
344620.000000
346098.000000
347490.000000
348994.000000
350496.000000
351945.000000
353474.000000
354972.000000
356391.000000
357919.000000
359423.000000
360873.000000
362420.000000
363921.000000
365328.000000
366832.000000
368297.000000
369688.000000
371208.000000
372703.000000
374144.000000
375672.000000
377189.000000
378697.000000
380242.000000
381750.000000
383240.000000
384788.000000
386312.000000
387766.000000
389310.000000
390851.000000
392307.000000
393799.000000
395331.000000
396799.000000
398281.000000
399829.000000
401306.000000
402847.000000
404374.000000
405813.000000
407358.000000
408902.000000
410347.000000
411873.000000
413385.000000
414787.000000
416294.000000
417795.000000
419200.000000
420643.000000
422210.000000
423723.000000
425180.000000
426668.000000
428109.000000
429538.000000
431064.000000
432541.000000
434004.000000
435384.000000
436883.000000
438350.000000
439793.000000
441287.000000
442778.000000
444270.000000
445860.000000
447411.000000
448831.000000
450337.000000
451811.000000
453236.000000
454717.000000
456209.000000
457722.000000
459109.000000
460609.000000
462119.000000
463557.000000
465128.000000
466659.000000
468114.000000
469642.000000
471154.000000
472584.000000
474075.000000
475680.000000
477171.000000
478553.000000
480040.000000
481590.000000
483027.000000
484563.000000
486096.000000
487551.000000
489057.000000
490677.000000
492207.000000
493603.000000
495071.000000
496592.000000
498011.000000
499529.000000
500974.000000
502380.000000
503963.000000
505502.000000
506904.000000
508379.000000
509857.000000
511282.000000
512825.000000
514322.000000
515801.000000
517343.000000
518857.000000
520279.000000
521813.000000
523334.000000
524774.000000
526301.000000
527863.000000
529309.000000
530874.000000
532429.000000
533876.000000
535393.000000
536941.000000
538419.000000
539795.000000
541236.000000
542748.000000
544120.000000
545580.000000
547097.000000
548459.000000
549890.000000
551411.000000
552818.000000
554230.000000
555497.000000
556934.000000
558269.000000
559650.000000
561095.000000
562554.000000
563986.000000
565503.000000
567019.000000
568453.000000
570010.000000
571552.000000
573041.000000
574683.000000
576239.000000
577673.000000
579229.000000
580757.000000
582198.000000
583737.000000
585275.000000
586741.000000
588278.000000
589813.000000
591217.000000
592791.000000
594420.000000
595973.000000
597514.000000
599045.000000
600498.000000
601996.000000
603482.000000
604945.000000
606338.000000
607803.000000
609369.000000
610870.000000
612270.000000
613729.000000
615254.000000
616711.000000
618102.000000
619610.000000
621167.000000
622575.000000
624070.000000
625582.000000
626981.000000
628522.000000
629994.000000
631405.000000
632936.000000
634535.000000
636118.000000
637616.000000
639235.000000
640870.000000
642395.000000
644026.000000
645598.000000
647055.000000
648569.000000
650158.000000
651718.000000
653188.000000
654781.000000
656278.000000
657708.000000
659222.000000
660592.000000
662044.000000
663512.000000
664892.000000
666417.000000
667944.000000
669447.000000
671033.000000
672551.000000
673975.000000
675478.000000
676962.000000
678365.000000
679862.000000
681343.000000
682756.000000
684249.000000
685731.000000
687199.000000
688618.000000
690099.000000
691723.000000
693197.000000
694606.000000
696135.000000
697599.000000
698986.000000
700483.000000
701917.000000
703272.000000
704719.000000
706195.000000
707590.000000
709081.000000
710634.000000
712100.000000
713602.000000
715149.000000
716637.000000
718193.000000
719746.000000
721254.000000
722879.000000
724385.000000
725808.000000
727278.000000
728829.000000
730363.000000
731798.000000
733364.000000
734920.000000
736406.000000
737897.000000
739360.000000
740778.000000
742326.000000
743894.000000
745349.000000
746870.000000
748441.000000
749875.000000
751410.000000
752936.000000
754394.000000
756008.000000
757610.000000
759105.000000
760638.000000
762160.000000
763598.000000
765167.000000
766670.000000
768078.000000
769571.000000
771089.000000
772583.000000
774168.000000
775718.000000
777184.000000
778659.000000
780223.000000
781692.000000
783229.000000
784744.000000
786187.000000
787719.000000
789316.000000
790890.000000
792391.000000
793947.000000
795560.000000
797058.000000
798487.000000
800029.000000
801494.000000
802878.000000
804305.000000
805830.000000
807252.000000
808590.000000
809938.000000
811407.000000
812823.000000
814104.000000
815327.000000
816782.000000
818038.000000
819432.000000
820755.000000
822052.000000
823650.000000
825063.000000
826508.000000
828026.000000
829462.000000
830843.000000
832336.000000
833830.000000
835227.000000
836747.000000
838210.000000
839626.000000
841143.000000
842651.000000
844110.000000
845675.000000
847190.000000
848624.000000
850104.000000
851614.000000
853053.000000
854617.000000
856136.000000
857611.000000
859186.000000
860674.000000
862110.000000
863660.000000
865178.000000
866661.000000
868200.000000
869744.000000
871196.000000
872750.000000
874324.000000
875854.000000
877324.000000
878919.000000
880572.000000
882059.000000
883677.000000
885348.000000
886957.000000
888425.000000
889896.000000
891488.000000
893013.000000
894416.000000
895933.000000
897422.000000
898817.000000
900312.000000
901843.000000
903255.000000
904794.000000
906332.000000
907766.000000
909276.000000
910755.000000
912174.000000
913671.000000
915085.000000
916539.000000
917991.000000
919432.000000
920972.000000
922428.000000
923851.000000
925357.000000
926838.000000
928238.000000
929705.000000
931098.000000
932463.000000
933888.000000
935256.000000
936602.000000
938048.000000
939473.000000
940833.000000
942299.000000
943705.000000
945053.000000
946518.000000
947931.000000
949341.000000
950841.000000
952305.000000
953803.000000
955298.000000
956803.000000
958262.000000
959815.000000
961304.000000
962729.000000
964302.000000
965804.000000
967196.000000
968660.000000
970167.000000
971571.000000
973021.000000
974426.000000
975763.000000
977190.000000
978556.000000
979903.000000
981339.000000
982681.000000
984037.000000
985438.000000
986732.000000
988104.000000
989463.000000
990768.000000
992160.000000
993518.000000
994823.000000
996223.000000
997580.000000
998885.000000
1000280.000000
1001625.000000
1002970.000000
1004396.000000
1005770.000000
1007155.000000
1008564.000000
1009968.000000
1011437.000000
1012917.000000
1014360.000000
1015862.000000
1017340.000000
1018852.000000
1020419.000000
1021921.000000
1023422.000000
1024972.000000
1026488.000000
1027889.000000
1029386.000000
1030876.000000
1032317.000000
1033849.000000
1035404.000000
1036857.000000
1038457.000000
1039970.000000
1041361.000000
1042896.000000
1044375.000000
1045740.000000
1047214.000000
1048652.000000
1050008.000000
1051506.000000
1052975.000000
1054324.000000
1055777.000000
1057225.000000
1058582.000000
1060021.000000
1061443.000000
1062820.000000
1064311.000000
1065714.000000
1067050.000000
1068495.000000
1069890.000000
1071266.000000
1072685.000000
1074044.000000
1075530.000000
1076978.000000
1078347.000000
1079778.000000
1081210.000000
1082621.000000
1084112.000000
1085557.000000
1086970.000000
1088464.000000
1089877.000000
1091303.000000
1092765.000000
1094203.000000
1095685.000000
1097154.000000
1098656.000000
1100172.000000
1101651.000000
1103128.000000
1104672.000000
1106222.000000
1107657.000000
1109173.000000
1110718.000000
1112205.000000
1113729.000000
1115236.000000
1116671.000000
1118154.000000
1119677.000000
1121143.000000
1122704.000000
1124287.000000
1125759.000000
1127290.000000
1128852.000000
1130386.000000
1131832.000000
1133419.000000
1134950.000000
1136359.000000
1137911.000000
1139424.000000
1140819.000000
1142300.000000
1143782.000000
1145207.000000
1146718.000000
1148219.000000
1149555.000000
1150815.000000
1152276.000000
1153732.000000
1155236.000000
1156703.000000
1158173.000000
1159692.000000
1161188.000000
1162601.000000
1164144.000000
1165637.000000
1167088.000000
1168592.000000
1170076.000000
1171585.000000
1173173.000000
1174651.000000
1176138.000000
1177615.000000
1179048.000000
1180604.000000
1182079.000000
1183535.000000
1185066.000000
1186604.000000
1188130.000000
1189726.000000
1191233.000000
1192681.000000
1194336.000000
1195948.000000
1197515.000000
1199157.000000
1200710.000000
1202202.000000
1203804.000000
1205344.000000
1206798.000000
1208309.000000
1209813.000000
1211230.000000
1212820.000000
1214414.000000
1215838.000000
1217353.000000
1218886.000000
1220293.000000
1221780.000000
1223224.000000
1224621.000000
1226120.000000
1227582.000000
1229016.000000
1230478.000000
1231878.000000
1233264.000000
1234738.000000
1236134.000000
1237526.000000
1238984.000000
1240371.000000
1241822.000000
1243253.000000
1244646.000000
1246179.000000
1247632.000000
1249104.000000
1250608.000000
1252087.000000
1253632.000000
1255105.000000
1256622.000000
1258122.000000
1259562.000000
1261093.000000
1262574.000000
1264114.000000
1265554.000000
1267071.000000
1268569.000000
1270039.000000
1271580.000000
1273090.000000
1274668.000000
1276218.000000
1277779.000000
1279351.000000
1280860.000000
1282345.000000
1283893.000000
1285404.000000
1286815.000000
1288326.000000
1289819.000000
1291208.000000
1292709.000000
1294227.000000
1295677.000000
1297205.000000
1298702.000000
1300148.000000
1301685.000000
1303210.000000
1304654.000000
1306152.000000
1307591.000000
1308974.000000
1310457.000000
1311909.000000
1313317.000000
1314783.000000
1316207.000000
1317606.000000
1319106.000000
1320601.000000
1322092.000000
1323500.000000
1324799.000000
1326282.000000
1327660.000000
1329114.000000
1330476.000000
1331900.000000
1333386.000000
1334791.000000
1336260.000000
1337677.000000
1339050.000000
1340526.000000
1341922.000000
1343322.000000
1344807.000000
1346239.000000
1347732.000000
1349163.000000
1350597.000000
1352030.000000
1353441.000000
1354924.000000
1356344.000000
1357747.000000
1359230.000000
1360715.000000
1362229.000000
1363812.000000
1365365.000000
1366892.000000
1368448.000000
1369973.000000
1371414.000000
1372943.000000
1374566.000000
1376073.000000
1377619.000000
1379218.000000
1380698.000000
1382273.000000
1383864.000000
1385353.000000
1386890.000000
1388452.000000
1389950.000000
1391555.000000
1393110.000000
1394592.000000
1396162.000000
1397769.000000
1399238.000000
1400719.000000
1402327.000000
1403916.000000
1405480.000000
1407093.000000
1408667.000000
1410205.000000
1411801.000000
1413350.000000
1414840.000000
1416414.000000
1417939.000000
1419441.000000
1421035.000000
1422663.000000
1424152.000000
1425718.000000
1427275.000000
1428822.000000
1430428.000000
1432034.000000
1433526.000000
1435116.000000
1436775.000000
1438299.000000
1439918.000000
1441436.000000
1442949.000000
1444540.000000
1446011.000000
1447453.000000
1448991.000000
1450394.000000
1451810.000000
1453256.000000
1454579.000000
1455979.000000
1457427.000000
1458782.000000
1460221.000000
1461646.000000
1462975.000000
1464407.000000
1465799.000000
1467169.000000
1468644.000000
1470063.000000
1471497.000000
1472957.000000
1474324.000000
1475809.000000
1477239.000000
1478649.000000
1480126.000000
1481541.000000
1482982.000000
1484388.000000
1485692.000000
1487102.000000
1488476.000000
1489910.000000
1491324.000000
1492711.000000
1494182.000000
1495589.000000
1496977.000000
1498462.000000
1499858.000000
1501345.000000
1502827.000000
1504243.000000
1505743.000000
1507212.000000
1508658.000000
1510201.000000
1511699.000000
1513162.000000
1514697.000000
1516166.000000
1517741.000000
1519256.000000
1520782.000000
1522320.000000
1523736.000000
1525259.000000
1526764.000000
1528173.000000
1529702.000000
1531199.000000
1532685.000000
1534187.000000
1535565.000000
1537025.000000
1538485.000000
1539848.000000
1541313.000000
1542748.000000
1544167.000000
1545605.000000
1546978.000000
1548450.000000
1549914.000000
1551385.000000
1552873.000000
1554291.000000
1555694.000000
1557141.000000
1558523.000000
1559945.000000
1561491.000000
1562976.000000
1564438.000000
1566006.000000
1567539.000000
1568983.000000
1570475.000000
1571917.000000
1573365.000000
1574891.000000
1576388.000000
1577814.000000
1579389.000000
1580914.000000
1582371.000000
1583963.000000
1585550.000000
1587027.000000
1588501.000000
1590043.000000
1591504.000000
1592930.000000
1594435.000000
1595959.000000
1597387.000000
1598920.000000
1600420.000000
1601850.000000
1603409.000000
1604906.000000
1606320.000000
1607826.000000
1609313.000000
1610745.000000
1612235.000000
1613726.000000
1615150.000000
1616646.000000
1618095.000000
1619469.000000
1620951.000000
1622382.000000
1623746.000000
1625206.000000
1626647.000000
1628082.000000
1629579.000000
1631018.000000
1632509.000000
1633950.000000
1635287.000000
1636683.000000
1638078.000000
1639422.000000
1640828.000000
1642248.000000
1643662.000000
1645195.000000
1646690.000000
1648151.000000
1649653.000000
1651126.000000
1652486.000000
1653913.000000
1655354.000000
1656771.000000
1658301.000000
1659904.000000
1661405.000000
1662972.000000
1664543.000000
1666061.000000
1667748.000000
1669296.000000
1670796.000000
1672348.000000
1673898.000000
1675399.000000
1677050.000000
1678694.000000
1680114.000000
1681633.000000
1683116.000000
1684454.000000
1685921.000000
1687418.000000
1688765.000000
1690241.000000
1691691.000000
1693022.000000
1694433.000000
1695817.000000
1697129.000000
1698529.000000
1699905.000000
1701229.000000
1702639.000000
1703978.000000
1705303.000000
1706698.000000
1708034.000000
1709401.000000
1710822.000000
1712164.000000
1713587.000000
1714945.000000
1716298.000000
1717696.000000
1719085.000000
1720420.000000
1721822.000000
1723182.000000
1724549.000000
1725976.000000
1727341.000000
1728711.000000
1730149.000000
1731587.000000
1733022.000000
1734401.000000
1735711.000000
1737106.000000
1738477.000000
1739955.000000
1741393.000000
1742783.000000
1744252.000000
1745668.000000
1747053.000000
1748570.000000
1749999.000000
1751450.000000
1752984.000000
1754444.000000
1755880.000000
1757378.000000
1758797.000000
1760191.000000
1761716.000000
1763218.000000
1764671.000000
1766235.000000
1767741.000000
1769206.000000
1770736.000000
1772229.000000
1773770.000000
1775313.000000
1776823.000000
1778422.000000
1780002.000000
1781552.000000
1783160.000000
1784739.000000
1786275.000000
1787866.000000
1789381.000000
1790830.000000
1792419.000000
1793987.000000
1795438.000000
1797006.000000
1798511.000000
1799911.000000
1801415.000000
1802883.000000
1804274.000000
1805769.000000
1807250.000000
1808685.000000
1810190.000000
1811674.000000
1813073.000000
1814586.000000
1815995.000000
1817375.000000
1818871.000000
1820283.000000
1821694.000000
1823137.000000
1824544.000000
1826078.000000
1827633.000000
1829167.000000
1830760.000000
1832277.000000
1833774.000000
1835381.000000
1836755.000000
1838147.000000
1839511.000000
1840898.000000
1842380.000000
1843783.000000
1845137.000000
1846604.000000
1847966.000000
1849371.000000
1850776.000000
1851999.000000
1853517.000000
1854920.000000
1856254.000000
1857693.000000
1859114.000000
1860478.000000
1861931.000000
1863352.000000
1864762.000000
1866257.000000
1867783.000000
1869262.000000
1870835.000000
1872351.000000
1873820.000000
1875327.000000
1876828.000000
1878278.000000
1879700.000000
1881218.000000
1882714.000000
1884136.000000
1885682.000000
1887223.000000
1888624.000000
1889962.000000
1891463.000000
1893029.000000
1894472.000000
1896005.000000
1897545.000000
1899025.000000
1900560.000000
1902008.000000
1903488.000000
1904991.000000
1906414.000000
1907925.000000
1909422.000000
1910897.000000
1912453.000000
1913949.000000
1915407.000000
1916828.000000
1918215.000000
1919671.000000
1921047.000000
1922521.000000
1923955.000000
1925367.000000
1926843.000000
1928242.000000
1929700.000000
1931195.000000
