ECG (ms)
588.000000
1503.000000
2422.000000
3301.000000
4204.000000
5145.000000
6013.000000
6885.000000
7810.000000
8764.000000
9678.000000
10596.000000
11520.000000
12386.000000
13273.000000
14177.000000
15087.000000
15951.000000
16813.000000
17706.000000
18614.000000
19488.000000
20399.000000
21283.000000
22154.000000
23064.000000
23961.000000
24819.000000
25699.000000
26590.000000
27467.000000
28325.000000
29223.000000
30122.000000
30968.000000
31858.000000
32766.000000
33642.000000
34519.000000
35418.000000
36308.000000
37155.000000
38042.000000
38985.000000
39926.000000
40792.000000
41693.000000
42623.000000
43505.000000
44434.000000
45392.000000
46291.000000
47210.000000
48155.000000
49078.000000
50000.000000
50945.000000
51888.000000
52771.000000
53675.000000
54580.000000
55432.000000
56300.000000
57205.000000
58098.000000
58965.000000
59868.000000
60791.000000
61684.000000
62611.000000
63587.000000
64512.000000
65381.000000
66294.000000
67243.000000
68132.000000
69009.000000
69907.000000
70793.000000
71654.000000
72556.000000
73480.000000
74360.000000
75253.000000
76189.000000
77099.000000
77996.000000
78913.000000
79813.000000
80670.000000
81572.000000
82499.000000
83382.000000
84278.000000
85196.000000
86079.000000
86966.000000
87892.000000
88792.000000
89651.000000
90533.000000
91443.000000
92303.000000
93203.000000
94157.000000
95056.000000
95945.000000
96888.000000
97808.000000
98703.000000
99621.000000
100530.000000
101392.000000
102297.000000
103219.000000
104093.000000
104995.000000
105939.000000
106840.000000
107686.000000
108568.000000
109463.000000
110324.000000
111230.000000
112122.000000
112955.000000
113726.000000
114468.000000
115330.000000
116269.000000
117201.000000
118168.000000
119106.000000
119996.000000
120922.000000
121852.000000
122714.000000
123622.000000
124529.000000
125401.000000
126326.000000
127258.000000
128170.000000
129122.000000
130104.000000
131046.000000
132015.000000
132991.000000
133906.000000
134857.000000
135806.000000
136706.000000
137663.000000
138620.000000
139524.000000
140457.000000
141415.000000
142327.000000
143274.000000
144257.000000
145186.000000
146170.000000
147152.000000
148085.000000
149055.000000
150034.000000
150950.000000
151868.000000
152813.000000
153735.000000
154666.000000
155647.000000
156648.000000
157586.000000
158576.000000
159571.000000
160507.000000
161461.000000
162410.000000
163315.000000
164271.000000
165253.000000
166179.000000
167143.000000
168120.000000
169042.000000
169991.000000
170951.000000
171885.000000
172831.000000
173787.000000
174703.000000
175630.000000
176602.000000
177549.000000
178464.000000
179433.000000
180385.000000
181305.000000
182251.000000
183200.000000
184099.000000
185039.000000
185994.000000
186900.000000
187827.000000
188795.000000
189729.000000
190669.000000
191588.000000
192456.000000
193343.000000
194327.000000
195329.000000
196273.000000
197276.000000
198305.000000
199289.000000
200302.000000
201336.000000
202322.000000
203308.000000
204319.000000
205272.000000
206239.000000
207239.000000
208186.000000
209141.000000
210115.000000
211045.000000
212008.000000
212993.000000
213929.000000
214883.000000
215864.000000
216796.000000
217747.000000
218719.000000
219652.000000
220578.000000
221531.000000
222464.000000
223351.000000
224278.000000
225100.000000
225902.000000
226719.000000
227523.000000
228414.000000
229353.000000
230283.000000
231219.000000
232166.000000
233047.000000
233966.000000
234913.000000
235824.000000
236763.000000
237755.000000
238689.000000
239643.000000
240626.000000
241562.000000
242545.000000
243528.000000
244453.000000
245423.000000
246421.000000
247399.000000
248293.000000
249269.000000
250281.000000
251266.000000
252184.000000
253153.000000
254145.000000
255090.000000
256073.000000
257092.000000
258078.000000
259042.000000
260029.000000
260993.000000
261910.000000
262903.000000
263893.000000
264850.000000
265866.000000
266862.000000
267789.000000
268748.000000
269701.000000
270616.000000
271579.000000
272555.000000
273492.000000
274470.000000
275466.000000
276404.000000
277360.000000
278331.000000
279257.000000
280216.000000
281189.000000
282112.000000
283052.000000
284015.000000
284955.000000
285898.000000
286857.000000
287806.000000
288708.000000
289635.000000
290584.000000
291485.000000
292427.000000
293378.000000
294288.000000
295236.000000
296204.000000
297121.000000
298047.000000
299016.000000
299965.000000
300883.000000
301843.000000
302813.000000
303732.000000
304679.000000
305644.000000
306571.000000
307519.000000
308492.000000
309446.000000
310376.000000
311348.000000
312324.000000
313244.000000
314209.000000
315207.000000
316134.000000
317089.000000
318072.000000
319001.000000
319958.000000
320935.000000
321847.000000
322791.000000
323740.000000
324647.000000
325599.000000
326580.000000
327516.000000
328494.000000
329463.000000
330370.000000
331333.000000
332294.000000
333201.000000
334135.000000
335077.000000
335991.000000
336945.000000
337933.000000
338864.000000
339825.000000
340808.000000
341732.000000
342703.000000
343693.000000
344619.000000
345538.000000
346483.000000
347421.000000
348318.000000
349315.000000
350313.000000
351241.000000
352202.000000
353174.000000
354106.000000
355036.000000
356004.000000
356965.000000
357879.000000
358841.000000
359798.000000
360704.000000
361636.000000
362577.000000
363495.000000
364465.000000
365488.000000
366457.000000
367435.000000
368431.000000
369365.000000
370316.000000
371285.000000
372197.000000
373039.000000
373810.000000
374636.000000
375496.000000
376375.000000
377333.000000
378288.000000
379192.000000
380176.000000
381191.000000
382124.000000
383079.000000
384042.000000
384939.000000
385878.000000
386844.000000
387767.000000
388721.000000
389696.000000
390603.000000
391543.000000
392508.000000
393452.000000
394365.000000
395313.000000
396251.000000
397123.000000
398027.000000
398968.000000
399867.000000
400810.000000
401780.000000
402716.000000
403678.000000
404668.000000
405622.000000
406587.000000
407554.000000
408471.000000
409398.000000
410350.000000
411242.000000
412128.000000
413041.000000
413945.000000
414811.000000
415746.000000
416673.000000
417543.000000
418466.000000
419433.000000
420345.000000
421298.000000
422262.000000
423160.000000
424106.000000
425060.000000
425960.000000
426854.000000
427804.000000
428738.000000
429685.000000
430690.000000
431641.000000
432591.000000
433582.000000
434532.000000
435472.000000
436464.000000
437444.000000
438358.000000
439311.000000
440272.000000
441185.000000
442169.000000
443201.000000
444180.000000
445166.000000
446180.000000
447158.000000
448084.000000
449052.000000
450007.000000
450932.000000
451900.000000
452908.000000
453868.000000
454863.000000
455864.000000
456802.000000
457745.000000
458731.000000
459752.000000
460735.000000
461767.000000
462814.000000
463787.000000
464798.000000
465837.000000
466835.000000
467779.000000
468760.000000
469760.000000
470691.000000
471665.000000
472661.000000
473612.000000
474614.000000
475640.000000
476594.000000
477573.000000
478564.000000
479497.000000
480456.000000
481404.000000
482307.000000
483258.000000
484244.000000
485166.000000
486098.000000
487070.000000
487993.000000
488938.000000
489927.000000
490866.000000
491823.000000
492850.000000
493854.000000
494779.000000
495753.000000
496744.000000
497669.000000
498630.000000
499604.000000
500554.000000
501533.000000
502539.000000
503463.000000
504425.000000
505387.000000
506312.000000
507308.000000
508356.000000
509358.000000
510311.000000
511334.000000
512360.000000
513315.000000
514291.000000
515289.000000
516251.000000
517167.000000
518153.000000
519126.000000
520029.000000
520982.000000
521969.000000
522904.000000
523880.000000
524894.000000
525841.000000
526823.000000
527865.000000
528845.000000
529813.000000
530827.000000
531830.000000
532774.000000
533773.000000
534772.000000
535722.000000
536695.000000
537705.000000
538649.000000
539562.000000
540498.000000
541428.000000
542330.000000
543322.000000
544310.000000
545260.000000
546276.000000
547282.000000
548264.000000
549276.000000
550249.000000
551181.000000
552146.000000
553115.000000
554016.000000
554971.000000
556021.000000
557025.000000
557948.000000
558925.000000
559908.000000
560841.000000
561806.000000
562805.000000
563750.000000
564675.000000
565673.000000
566682.000000
567644.000000
568630.000000
569639.000000
570599.000000
571500.000000
572448.000000
573432.000000
574370.000000
575328.000000
576309.000000
577251.000000
578218.000000
579210.000000
580158.000000
581135.000000
582122.000000
583074.000000
584031.000000
585023.000000
585968.000000
586945.000000
587945.000000
588888.000000
589852.000000
590837.000000
591773.000000
592715.000000
593706.000000
594673.000000
595629.000000
596602.000000
597526.000000
598464.000000
599440.000000
600386.000000
601349.000000
602344.000000
603317.000000
604265.000000
605246.000000
606214.000000
607097.000000
608017.000000
608972.000000
609915.000000
610899.000000
611900.000000
612846.000000
613833.000000
614818.000000
615743.000000
616682.000000
617656.000000
618600.000000
619509.000000
620459.000000
621411.000000
622298.000000
623243.000000
624234.000000
625179.000000
626173.000000
627195.000000
628165.000000
629162.000000
630198.000000
631198.000000
632135.000000
633136.000000
634175.000000
635143.000000
636137.000000
637180.000000
638181.000000
639132.000000
640136.000000
641150.000000
642099.000000
643083.000000
644087.000000
645005.000000
645962.000000
646999.000000
648026.000000
648988.000000
649969.000000
650951.000000
651869.000000
652840.000000
653866.000000
654822.000000
655766.000000
656777.000000
657761.000000
658653.000000
659612.000000
660625.000000
661610.000000
662532.000000
663512.000000
664490.000000
665419.000000
666380.000000
667357.000000
668292.000000
669284.000000
670298.000000
671284.000000
672211.000000
673188.000000
674169.000000
675117.000000
676059.000000
677029.000000
678001.000000
678922.000000
679860.000000
680828.000000
681755.000000
682715.000000
683701.000000
684657.000000
685615.000000
686610.000000
687563.000000
688493.000000
689457.000000
690435.000000
691362.000000
692326.000000
693323.000000
694301.000000
695240.000000
696244.000000
697257.000000
698209.000000
699181.000000
700133.000000
701008.000000
701935.000000
702912.000000
703879.000000
704781.000000
705718.000000
706665.000000
707586.000000
708504.000000
709441.000000
710348.000000
711223.000000
712168.000000
713165.000000
714096.000000
715052.000000
716031.000000
716990.000000
717945.000000
718918.000000
719860.000000
720750.000000
721684.000000
722632.000000
723535.000000
724447.000000
725248.000000
726055.000000
726919.000000
727776.000000
728551.000000
729349.000000
730255.000000
731219.000000
732162.000000
733034.000000
733944.000000
734863.000000
735734.000000
736654.000000
737616.000000
738573.000000
739477.000000
740406.000000
741340.000000
742216.000000
743116.000000
744039.000000
744940.000000
745813.000000
746739.000000
747682.000000
748577.000000
749520.000000
750508.000000
751433.000000
752371.000000
753350.000000
754324.000000
755222.000000
756159.000000
757089.000000
757976.000000
758814.000000
759692.000000
760585.000000
761465.000000
762363.000000
763297.000000
764205.000000
765064.000000
765969.000000
766869.000000
767732.000000
768631.000000
769567.000000
770498.000000
771372.000000
772273.000000
773180.000000
774051.000000
774977.000000
775968.000000
776944.000000
777863.000000
778836.000000
779816.000000
780738.000000
781668.000000
782633.000000
783614.000000
784527.000000
785443.000000
786395.000000
787304.000000
788222.000000
789169.000000
790072.000000
790965.000000
791918.000000
792861.000000
793774.000000
794738.000000
795692.000000
796582.000000
797537.000000
798520.000000
799444.000000
800401.000000
801387.000000
802309.000000
803269.000000
804263.000000
805206.000000
806101.000000
807053.000000
808043.000000
808962.000000
809902.000000
810882.000000
811841.000000
812752.000000
813705.000000
814678.000000
815588.000000
816518.000000
817478.000000
818394.000000
819351.000000
820336.000000
821264.000000
822092.000000
822883.000000
823764.000000
824883.000000
825965.000000
826997.000000
827960.000000
828943.000000
829934.000000
830902.000000
831810.000000
832773.000000
833756.000000
834723.000000
835643.000000
836608.000000
837622.000000
838629.000000
839569.000000
840556.000000
841551.000000
842493.000000
843490.000000
844520.000000
845528.000000
846452.000000
847432.000000
848427.000000
849384.000000
850292.000000
851248.000000
852224.000000
853131.000000
854094.000000
855058.000000
855977.000000
856877.000000
857850.000000
858861.000000
859814.000000
860716.000000
861663.000000
862598.000000
863484.000000
864422.000000
865386.000000
866318.000000
867265.000000
868212.000000
869114.000000
870074.000000
871043.000000
871951.000000
872915.000000
873883.000000
874780.000000
875740.000000
876738.000000
877657.000000
878589.000000
879546.000000
880505.000000
881473.000000
882437.000000
883357.000000
884362.000000
885394.000000
886346.000000
887341.000000
888329.000000
889267.000000
890241.000000
891199.000000
892091.000000
893029.000000
894041.000000
894970.000000
895976.000000
896972.000000
897923.000000
898920.000000
899897.000000
900834.000000
901812.000000
902766.000000
903653.000000
904606.000000
905572.000000
906504.000000
907493.000000
908502.000000
909445.000000
910406.000000
911379.000000
912310.000000
913284.000000
914288.000000
915240.000000
916179.000000
917162.000000
918092.000000
919013.000000
919969.000000
920880.000000
921790.000000
922752.000000
923720.000000
924658.000000
925692.000000
926724.000000
927672.000000
928689.000000
929690.000000
930625.000000
931621.000000
932612.000000
933529.000000
934501.000000
935493.000000
936414.000000
937421.000000
938467.000000
939472.000000
940436.000000
941427.000000
942420.000000
943373.000000
944367.000000
945376.000000
946341.000000
947318.000000
948303.000000
949256.000000
950221.000000
951238.000000
952241.000000
953221.000000
954237.000000
955229.000000
956155.000000
957156.000000
958174.000000
959133.000000
960101.000000
961096.000000
962046.000000
962961.000000
963940.000000
964930.000000
965863.000000
966866.000000
967915.000000
968863.000000
969819.000000
970840.000000
971873.000000
972881.000000
974016.000000
975163.000000
976235.000000
977403.000000
978519.000000
979565.000000
980679.000000
981757.000000
982794.000000
983894.000000
984931.000000
985936.000000
986993.000000
988022.000000
988981.000000
989994.000000
990993.000000
991943.000000
992981.000000
994009.000000
995000.000000
996057.000000
997068.000000
998083.000000
999164.000000
1000203.000000
1001208.000000
1002271.000000
1003300.000000
1004285.000000
1005316.000000
1006313.000000
1007264.000000
1008283.000000
1009283.000000
1010247.000000
1011287.000000
1012300.000000
1013239.000000
1014231.000000
1015245.000000
1016195.000000
1017209.000000
1018243.000000
1019203.000000
1020240.000000
1021304.000000
1022285.000000
1023308.000000
1024344.000000
1025312.000000
1026319.000000
1027334.000000
1028268.000000
1029255.000000
1030279.000000
1031254.000000
1032287.000000
1033333.000000
1034312.000000
1035360.000000
1036399.000000
1037380.000000
1038413.000000
1039451.000000
1040429.000000
1041463.000000
1042481.000000
1043413.000000
1044422.000000
1045455.000000
1046421.000000
1047431.000000
1048471.000000
1049457.000000
1050428.000000
1051431.000000
1052387.000000
1053391.000000
1054403.000000
1055352.000000
1056312.000000
1057297.000000
1058244.000000
1059217.000000
1060214.000000
1061206.000000
1062152.000000
1063157.000000
1064160.000000
1065112.000000
1066122.000000
1067130.000000
1068109.000000
1069135.000000
1070125.000000
1071098.000000
1072109.000000
1073108.000000
1074063.000000
1075095.000000
1076137.000000
1077110.000000
1078142.000000
1079199.000000
1080199.000000
1081233.000000
1082256.000000
1083208.000000
1084200.000000
1085231.000000
1086211.000000
1087212.000000
1088251.000000
1089214.000000
1090215.000000
1091275.000000
1092282.000000
1093327.000000
1094362.000000
1095326.000000
1096341.000000
1097321.000000
1098262.000000
1099265.000000
1100260.000000
1101181.000000
1102192.000000
1103166.000000
1104053.000000
1104932.000000
1105844.000000
1106828.000000
1107908.000000
1108984.000000
1109990.000000
1111080.000000
1112173.000000
1113210.000000
1114299.000000
1115346.000000
1116378.000000
1117406.000000
1118285.000000
1119163.000000
1120083.000000
1121053.000000
1122113.000000
1123093.000000
1123983.000000
1124932.000000
1125952.000000
1126891.000000
1127913.000000
1128925.000000
1129862.000000
1130889.000000
1131885.000000
1132812.000000
1133852.000000
1134892.000000
1135869.000000
1136874.000000
1137916.000000
1138869.000000
1139871.000000
1140910.000000
1141898.000000
1142844.000000
1143914.000000
1144967.000000
1145965.000000
1147011.000000
1148053.000000
1149040.000000
1150091.000000
1151135.000000
1152089.000000
1153105.000000
1154147.000000
1155133.000000
1156140.000000
1157172.000000
1158138.000000
1159129.000000
1160209.000000
1161270.000000
1162276.000000
1163239.000000
1164247.000000
1165262.000000
1166207.000000
1167213.000000
1168235.000000
1169199.000000
1170232.000000
1171271.000000
1172259.000000
1173252.000000
1174264.000000
1175219.000000
1176193.000000
1177201.000000
1178169.000000
1179082.000000
1180081.000000
1181097.000000
1182056.000000
1183074.000000
1184117.000000
1185098.000000
1186109.000000
1187156.000000
1188132.000000
1189133.000000
1190162.000000
1191146.000000
1192144.000000
1193154.000000
1194088.000000
