ECG (ms)
930.000000
1813.000000
2675.000000
3568.000000
4524.000000
5586.000000
6568.000000
7564.000000
8568.000000
9567.000000
10477.000000
11365.000000
12299.000000
13296.000000
14319.000000
15337.000000
16304.000000
17244.000000
18230.000000
19262.000000
20246.000000
21187.000000
22088.000000
22947.000000
23849.000000
24829.000000
25819.000000
26767.000000
27651.000000
28549.000000
29458.000000
30384.000000
31305.000000
32260.000000
33291.000000
34360.000000
35421.000000
36432.000000
37453.000000
38475.000000
39447.000000
40381.000000
41296.000000
42250.000000
43261.000000
44278.000000
45212.000000
46105.000000
47018.000000
48036.000000
49100.000000
50123.000000
51105.000000
52135.000000
53142.000000
54112.000000
55021.000000
55939.000000
56957.000000
57948.000000
58896.000000
59805.000000
60763.000000
61751.000000
62696.000000
63586.000000
64515.000000
65479.000000
66421.000000
67381.000000
68393.000000
69410.000000
70386.000000
71336.000000
72263.000000
73200.000000
74179.000000
75166.000000
76144.000000
77194.000000
78282.000000
79328.000000
80342.000000
81299.000000
82241.000000
83214.000000
84189.000000
85144.000000
86052.000000
86959.000000
87879.000000
88847.000000
89793.000000
90722.000000
91599.000000
92470.000000
93416.000000
94381.000000
95341.000000
96265.000000
97115.000000
97915.000000
98759.000000
99705.000000
100680.000000
101612.000000
102514.000000
103458.000000
104383.000000
105299.000000
106185.000000
107058.000000
107995.000000
108977.000000
109963.000000
110906.000000
111801.000000
112690.000000
113616.000000
114572.000000
115484.000000
116374.000000
117253.000000
118173.000000
119131.000000
120090.000000
121015.000000
121920.000000
122904.000000
123922.000000
124889.000000
125782.000000
126659.000000
127576.000000
128517.000000
129507.000000
130452.000000
131358.000000
132336.000000
133341.000000
134275.000000
135181.000000
136136.000000
137123.000000
138056.000000
139005.000000
140015.000000
141017.000000
141939.000000
142860.000000
143824.000000
144820.000000
145757.000000
146738.000000
147753.000000
148716.000000
149629.000000
150566.000000
151557.000000
152564.000000
153514.000000
154483.000000
155459.000000
156437.000000
157361.000000
158248.000000
159186.000000
160179.000000
161112.000000
161988.000000
162937.000000
163976.000000
164949.000000
165906.000000
166905.000000
167931.000000
168909.000000
169811.000000
170704.000000
171609.000000
172553.000000
173508.000000
174473.000000
175469.000000
176450.000000
177369.000000
178369.000000
179415.000000
180376.000000
181389.000000
182382.000000
183287.000000
184219.000000
185200.000000
186202.000000
187118.000000
188076.000000
189064.000000
190051.000000
191036.000000
191989.000000
192962.000000
193942.000000
194877.000000
195774.000000
196697.000000
197716.000000
198711.000000
199816.000000
200887.000000
201883.000000
202881.000000
203874.000000
204779.000000
205803.000000
206830.000000
207809.000000
208835.000000
209859.000000
210803.000000
211879.000000
212893.000000
213880.000000
214926.000000
215968.000000
216949.000000
218000.000000
219016.000000
219938.000000
220893.000000
221871.000000
222760.000000
223745.000000
224800.000000
225769.000000
226802.000000
227822.000000
228758.000000
229743.000000
230764.000000
231729.000000
232761.000000
233848.000000
234858.000000
235881.000000
236898.000000
237845.000000
238800.000000
239717.000000
240619.000000
241738.000000
242815.000000
243875.000000
245067.000000
246181.000000
247313.000000
248439.000000
249448.000000
250542.000000
251576.000000
252550.000000
253583.000000
254621.000000
255633.000000
256660.000000
257705.000000
258787.000000
259782.000000
260782.000000
261802.000000
262795.000000
263747.000000
264746.000000
265758.000000
266735.000000
267714.000000
268719.000000
269789.000000
270768.000000
271716.000000
272684.000000
273681.000000
274699.000000
275612.000000
276522.000000
277428.000000
278405.000000
279366.000000
280270.000000
281222.000000
282198.000000
283135.000000
284032.000000
284976.000000
285970.000000
286974.000000
287937.000000
288932.000000
289934.000000
290894.000000
291797.000000
292727.000000
293698.000000
294612.000000
295535.000000
296526.000000
297519.000000
298506.000000
299521.000000
300448.000000
301381.000000
302388.000000
303355.000000
304300.000000
305267.000000
306235.000000
307160.000000
308115.000000
309056.000000
309980.000000
310917.000000
311857.000000
312749.000000
313692.000000
314695.000000
315689.000000
316681.000000
317750.000000
318763.000000
319724.000000
320676.000000
321665.000000
322586.000000
323563.000000
324635.000000
325671.000000
326663.000000
327663.000000
328615.000000
329488.000000
330385.000000
331366.000000
332338.000000
333302.000000
334333.000000
335399.000000
336450.000000
337382.000000
338320.000000
339266.000000
340186.000000
341146.000000
342214.000000
343259.000000
344377.000000
345492.000000
346505.000000
347560.000000
348555.000000
349484.000000
350449.000000
351422.000000
352355.000000
353454.000000
354492.000000
355464.000000
356473.000000
357399.000000
358339.000000
359319.000000
360313.000000
361262.000000
362210.000000
363137.000000
364134.000000
365251.000000
366282.000000
367366.000000
368434.000000
369463.000000
370546.000000
371622.000000
372649.000000
373694.000000
374743.000000
375711.000000
376671.000000
377686.000000
378694.000000
379647.000000
380630.000000
381647.000000
382613.000000
383510.000000
384484.000000
385471.000000
386413.000000
387432.000000
388490.000000
389491.000000
390419.000000
391395.000000
392392.000000
393316.000000
394210.000000
395192.000000
396224.000000
397200.000000
398186.000000
399219.000000
400163.000000
401035.000000
401925.000000
402873.000000
403781.000000
404737.000000
405808.000000
406813.000000
407911.000000
408961.000000
409987.000000
411029.000000
412001.000000
412920.000000
413843.000000
414755.000000
415640.000000
416545.000000
417516.000000
418446.000000
419527.000000
420648.000000
421682.000000
422738.000000
423836.000000
424931.000000
425966.000000
426993.000000
428046.000000
429112.000000
430132.000000
431174.000000
432234.000000
433261.000000
434213.000000
435212.000000
436232.000000
437205.000000
438210.000000
439249.000000
440293.000000
441273.000000
442285.000000
443277.000000
444221.000000
445159.000000
446197.000000
447218.000000
448193.000000
449246.000000
450321.000000
451381.000000
452359.000000
453348.000000
454374.000000
455336.000000
456365.000000
457432.000000
458481.000000
459577.000000
460658.000000
461711.000000
462725.000000
463766.000000
464814.000000
465882.000000
466902.000000
467896.000000
468908.000000
469896.000000
470856.000000
471739.000000
472585.000000
473575.000000
474691.000000
475739.000000
476839.000000
477959.000000
479020.000000
480081.000000
481216.000000
482312.000000
483382.000000
484511.000000
485595.000000
486659.000000
487775.000000
488875.000000
489894.000000
490924.000000
491962.000000
492993.000000
493975.000000
495021.000000
496113.000000
497191.000000
498213.000000
499219.000000
500248.000000
501304.000000
502317.000000
503300.000000
504325.000000
505355.000000
506351.000000
507306.000000
508318.000000
509367.000000
510349.000000
511372.000000
512436.000000
513442.000000
514485.000000
515538.000000
516513.000000
517559.000000
518614.000000
519591.000000
520578.000000
521568.000000
522499.000000
523470.000000
524514.000000
525491.000000
526578.000000
527638.000000
528582.000000
529546.000000
530564.000000
531520.000000
532530.000000
533557.000000
534484.000000
535432.000000
536388.000000
537301.000000
538257.000000
539265.000000
540231.000000
541195.000000
542225.000000
543248.000000
544214.000000
545213.000000
546235.000000
547202.000000
548219.000000
549268.000000
550274.000000
551296.000000
552324.000000
553284.000000
554239.000000
555290.000000
556287.000000
557296.000000
558339.000000
559358.000000
560337.000000
561323.000000
562308.000000
563233.000000
564131.000000
565170.000000
566167.000000
567128.000000
568140.000000
569140.000000
570094.000000
571101.000000
572135.000000
573098.000000
574095.000000
575052.000000
576036.000000
577116.000000
578206.000000
579271.000000
580366.000000
581461.000000
582499.000000
583586.000000
584552.000000
585508.000000
586558.000000
587613.000000
588664.000000
589768.000000
590800.000000
591828.000000
592853.000000
593811.000000
594783.000000
595792.000000
596830.000000
597857.000000
598960.000000
599998.000000
600935.000000
601872.000000
602866.000000
603855.000000
604892.000000
605950.000000
606963.000000
608060.000000
609169.000000
610222.000000
611288.000000
612398.000000
613443.000000
614557.000000
615685.000000
616737.000000
617824.000000
618906.000000
619899.000000
620919.000000
621944.000000
622910.000000
623918.000000
624965.000000
626012.000000
627051.000000
628116.000000
629228.000000
630323.000000
631309.000000
632297.000000
633303.000000
634317.000000
635319.000000
636282.000000
637270.000000
638290.000000
639378.000000
640413.000000
641420.000000
642429.000000
643479.000000
644507.000000
645516.000000
646517.000000
647574.000000
648653.000000
649722.000000
650788.000000
651886.000000
652964.000000
654011.000000
654983.000000
655876.000000
656909.000000
657906.000000
658860.000000
659801.000000
660809.000000
661848.000000
662858.000000
663938.000000
664998.000000
666010.000000
667064.000000
668097.000000
669059.000000
670093.000000
671119.000000
672066.000000
673111.000000
674165.000000
675184.000000
676285.000000
677347.000000
678355.000000
679440.000000
680484.000000
681470.000000
682511.000000
683513.000000
684428.000000
685410.000000
686497.000000
687492.000000
688583.000000
689665.000000
690665.000000
691707.000000
692702.000000
693671.000000
694660.000000
695648.000000
696565.000000
697530.000000
698543.000000
699511.000000
700551.000000
701562.000000
702518.000000
703531.000000
704514.000000
705451.000000
706402.000000
707402.000000
708349.000000
709387.000000
710410.000000
711365.000000
712427.000000
713474.000000
714408.000000
715385.000000
716403.000000
717365.000000
718448.000000
719566.000000
720576.000000
721655.000000
722722.000000
723718.000000
724735.000000
725777.000000
726754.000000
727786.000000
728843.000000
729850.000000
730890.000000
731945.000000
732935.000000
733970.000000
735023.000000
736010.000000
737020.000000
738031.000000
738914.000000
739810.000000
740828.000000
741867.000000
742948.000000
744069.000000
745101.000000
746157.000000
747235.000000
748313.000000
749376.000000
750406.000000
751446.000000
752511.000000
753542.000000
754547.000000
755489.000000
756352.000000
757328.000000
758376.000000
759384.000000
760437.000000
761513.000000
762515.000000
763575.000000
764609.000000
765570.000000
766614.000000
767627.000000
768592.000000
769635.000000
770613.000000
771552.000000
772539.000000
773562.000000
774514.000000
775507.000000
776530.000000
777510.000000
778537.000000
779563.000000
780550.000000
781572.000000
782589.000000
783562.000000
784589.000000
785624.000000
786577.000000
787545.000000
788546.000000
789499.000000
790558.000000
791602.000000
792617.000000
793733.000000
794799.000000
795791.000000
796830.000000
797873.000000
798869.000000
799842.000000
800867.000000
801954.000000
802985.000000
803980.000000
805026.000000
806094.000000
807141.000000
808139.000000
809176.000000
810196.000000
811177.000000
812132.000000
813149.000000
814218.000000
815236.000000
816262.000000
817322.000000
818393.000000
819424.000000
820501.000000
821569.000000
822604.000000
823600.000000
824658.000000
825707.000000
826759.000000
827767.000000
828793.000000
829843.000000
830844.000000
831845.000000
832893.000000
833901.000000
834904.000000
835926.000000
836942.000000
837948.000000
839016.000000
840078.000000
841050.000000
842055.000000
843063.000000
843946.000000
844920.000000
845923.000000
846870.000000
847850.000000
848920.000000
849865.000000
850839.000000
851837.000000
852831.000000
853881.000000
854944.000000
855947.000000
856987.000000
858028.000000
858981.000000
859969.000000
860987.000000
861930.000000
862926.000000
863937.000000
864979.000000
865978.000000
866986.000000
868023.000000
869038.000000
870006.000000
871015.000000
872031.000000
872993.000000
874015.000000
875067.000000
876052.000000
877091.000000
878104.000000
879105.000000
880168.000000
881237.000000
882244.000000
883270.000000
884323.000000
885297.000000
886267.000000
887269.000000
888319.000000
889321.000000
890354.000000
891418.000000
892460.000000
893458.000000
894507.000000
895591.000000
896607.000000
897628.000000
898678.000000
899695.000000
900668.000000
901665.000000
902664.000000
903633.000000
904680.000000
905744.000000
906751.000000
907818.000000
908908.000000
909922.000000
910970.000000
911986.000000
912974.000000
913993.000000
915023.000000
916028.000000
917114.000000
918235.000000
919297.000000
920391.000000
921436.000000
922426.000000
923431.000000
924452.000000
925400.000000
926399.000000
927449.000000
928480.000000
929624.000000
930734.000000
931796.000000
932929.000000
934027.000000
935074.000000
936142.000000
937170.000000
938156.000000
939209.000000
940279.000000
941283.000000
942355.000000
943416.000000
944439.000000
945499.000000
946542.000000
947586.000000
948622.000000
949701.000000
950793.000000
951842.000000
952879.000000
953955.000000
955021.000000
956026.000000
957076.000000
958146.000000
959193.000000
960266.000000
961363.000000
962373.000000
963486.000000
964601.000000
965636.000000
966679.000000
967720.000000
968719.000000
969787.000000
970901.000000
971944.000000
973021.000000
974148.000000
975214.000000
976245.000000
977296.000000
978344.000000
979378.000000
980375.000000
981422.000000
982567.000000
983663.000000
984701.000000
985764.000000
986866.000000
987878.000000
988884.000000
989905.000000
990948.000000
991960.000000
992973.000000
994037.000000
995136.000000
996218.000000
997226.000000
998263.000000
999316.000000
1000365.000000
1001373.000000
1002440.000000
1003558.000000
1004635.000000
1005658.000000
1006728.000000
1007819.000000
1008857.000000
1009854.000000
1010875.000000
1011935.000000
1013012.000000
1014039.000000
1015045.000000
1016118.000000
1017209.000000
1018270.000000
1019274.000000
1020274.000000
1021350.000000
1022457.000000
1023550.000000
1024614.000000
1025721.000000
1026830.000000
1027874.000000
1028895.000000
1029973.000000
1031088.000000
1032172.000000
1033178.000000
1034198.000000
1035191.000000
1036112.000000
1037004.000000
1038119.000000
1039264.000000
1040346.000000
1041490.000000
1042673.000000
1043763.000000
1044807.000000
1045893.000000
1046935.000000
1047952.000000
1049046.000000
1050195.000000
1051305.000000
1052389.000000
1053457.000000
1054485.000000
1055574.000000
1056631.000000
1057682.000000
1058777.000000
1059841.000000
1060919.000000
1062040.000000
1063087.000000
1064100.000000
1065159.000000
1066219.000000
1067223.000000
1068357.000000
1069493.000000
1070610.000000
1071764.000000
1072911.000000
1073987.000000
1075109.000000
1076218.000000
1077260.000000
1078353.000000
1079406.000000
1080433.000000
1081518.000000
1082598.000000
1083645.000000
1084775.000000
1085868.000000
1086888.000000
1087966.000000
1089016.000000
1090024.000000
1091080.000000
1092109.000000
1093148.000000
1094233.000000
1095267.000000
1096349.000000
1097448.000000
1098513.000000
1099603.000000
1100715.000000
1101760.000000
1102838.000000
1103913.000000
1104949.000000
1106014.000000
1107086.000000
1108155.000000
1109151.000000
1110175.000000
1111230.000000
1112283.000000
1113305.000000
1114430.000000
1115567.000000
1116609.000000
1117639.000000
1118668.000000
1119738.000000
1120848.000000
1122097.000000
1123314.000000
1124462.000000
1125647.000000
1126844.000000
1127930.000000
1129026.000000
1130131.000000
1131192.000000
1132288.000000
1133401.000000
1134521.000000
1135578.000000
1136714.000000
1137837.000000
1138911.000000
1140077.000000
1141204.000000
1142278.000000
1143355.000000
1144472.000000
1145528.000000
1146518.000000
1147579.000000
1148682.000000
1149749.000000
1150820.000000
1151959.000000
1153069.000000
1154096.000000
1155130.000000
1156229.000000
1157328.000000
1158367.000000
1159441.000000
1160533.000000
1161600.000000
1162673.000000
1163815.000000
1164824.000000
1165797.000000
1166823.000000
1167901.000000
1168943.000000
1169997.000000
1171099.000000
1172164.000000
1173199.000000
1174303.000000
1175409.000000
1176473.000000
1177668.000000
1178803.000000
1179896.000000
1181065.000000
1182146.000000
1183228.000000
1184342.000000
1185335.000000
1186442.000000
1187560.000000
1188644.000000
1189756.000000
1190821.000000
1191916.000000
1193041.000000
1194105.000000
