ECG (ms)
590.000000
1433.000000
2224.000000
2998.000000
3726.000000
4425.000000
5130.000000
5847.000000
6557.000000
7272.000000
7989.000000
8735.000000
9485.000000
10242.000000
11020.000000
11762.000000
12488.000000
13221.000000
13960.000000
14675.000000
15384.000000
16110.000000
16870.000000
17651.000000
18403.000000
19178.000000
19979.000000
20771.000000
21524.000000
22265.000000
23028.000000
23824.000000
24630.000000
25389.000000
26159.000000
26972.000000
27783.000000
28551.000000
29310.000000
30045.000000
30780.000000
31508.000000
32225.000000
32907.000000
33628.000000
34448.000000
35243.000000
36083.000000
36995.000000
37929.000000
38838.000000
39629.000000
40392.000000
41163.000000
41964.000000
42763.000000
43620.000000
44632.000000
45661.000000
46544.000000
47417.000000
48272.000000
49105.000000
49914.000000
50742.000000
51611.000000
52521.000000
53396.000000
54220.000000
55058.000000
55921.000000
56769.000000
57572.000000
58410.000000
59291.000000
60193.000000
61038.000000
61928.000000
62891.000000
63800.000000
64654.000000
65533.000000
66457.000000
67296.000000
68153.000000
69085.000000
70074.000000
70970.000000
71905.000000
72859.000000
73723.000000
74630.000000
75549.000000
76409.000000
77234.000000
78132.000000
79058.000000
79901.000000
80779.000000
81697.000000
82573.000000
83388.000000
84229.000000
85105.000000
85915.000000
86748.000000
87591.000000
88432.000000
89229.000000
90055.000000
90949.000000
91863.000000
92723.000000
93627.000000
94555.000000
95415.000000
96220.000000
97045.000000
97904.000000
98765.000000
99616.000000
100525.000000
101478.000000
102412.000000
103288.000000
104176.000000
105100.000000
106007.000000
106853.000000
107729.000000
108640.000000
109607.000000
110521.000000
111505.000000
112519.000000
113484.000000
114368.000000
115253.000000
116153.000000
116994.000000
117878.000000
118870.000000
119892.000000
120795.000000
121691.000000
122601.000000
123452.000000
124253.000000
125098.000000
126028.000000
126925.000000
127768.000000
128624.000000
129530.000000
130418.000000
131254.000000
132117.000000
133010.000000
133889.000000
134701.000000
135545.000000
136437.000000
137330.000000
138144.000000
139001.000000
139945.000000
140853.000000
141726.000000
142656.000000
143648.000000
144548.000000
145448.000000
146334.000000
147163.000000
147943.000000
148735.000000
149567.000000
150393.000000
151235.000000
152137.000000
153099.000000
153965.000000
154849.000000
155773.000000
156677.000000
157562.000000
158498.000000
159421.000000
160257.000000
161089.000000
161911.000000
162730.000000
163530.000000
164409.000000
165452.000000
166398.000000
167374.000000
168353.000000
169260.000000
170083.000000
170927.000000
171790.000000
172663.000000
173482.000000
174328.000000
175227.000000
176200.000000
177118.000000
178128.000000
179157.000000
180062.000000
180984.000000
181857.000000
182654.000000
183377.000000
184065.000000
184767.000000
185583.000000
186553.000000
187463.000000
188446.000000
189471.000000
190429.000000
191343.000000
192282.000000
193218.000000
194053.000000
194898.000000
195755.000000
196640.000000
197464.000000
198317.000000
199238.000000
200196.000000
201072.000000
201996.000000
202934.000000
203776.000000
204612.000000
205477.000000
206454.000000
207392.000000
208433.000000
209494.000000
210424.000000
211367.000000
212278.000000
213120.000000
213972.000000
214853.000000
215721.000000
216527.000000
217363.000000
218260.000000
219134.000000
220013.000000
220968.000000
221926.000000
222813.000000
223708.000000
224598.000000
225404.000000
226229.000000
227068.000000
227951.000000
228796.000000
229713.000000
230701.000000
231591.000000
232506.000000
233421.000000
234247.000000
235078.000000
235932.000000
236803.000000
237643.000000
238532.000000
239472.000000
240393.000000
241237.000000
242097.000000
242965.000000
243824.000000
244640.000000
245489.000000
246384.000000
247230.000000
248106.000000
249029.000000
249883.000000
250690.000000
251504.000000
252333.000000
253184.000000
254025.000000
254965.000000
256000.000000
256944.000000
257913.000000
258875.000000
259707.000000
260531.000000
261346.000000
262152.000000
262943.000000
263787.000000
264731.000000
265657.000000
266642.000000
267602.000000
268464.000000
269314.000000
270165.000000
270960.000000
271782.000000
272634.000000
273468.000000
274274.000000
275111.000000
275998.000000
276864.000000
277693.000000
278555.000000
279425.000000
280233.000000
281059.000000
281901.000000
282724.000000
283515.000000
284339.000000
285189.000000
286080.000000
286925.000000
287806.000000
288708.000000
289545.000000
290370.000000
291203.000000
292050.000000
292866.000000
293743.000000
294707.000000
295611.000000
296550.000000
297482.000000
298311.000000
299154.000000
300033.000000
300933.000000
301774.000000
302675.000000
303716.000000
304653.000000
305631.000000
306627.000000
307502.000000
308390.000000
309245.000000
310061.000000
310878.000000
311715.000000
312612.000000
313490.000000
314427.000000
315422.000000
316369.000000
317262.000000
318175.000000
319083.000000
319919.000000
320771.000000
321614.000000
322457.000000
323266.000000
324128.000000
325086.000000
326018.000000
326983.000000
327982.000000
328899.000000
329851.000000
330765.000000
331624.000000
332504.000000
333402.000000
334252.000000
335133.000000
336034.000000
336947.000000
337808.000000
338703.000000
339606.000000
340457.000000
341273.000000
342122.000000
342992.000000
343803.000000
344627.000000
345483.000000
346378.000000
347207.000000
348061.000000
348915.000000
349711.000000
350499.000000
351301.000000
352121.000000
352896.000000
353722.000000
354622.000000
355537.000000
356394.000000
357314.000000
358264.000000
359153.000000
360057.000000
360994.000000
361838.000000
362685.000000
363514.000000
364321.000000
365107.000000
365914.000000
366792.000000
367676.000000
368567.000000
369517.000000
370473.000000
371353.000000
372200.000000
373050.000000
373979.000000
374851.000000
375684.000000
376524.000000
377362.000000
378217.000000
379015.000000
379849.000000
380737.000000
381695.000000
382643.000000
383616.000000
384536.000000
385357.000000
386173.000000
386985.000000
387787.000000
388583.000000
389432.000000
390389.000000
391392.000000
392299.000000
393214.000000
394123.000000
394967.000000
395825.000000
396701.000000
397562.000000
398365.000000
399186.000000
400013.000000
400816.000000
401631.000000
402535.000000
403533.000000
404464.000000
405438.000000
406431.000000
407333.000000
408177.000000
409025.000000
409892.000000
410722.000000
411596.000000
412594.000000
413563.000000
414480.000000
415417.000000
416345.000000
417203.000000
418080.000000
419025.000000
419974.000000
420852.000000
421743.000000
422666.000000
423524.000000
424415.000000
425356.000000
426293.000000
427167.000000
428086.000000
429046.000000
429912.000000
430797.000000
431720.000000
432628.000000
433478.000000
434343.000000
435258.000000
436165.000000
437203.000000
438304.000000
439292.000000
440273.000000
441236.000000
442101.000000
442976.000000
443842.000000
444708.000000
445541.000000
446432.000000
447417.000000
448403.000000
449326.000000
450291.000000
451232.000000
452092.000000
452964.000000
453841.000000
454711.000000
455569.000000
456521.000000
457539.000000
458472.000000
459447.000000
460421.000000
461322.000000
462229.000000
463124.000000
463957.000000
464797.000000
465670.000000
466597.000000
467469.000000
468408.000000
469382.000000
470350.000000
471232.000000
472157.000000
473077.000000
473911.000000
474771.000000
475651.000000
476500.000000
477322.000000
478173.000000
479058.000000
479939.000000
480794.000000
481666.000000
482586.000000
483431.000000
484306.000000
485209.000000
486095.000000
486928.000000
487776.000000
488632.000000
489461.000000
490273.000000
491128.000000
492005.000000
492838.000000
493669.000000
494532.000000
495431.000000
496258.000000
497062.000000
497840.000000
498565.000000
499283.000000
500008.000000
500744.000000
501530.000000
502367.000000
503149.000000
503946.000000
504761.000000
505584.000000
506391.000000
507192.000000
508005.000000
508846.000000
509661.000000
510469.000000
511330.000000
512341.000000
513189.000000
514093.000000
515011.000000
515890.000000
516722.000000
517595.000000
518520.000000
519408.000000
520239.000000
521107.000000
522044.000000
522912.000000
523850.000000
524854.000000
525907.000000
526824.000000
527759.000000
528720.000000
529633.000000
530541.000000
531524.000000
532509.000000
533373.000000
534276.000000
535215.000000
536181.000000
537057.000000
538042.000000
539085.000000
540066.000000
540994.000000
541926.000000
542854.000000
543763.000000
544632.000000
545542.000000
546491.000000
547406.000000
548308.000000
549233.000000
550147.000000
551018.000000
551930.000000
552886.000000
553765.000000
554668.000000
555601.000000
556478.000000
557340.000000
558214.000000
559105.000000
559980.000000
560918.000000
561859.000000
562737.000000
563587.000000
564474.000000
565412.000000
566290.000000
567177.000000
568108.000000
569050.000000
569932.000000
570829.000000
571761.000000
572675.000000
573526.000000
574392.000000
575297.000000
576227.000000
577116.000000
578041.000000
578983.000000
579856.000000
580755.000000
581662.000000
582504.000000
583308.000000
584114.000000
584975.000000
585931.000000
586844.000000
587804.000000
588804.000000
589735.000000
590731.000000
591742.000000
592643.000000
593555.000000
594513.000000
595432.000000
596298.000000
597195.000000
598106.000000
598988.000000
599915.000000
600878.000000
601818.000000
602712.000000
603662.000000
604631.000000
605509.000000
606404.000000
607333.000000
608226.000000
609092.000000
610008.000000
611026.000000
612023.000000
613031.000000
614063.000000
615084.000000
615996.000000
616933.000000
617851.000000
618713.000000
619599.000000
620526.000000
621457.000000
622351.000000
623299.000000
624276.000000
625167.000000
626091.000000
627042.000000
627957.000000
628803.000000
629661.000000
630548.000000
631453.000000
632339.000000
633308.000000
634301.000000
635218.000000
636160.000000
637113.000000
637984.000000
638869.000000
639777.000000
640670.000000
641505.000000
642370.000000
643293.000000
644183.000000
645042.000000
645943.000000
646885.000000
647784.000000
648724.000000
649712.000000
650667.000000
651555.000000
652477.000000
653391.000000
654260.000000
655170.000000
656122.000000
657107.000000
658030.000000
659017.000000
659980.000000
660840.000000
661711.000000
662596.000000
663453.000000
664286.000000
665149.000000
666079.000000
666949.000000
667873.000000
668877.000000
669799.000000
670679.000000
671573.000000
672482.000000
673319.000000
674175.000000
675053.000000
675927.000000
676767.000000
677650.000000
678660.000000
679568.000000
680519.000000
681511.000000
682436.000000
683284.000000
684116.000000
684964.000000
685810.000000
686640.000000
687543.000000
688565.000000
689513.000000
690513.000000
691535.000000
692422.000000
693300.000000
694193.000000
695047.000000
695886.000000
696791.000000
697902.000000
698900.000000
699950.000000
700986.000000
701861.000000
702741.000000
703621.000000
704485.000000
705342.000000
706284.000000
707337.000000
708287.000000
709273.000000
710290.000000
711200.000000
712142.000000
713099.000000
713977.000000
714894.000000
715891.000000
716825.000000
717791.000000
718743.000000
719596.000000
720446.000000
721354.000000
722319.000000
723207.000000
724077.000000
725031.000000
726092.000000
727105.000000
727953.000000
728748.000000
729593.000000
730477.000000
731419.000000
732410.000000
733339.000000
734198.000000
735074.000000
735968.000000
736864.000000
737770.000000
738744.000000
739793.000000
740782.000000
741689.000000
742599.000000
743561.000000
744545.000000
745446.000000
746381.000000
747373.000000
748344.000000
749237.000000
750126.000000
751026.000000
751891.000000
752789.000000
753775.000000
754809.000000
755728.000000
756660.000000
757603.000000
758466.000000
759287.000000
760112.000000
760983.000000
761860.000000
762799.000000
763893.000000
764952.000000
765910.000000
766854.000000
767810.000000
768671.000000
769502.000000
770349.000000
771243.000000
772117.000000
773066.000000
774149.000000
775186.000000
776157.000000
777147.000000
778091.000000
778945.000000
779810.000000
780676.000000
781533.000000
782357.000000
783250.000000
784261.000000
785252.000000
786163.000000
787104.000000
788070.000000
788930.000000
789797.000000
790696.000000
791590.000000
792438.000000
793329.000000
794301.000000
795258.000000
796216.000000
797211.000000
798157.000000
798996.000000
799843.000000
800718.000000
801587.000000
802485.000000
803489.000000
804482.000000
805389.000000
806319.000000
807282.000000
808155.000000
809031.000000
809939.000000
810816.000000
811641.000000
812498.000000
813369.000000
814246.000000
815092.000000
815960.000000
816890.000000
817772.000000
818689.000000
819609.000000
820473.000000
821295.000000
822140.000000
823051.000000
823916.000000
824773.000000
825667.000000
826533.000000
827334.000000
828153.000000
828972.000000
829778.000000
830649.000000
831634.000000
832577.000000
833580.000000
834595.000000
835503.000000
836397.000000
837310.000000
838158.000000
838954.000000
839770.000000
840623.000000
841542.000000
842399.000000
843283.000000
844229.000000
845177.000000
846033.000000
846896.000000
847773.000000
848602.000000
849452.000000
850387.000000
851329.000000
852209.000000
853128.000000
854061.000000
854915.000000
855767.000000
856647.000000
857503.000000
858307.000000
859144.000000
860041.000000
860920.000000
861889.000000
862903.000000
863819.000000
864755.000000
865660.000000
866481.000000
867303.000000
868145.000000
869053.000000
869917.000000
870812.000000
871787.000000
872702.000000
873638.000000
874629.000000
875543.000000
876383.000000
877228.000000
878078.000000
878899.000000
879762.000000
880693.000000
881603.000000
882574.000000
883626.000000
884566.000000
885475.000000
886392.000000
887309.000000
888159.000000
889046.000000
890008.000000
890924.000000
891895.000000
893052.000000
894139.000000
895071.000000
896014.000000
897008.000000
897904.000000
898829.000000
899780.000000
900724.000000
901613.000000
902548.000000
903519.000000
904432.000000
905375.000000
906339.000000
907229.000000
908152.000000
909141.000000
910051.000000
910923.000000
911798.000000
912754.000000
913727.000000
914642.000000
915599.000000
916552.000000
