ECG (ms)
683.000000
1383.000000
2059.000000
2728.000000
3399.000000
4084.000000
4784.000000
5497.000000
6199.000000
6871.000000
7584.000000
8337.000000
9138.000000
9919.000000
10686.000000
11486.000000
12229.000000
12943.000000
13633.000000
14323.000000
15024.000000
15730.000000
16469.000000
17210.000000
17966.000000
18748.000000
19533.000000
20347.000000
21166.000000
21931.000000
22653.000000
23369.000000
24107.000000
24854.000000
25638.000000
26425.000000
27237.000000
28043.000000
28887.000000
29658.000000
30378.000000
31073.000000
31775.000000
32524.000000
33333.000000
34177.000000
35032.000000
35881.000000
36655.000000
37383.000000
38084.000000
38787.000000
39547.000000
40361.000000
41151.000000
41972.000000
42761.000000
43533.000000
44294.000000
45030.000000
45736.000000
46425.000000
47136.000000
47886.000000
48680.000000
49486.000000
50330.000000
51136.000000
51895.000000
52620.000000
53316.000000
54014.000000
54733.000000
55570.000000
56448.000000
57322.000000
58171.000000
59002.000000
59809.000000
60555.000000
61258.000000
61932.000000
62608.000000
63319.000000
64092.000000
64902.000000
65718.000000
66547.000000
67412.000000
68198.000000
68930.000000
69666.000000
70488.000000
71325.000000
72198.000000
72982.000000
73714.000000
74420.000000
75137.000000
75880.000000
76655.000000
77445.000000
78205.000000
78940.000000
79696.000000
80502.000000
81318.000000
82123.000000
82894.000000
83628.000000
84333.000000
85033.000000
85777.000000
86578.000000
87380.000000
88200.000000
88979.000000
89713.000000
90426.000000
91134.000000
91869.000000
92667.000000
93443.000000
94219.000000
94978.000000
95711.000000
96427.000000
97153.000000
97906.000000
98695.000000
99475.000000
100213.000000
100924.000000
101618.000000
102315.000000
103030.000000
103793.000000
104565.000000
105302.000000
106010.000000
106699.000000
107395.000000
108118.000000
108877.000000
109645.000000
110434.000000
111198.000000
111974.000000
112733.000000
113456.000000
114158.000000
114839.000000
115534.000000
116257.000000
117014.000000
117766.000000
118535.000000
119286.000000
120002.000000
120696.000000
121384.000000
122082.000000
122811.000000
123556.000000
124331.000000
125081.000000
125798.000000
126505.000000
127236.000000
128012.000000
128804.000000
129551.000000
130261.000000
130976.000000
131697.000000
132438.000000
133201.000000
133962.000000
134708.000000
135421.000000
136110.000000
136783.000000
137463.000000
138168.000000
138940.000000
139709.000000
140464.000000
141240.000000
142000.000000
142723.000000
143414.000000
144097.000000
144793.000000
145520.000000
146271.000000
147050.000000
147819.000000
148589.000000
149375.000000
150132.000000
150847.000000
151550.000000
152234.000000
152920.000000
153625.000000
154376.000000
155220.000000
156070.000000
156874.000000
157664.000000
158436.000000
159162.000000
159861.000000
160544.000000
161242.000000
161967.000000
162727.000000
163516.000000
164313.000000
165102.000000
165855.000000
166581.000000
167278.000000
167948.000000
168614.000000
169303.000000
170025.000000
170792.000000
171561.000000
172327.000000
173081.000000
173808.000000
174541.000000
175257.000000
175951.000000
176625.000000
177299.000000
177990.000000
178712.000000
179454.000000
180195.000000
180961.000000
181692.000000
182390.000000
183063.000000
183728.000000
184390.000000
185150.000000
185970.000000
186716.000000
187423.000000
188111.000000
188775.000000
189473.000000
190288.000000
191175.000000
192067.000000
192861.000000
193594.000000
194294.000000
194997.000000
195763.000000
196560.000000
197377.000000
198236.000000
199088.000000
199943.000000
200764.000000
201574.000000
202350.000000
203095.000000
203803.000000
204513.000000
205235.000000
206024.000000
206921.000000
207808.000000
208679.000000
209516.000000
210326.000000
211095.000000
211827.000000
212545.000000
213284.000000
214073.000000
214910.000000
215735.000000
216516.000000
217250.000000
217946.000000
218639.000000
219342.000000
220116.000000
220998.000000
221910.000000
222791.000000
223642.000000
224434.000000
225187.000000
225912.000000
226616.000000
227306.000000
228007.000000
228741.000000
229539.000000
230416.000000
231273.000000
232148.000000
232953.000000
233738.000000
234483.000000
235194.000000
235887.000000
236581.000000
237306.000000
238076.000000
238927.000000
239796.000000
240652.000000
241454.000000
242257.000000
243011.000000
243731.000000
244421.000000
245111.000000
245828.000000
246581.000000
247370.000000
248187.000000
249045.000000
249851.000000
250636.000000
251404.000000
252135.000000
252860.000000
253557.000000
254273.000000
255035.000000
255877.000000
256814.000000
257711.000000
258591.000000
259401.000000
260155.000000
260901.000000
261628.000000
262325.000000
263008.000000
263691.000000
264413.000000
265179.000000
265967.000000
266752.000000
267534.000000
268287.000000
269060.000000
269805.000000
270515.000000
271213.000000
271930.000000
272706.000000
273555.000000
274379.000000
275201.000000
275978.000000
276706.000000
277416.000000
278153.000000
278942.000000
279731.000000
280534.000000
281349.000000
282167.000000
282928.000000
283686.000000
284431.000000
285156.000000
285862.000000
286555.000000
287273.000000
288034.000000
288843.000000
289625.000000
290399.000000
291124.000000
291817.000000
292508.000000
293216.000000
293966.000000
294753.000000
295645.000000
296471.000000
297243.000000
297963.000000
298675.000000
299394.000000
300146.000000
300917.000000
301705.000000
302497.000000
303284.000000
304122.000000
304893.000000
305624.000000
306330.000000
307019.000000
307718.000000
308462.000000
309253.000000
310099.000000
310962.000000
311773.000000
312517.000000
313227.000000
313915.000000
314602.000000
315262.000000
315940.000000
316691.000000
317482.000000
318264.000000
318986.000000
319684.000000
320389.000000
321137.000000
321911.000000
322723.000000
323574.000000
324390.000000
325258.000000
326047.000000
326769.000000
327460.000000
328158.000000
328921.000000
329759.000000
330643.000000
331468.000000
332227.000000
332977.000000
333761.000000
334585.000000
335461.000000
336328.000000
337178.000000
337953.000000
338684.000000
339399.000000
340130.000000
340890.000000
341688.000000
342549.000000
343415.000000
344234.000000
345053.000000
345872.000000
346663.000000
347400.000000
348114.000000
348829.000000
349573.000000
350419.000000
351270.000000
352078.000000
352872.000000
353717.000000
354513.000000
355266.000000
355980.000000
356689.000000
357410.000000
358171.000000
358992.000000
359832.000000
360685.000000
361521.000000
362308.000000
363083.000000
363864.000000
364616.000000
365351.000000
366063.000000
366788.000000
367536.000000
368338.000000
369144.000000
369962.000000
370741.000000
371510.000000
372299.000000
373092.000000
373868.000000
374615.000000
375326.000000
376031.000000
376788.000000
377602.000000
378512.000000
379444.000000
380298.000000
381106.000000
381873.000000
382597.000000
383295.000000
383979.000000
384677.000000
385415.000000
386202.000000
387005.000000
387777.000000
388529.000000
389236.000000
389911.000000
390573.000000
391235.000000
391890.000000
392562.000000
393277.000000
394045.000000
394844.000000
395658.000000
396452.000000
397217.000000
397937.000000
398625.000000
399310.000000
400015.000000
400858.000000
401747.000000
402637.000000
403507.000000
404312.000000
405072.000000
405788.000000
406487.000000
407231.000000
408018.000000
408982.000000
409899.000000
410792.000000
411605.000000
412395.000000
413154.000000
413881.000000
414586.000000
415294.000000
416049.000000
416918.000000
417836.000000
418718.000000
419596.000000
420398.000000
421179.000000
421941.000000
422669.000000
423365.000000
424068.000000
424813.000000
425641.000000
426512.000000
427386.000000
428239.000000
429044.000000
429783.000000
430485.000000
431170.000000
431863.000000
432588.000000
433396.000000
434217.000000
435008.000000
435740.000000
436453.000000
437198.000000
438013.000000
438825.000000
439600.000000
440328.000000
441064.000000
441839.000000
442693.000000
443570.000000
444450.000000
445331.000000
446127.000000
446903.000000
447685.000000
448564.000000
449362.000000
450155.000000
450947.000000
451716.000000
452433.000000
453123.000000
453822.000000
454549.000000
455335.000000
456173.000000
457043.000000
457853.000000
458651.000000
459426.000000
460174.000000
460933.000000
461667.000000
462380.000000
463073.000000
463797.000000
464580.000000
465439.000000
466324.000000
467141.000000
467937.000000
468709.000000
469446.000000
470160.000000
470854.000000
471569.000000
472349.000000
473140.000000
473935.000000
474775.000000
475543.000000
476274.000000
476994.000000
477721.000000
478491.000000
479290.000000
480081.000000
480890.000000
481661.000000
482402.000000
483110.000000
483809.000000
484504.000000
485215.000000
486069.000000
486891.000000
487672.000000
488426.000000
489190.000000
489968.000000
490727.000000
491465.000000
492174.000000
492896.000000
493651.000000
494452.000000
495257.000000
496051.000000
496841.000000
497605.000000
498331.000000
499041.000000
499748.000000
500470.000000
501235.000000
502025.000000
502841.000000
503657.000000
504415.000000
505139.000000
505846.000000
506558.000000
507287.000000
508041.000000
508842.000000
509622.000000
510377.000000
511107.000000
511820.000000
512539.000000
513269.000000
514059.000000
514852.000000
515644.000000
516394.000000
517117.000000
517834.000000
518588.000000
519381.000000
520195.000000
521005.000000
521802.000000
522553.000000
523275.000000
523990.000000
524719.000000
525437.000000
526142.000000
526838.000000
527516.000000
528238.000000
529092.000000
529888.000000
530633.000000
531352.000000
532104.000000
532892.000000
533684.000000
534416.000000
535134.000000
535862.000000
536630.000000
537439.000000
538197.000000
538916.000000
539635.000000
540389.000000
541192.000000
542052.000000
542885.000000
543685.000000
544426.000000
545137.000000
545854.000000
546623.000000
547473.000000
548426.000000
549360.000000
550259.000000
551134.000000
551955.000000
552708.000000
553415.000000
554112.000000
554833.000000
555671.000000
556570.000000
557451.000000
558254.000000
559047.000000
559887.000000
560773.000000
561671.000000
562483.000000
563260.000000
564031.000000
564825.000000
565605.000000
566359.000000
567125.000000
567897.000000
568720.000000
569531.000000
570292.000000
571020.000000
571766.000000
572566.000000
573459.000000
574392.000000
575298.000000
576095.000000
576834.000000
577547.000000
578287.000000
579056.000000
579858.000000
580675.000000
581445.000000
582181.000000
582912.000000
583661.000000
584455.000000
585290.000000
586144.000000
586926.000000
587652.000000
588373.000000
589149.000000
589991.000000
590841.000000
591612.000000
592341.000000
593081.000000
593861.000000
594669.000000
595429.000000
596152.000000
596886.000000
597646.000000
598409.000000
599174.000000
599928.000000
600670.000000
601384.000000
602130.000000
602919.000000
603718.000000
604535.000000
605349.000000
606146.000000
606937.000000
607697.000000
608420.000000
609127.000000
609847.000000
610603.000000
611382.000000
612148.000000
612925.000000
613661.000000
614366.000000
615048.000000
615734.000000
616457.000000
617200.000000
617966.000000
618742.000000
619516.000000
620300.000000
621054.000000
621768.000000
622464.000000
623170.000000
623928.000000
624736.000000
625546.000000
626368.000000
627210.000000
628038.000000
628866.000000
629629.000000
630340.000000
631034.000000
631746.000000
632519.000000
633385.000000
634270.000000
635174.000000
635999.000000
636745.000000
637460.000000
638171.000000
638905.000000
639670.000000
640490.000000
641304.000000
642078.000000
642809.000000
643511.000000
644222.000000
644966.000000
645777.000000
646621.000000
647457.000000
648302.000000
649122.000000
649905.000000
650649.000000
651363.000000
652055.000000
652752.000000
653495.000000
654329.000000
655209.000000
656077.000000
656943.000000
657749.000000
658496.000000
659203.000000
659896.000000
660637.000000
661413.000000
662216.000000
663022.000000
663826.000000
664593.000000
665311.000000
666012.000000
666716.000000
667441.000000
668204.000000
669014.000000
669810.000000
670588.000000
671337.000000
672057.000000
672754.000000
673459.000000
674194.000000
674975.000000
675758.000000
676543.000000
677319.000000
678058.000000
678767.000000
679482.000000
680207.000000
680955.000000
681716.000000
682464.000000
683178.000000
683879.000000
684599.000000
685338.000000
686097.000000
686869.000000
687612.000000
688334.000000
689076.000000
689845.000000
690610.000000
691380.000000
692109.000000
692814.000000
693507.000000
694201.000000
694907.000000
695647.000000
696403.000000
697153.000000
697881.000000
698587.000000
699275.000000
699976.000000
700692.000000
701426.000000
702150.000000
702880.000000
703618.000000
704329.000000
705028.000000
705713.000000
706395.000000
707086.000000
707800.000000
708537.000000
709288.000000
710030.000000
710770.000000
711497.000000
712237.000000
712974.000000
713702.000000
714396.000000
715079.000000
715780.000000
716545.000000
717318.000000
718102.000000
718864.000000
719603.000000
720304.000000
720992.000000
721690.000000
722411.000000
723163.000000
723925.000000
724663.000000
725382.000000
726080.000000
726775.000000
727489.000000
728240.000000
729023.000000
729833.000000
730601.000000
731314.000000
732005.000000
732696.000000
733412.000000
734172.000000
734952.000000
735743.000000
736538.000000
737341.000000
738103.000000
738828.000000
739528.000000
740231.000000
740977.000000
741748.000000
742555.000000
743346.000000
744137.000000
744891.000000
745612.000000
746315.000000
747026.000000
747766.000000
748532.000000
749321.000000
750109.000000
750844.000000
751553.000000
752267.000000
753008.000000
753759.000000
754519.000000
755299.000000
756082.000000
756846.000000
757589.000000
758313.000000
759038.000000
759764.000000
760521.000000
761300.000000
762105.000000
762929.000000
763703.000000
764459.000000
765182.000000
765885.000000
766565.000000
767242.000000
767936.000000
768670.000000
769400.000000
770152.000000
770917.000000
771682.000000
772466.000000
773206.000000
773915.000000
774608.000000
775299.000000
776013.000000
776771.000000
777551.000000
778358.000000
779169.000000
779926.000000
780638.000000
781327.000000
782009.000000
782687.000000
783430.000000
784213.000000
784967.000000
785686.000000
786381.000000
787054.000000
787741.000000
788471.000000
789185.000000
789878.000000
790565.000000
791284.000000
792042.000000
792871.000000
793685.000000
794494.000000
795271.000000
795999.000000
796707.000000
797419.000000
798164.000000
798982.000000
799814.000000
800647.000000
801430.000000
802177.000000
802900.000000
803647.000000
804452.000000
805247.000000
806065.000000
806841.000000
807574.000000
808290.000000
809036.000000
809822.000000
810664.000000
811441.000000
812176.000000
812894.000000
813626.000000
814387.000000
815144.000000
815917.000000
816684.000000
817416.000000
818132.000000
818857.000000
819642.000000
820431.000000
821190.000000
821904.000000
822596.000000
823296.000000
824036.000000
824815.000000
825593.000000
826381.000000
827134.000000
827861.000000
828596.000000
829362.000000
830159.000000
830912.000000
831625.000000
832325.000000
833045.000000
833794.000000
834561.000000
835316.000000
836033.000000
836741.000000
837458.000000
838199.000000
838952.000000
839709.000000
840429.000000
841145.000000
841886.000000
842671.000000
843469.000000
844240.000000
844977.000000
845700.000000
846442.000000
847200.000000
847992.000000
848831.000000
849600.000000
850318.000000
851021.000000
851736.000000
852514.000000
853309.000000
854079.000000
854813.000000
855513.000000
856209.000000
856919.000000
857656.000000
858411.000000
859211.000000
859965.000000
860686.000000
861408.000000
862153.000000
862913.000000
863681.000000
864418.000000
865152.000000
865859.000000
866550.000000
867254.000000
867971.000000
868722.000000
869489.000000
870250.000000
870988.000000
871711.000000
872469.000000
873241.000000
874027.000000
874805.000000
875538.000000
876237.000000
876935.000000
877654.000000
878432.000000
879303.000000
880172.000000
880962.000000
881704.000000
882432.000000
883162.000000
883912.000000
884687.000000
885461.000000
886189.000000
886900.000000
887640.000000
888441.000000
889281.000000
890053.000000
890790.000000
891525.000000
892288.000000
893056.000000
893813.000000
894539.000000
895255.000000
895983.000000
896729.000000
897480.000000
898261.000000
899000.000000
899714.000000
900428.000000
901174.000000
901945.000000
902744.000000
903533.000000
904285.000000
905013.000000
905745.000000
906510.000000
907294.000000
908081.000000
908826.000000
909546.000000
910277.000000
911031.000000
911820.000000
912619.000000
913379.000000
914102.000000
914823.000000
915555.000000
916308.000000
917101.000000
917867.000000
918593.000000
919312.000000
920043.000000
920798.000000
921563.000000
922307.000000
923026.000000
923753.000000
924512.000000
925294.000000
926063.000000
926792.000000
927504.000000
928229.000000
928979.000000
929744.000000
930530.000000
931282.000000
932011.000000
932753.000000
933497.000000
934261.000000
935048.000000
935798.000000
936515.000000
937213.000000
937914.000000
938647.000000
939412.000000
940196.000000
940986.000000
941757.000000
942487.000000
943194.000000
943904.000000
944619.000000
945373.000000
946138.000000
946905.000000
947684.000000
948417.000000
949133.000000
949859.000000
950602.000000
951374.000000
952158.000000
952951.000000
953706.000000
954427.000000
955150.000000
955897.000000
956672.000000
957504.000000
958309.000000
959070.000000
959789.000000
960505.000000
961233.000000
962047.000000
962873.000000
963657.000000
964397.000000
965125.000000
965867.000000
966609.000000
967402.000000
968184.000000
968950.000000
969678.000000
970371.000000
971058.000000
971757.000000
972492.000000
973294.000000
974125.000000
974959.000000
975730.000000
976454.000000
977173.000000
977928.000000
978719.000000
979495.000000
980231.000000
980943.000000
981679.000000
982442.000000
983228.000000
984004.000000
984740.000000
985453.000000
986170.000000
986938.000000
987753.000000
988575.000000
989389.000000
990157.000000
990877.000000
991568.000000
992267.000000
993028.000000
993832.000000
994671.000000
995523.000000
996300.000000
997031.000000
997745.000000
998470.000000
999263.000000
1000108.000000
1000918.000000
1001688.000000
1002453.000000
1003266.000000
1004155.000000
1005053.000000
1005870.000000
1006658.000000
1007472.000000
1008302.000000
1009086.000000
1009825.000000
1010540.000000
1011277.000000
1012054.000000
1012844.000000
1013593.000000
1014314.000000
1015039.000000
1015808.000000
1016585.000000
1017372.000000
1018141.000000
1018873.000000
1019581.000000
1020305.000000
1021048.000000
1021808.000000
1022537.000000
1023243.000000
1023946.000000
1024675.000000
1025427.000000
1026193.000000
1026931.000000
1027646.000000
1028384.000000
1029182.000000
1030012.000000
1030793.000000
1031548.000000
1032335.000000
1033127.000000
1033933.000000
1034694.000000
1035416.000000
1036139.000000
1036901.000000
1037703.000000
1038507.000000
1039275.000000
1040011.000000
1040737.000000
1041501.000000
1042314.000000
1043141.000000
1043960.000000
1044711.000000
1045446.000000
1046184.000000
1046930.000000
1047720.000000
1048482.000000
1049216.000000
1049949.000000
1050724.000000
1051513.000000
1052280.000000
1052999.000000
1053698.000000
1054424.000000
1055187.000000
1055963.000000
1056757.000000
1057583.000000
1058369.000000
1059118.000000
1059879.000000
1060665.000000
1061471.000000
1062261.000000
1063011.000000
1063749.000000
1064502.000000
1065311.000000
1066148.000000
1066945.000000
1067706.000000
1068460.000000
1069269.000000
1070066.000000
1070858.000000
1071612.000000
1072344.000000
1073075.000000
1073832.000000
1074635.000000
1075438.000000
1076186.000000
1076908.000000
1077637.000000
1078394.000000
1079186.000000
1079967.000000
1080720.000000
1081431.000000
1082125.000000
1082848.000000
1083622.000000
1084434.000000
1085273.000000
1086124.000000
1086897.000000
1087622.000000
1088322.000000
1089037.000000
1089794.000000
1090574.000000
1091392.000000
1092196.000000
1092939.000000
1093647.000000
1094359.000000
1095096.000000
1095914.000000
1096721.000000
1097530.000000
1098300.000000
1099031.000000
1099737.000000
1100452.000000
1101211.000000
1102007.000000
1102844.000000
1103627.000000
1104343.000000
1105028.000000
1105707.000000
1106418.000000
1107312.000000
1108147.000000
1108951.000000
1109750.000000
1110535.000000
1111330.000000
1112149.000000
1112923.000000
1113659.000000
1114390.000000
1115154.000000
1115928.000000
1116731.000000
1117560.000000
1118359.000000
1119128.000000
1119862.000000
1120573.000000
1121308.000000
1122064.000000
1122852.000000
1123640.000000
1124403.000000
1125162.000000
1125907.000000
1126657.000000
1127444.000000
1128221.000000
1128957.000000
1129674.000000
1130390.000000
1131122.000000
1131867.000000
1132612.000000
1133330.000000
1134032.000000
1134737.000000
1135469.000000
1136262.000000
1137034.000000
1137779.000000
1138510.000000
1139268.000000
1140036.000000
1140838.000000
1141643.000000
1142429.000000
1143167.000000
1143910.000000
1144697.000000
1145534.000000
1146342.000000
1147103.000000
1147867.000000
1148647.000000
1149459.000000
1150319.000000
1151155.000000
1151979.000000
1152737.000000
1153467.000000
1154172.000000
1154867.000000
1155590.000000
1156380.000000
1157201.000000
1158043.000000
1158910.000000
1159741.000000
1160504.000000
1161227.000000
1161958.000000
1162715.000000
1163519.000000
1164352.000000
1165152.000000
1165903.000000
1166627.000000
1167349.000000
1168111.000000
1168896.000000
1169711.000000
1170541.000000
1171353.000000
1172124.000000
1172862.000000
1173596.000000
1174374.000000
1175171.000000
1176025.000000
1176852.000000
1177673.000000
1178450.000000
1179203.000000
1179919.000000
1180631.000000
1181402.000000
1182257.000000
1183158.000000
1184023.000000
1184815.000000
1185552.000000
1186285.000000
1187049.000000
1187848.000000
1188676.000000
1189477.000000
1190243.000000
1190971.000000
1191673.000000
1192383.000000
1193102.000000
1193880.000000
1194711.000000
1195580.000000
1196435.000000
1197217.000000
1197944.000000
1198642.000000
1199338.000000
1200056.000000
1200847.000000
1201654.000000
1202418.000000
1203155.000000
1203875.000000
1204630.000000
1205421.000000
1206239.000000
1207049.000000
1207803.000000
1208523.000000
1209233.000000
1209960.000000
1210734.000000
1211550.000000
1212349.000000
1213107.000000
1213829.000000
1214563.000000
1215324.000000
1216129.000000
1216909.000000
1217645.000000
1218361.000000
1219110.000000
1219868.000000
1220645.000000
1221423.000000
1222172.000000
1222897.000000
1223635.000000
1224400.000000
1225182.000000
1226000.000000
1226766.000000
1227492.000000
1228219.000000
1228981.000000
1229774.000000
1230584.000000
1231359.000000
1232096.000000
1232807.000000
1233522.000000
1234254.000000
1235006.000000
1235771.000000
1236502.000000
1237209.000000
1237908.000000
1238634.000000
1239384.000000
1240163.000000
1240894.000000
1241594.000000
1242281.000000
1242983.000000
1243709.000000
1244457.000000
1245228.000000
1245965.000000
1246679.000000
1247384.000000
1248092.000000
1248830.000000
1249592.000000
1250330.000000
1251050.000000
1251770.000000
1252505.000000
1253207.000000
1253883.000000
1254551.000000
1255227.000000
1255976.000000
1256712.000000
1257414.000000
1258092.000000
1258759.000000
1259452.000000
1260185.000000
1260992.000000
1261815.000000
1262626.000000
1263445.000000
1264222.000000
1265000.000000
1265786.000000
1266525.000000
1267244.000000
1267947.000000
1268663.000000
1269439.000000
1270290.000000
1271171.000000
1272019.000000
1272850.000000
1273633.000000
1274367.000000
1275078.000000
1275798.000000
1276557.000000
1277359.000000
1278190.000000
1279022.000000
1279840.000000
1280623.000000
1281365.000000
1282083.000000
1282823.000000
1283594.000000
1284419.000000
1285233.000000
1286005.000000
1286771.000000
1287552.000000
1288329.000000
1289133.000000
1289932.000000
1290738.000000
1291547.000000
1292364.000000
1293142.000000
1293881.000000
1294618.000000
1295367.000000
1296109.000000
1296857.000000
1297632.000000
1298405.000000
1299139.000000
1299853.000000
1300570.000000
1301310.000000
1302096.000000
1302919.000000
1303741.000000
1304521.000000
1305260.000000
1305970.000000
1306667.000000
1307373.000000
1308108.000000
1308862.000000
1309634.000000
1310422.000000
1311199.000000
1311946.000000
1312659.000000
1313367.000000
1314110.000000
1314907.000000
1315704.000000
1316508.000000
1317282.000000
1318051.000000
1318826.000000
1319601.000000
1320390.000000
1321138.000000
1321854.000000
1322556.000000
1323268.000000
1324015.000000
1324800.000000
1325656.000000
1326495.000000
1327313.000000
1328100.000000
1328840.000000
1329555.000000
1330247.000000
1330947.000000
1331675.000000
1332494.000000
1333370.000000
1334222.000000
1335036.000000
1335835.000000
1336626.000000
1337367.000000
1338073.000000
1338766.000000
1339462.000000
1340199.000000
1340997.000000
1341801.000000
1342601.000000
1343367.000000
1344101.000000
1344800.000000
1345493.000000
1346210.000000
1346955.000000
1347703.000000
1348467.000000
1349233.000000
1349995.000000
1350760.000000
1351496.000000
1352205.000000
1352901.000000
1353612.000000
1354344.000000
1355099.000000
1355895.000000
1356678.000000
1357408.000000
1358105.000000
1358789.000000
1359484.000000
1360215.000000
1360961.000000
1361691.000000
1362401.000000
1363109.000000
1363839.000000
1364594.000000
1365360.000000
1366086.000000
1366801.000000
1367536.000000
1368272.000000
1369012.000000
1369718.000000
1370427.000000
1371145.000000
1371875.000000
1372622.000000
1373354.000000
1374072.000000
1374802.000000
1375540.000000
1376287.000000
1377077.000000
1377839.000000
1378566.000000
1379265.000000
1379951.000000
1380646.000000
1381397.000000
1382185.000000
1382988.000000
1383763.000000
1384483.000000
1385188.000000
1385902.000000
1386646.000000
1387429.000000
1388220.000000
1389006.000000
1389791.000000
1390543.000000
1391260.000000
1391964.000000
1392671.000000
1393400.000000
1394167.000000
1394970.000000
1395741.000000
1396475.000000
1397189.000000
1397927.000000
1398708.000000
1399501.000000
1400261.000000
1400988.000000
1401697.000000
1402427.000000
1403207.000000
1404002.000000
1404785.000000
1405530.000000
1406267.000000
1407025.000000
1407805.000000
1408593.000000
1409337.000000
1410080.000000
1410838.000000
1411605.000000
1412349.000000
1413065.000000
1413782.000000
1414523.000000
1415296.000000
1416061.000000
1416804.000000
1417519.000000
1418234.000000
1418958.000000
1419705.000000
1420471.000000
1421227.000000
1421978.000000
1422747.000000
1423502.000000
1424234.000000
1424957.000000
1425664.000000
1426373.000000
1427105.000000
1427856.000000
1428620.000000
1429392.000000
1430123.000000
1430834.000000
1431525.000000
1432224.000000
1432955.000000
1433692.000000
1434455.000000
1435184.000000
1435902.000000
1436620.000000
1437347.000000
1438118.000000
1438885.000000
1439638.000000
1440364.000000
1441064.000000
1441771.000000
1442501.000000
1443245.000000
1444022.000000
1444756.000000
1445470.000000
1446177.000000
1446906.000000
1447640.000000
1448386.000000
1449120.000000
1449828.000000
1450522.000000
1451223.000000
1451939.000000
1452670.000000
1453403.000000
1454114.000000
1454813.000000
1455512.000000
1456239.000000
1456983.000000
1457765.000000
1458519.000000
1459250.000000
1459959.000000
1460670.000000
1461391.000000
1462135.000000
1462883.000000
1463613.000000
1464329.000000
1465067.000000
1465835.000000
1466595.000000
1467323.000000
1468035.000000
1468759.000000
1469494.000000
1470237.000000
1470977.000000
1471708.000000
1472442.000000
1473200.000000
1473953.000000
1474689.000000
1475434.000000
1476168.000000
1476885.000000
1477620.000000
1478363.000000
1479133.000000
1479941.000000
1480725.000000
1481458.000000
1482157.000000
1482849.000000
1483549.000000
1484291.000000
1485057.000000
1485792.000000
1486510.000000
1487230.000000
1487986.000000
1488759.000000
1489536.000000
1490326.000000
1491078.000000
1491798.000000
1492507.000000
1493230.000000
1493967.000000
1494724.000000
1495487.000000
1496220.000000
1496962.000000
1497718.000000
1498532.000000
1499332.000000
1500086.000000
1500801.000000
1501504.000000
1502209.000000
1502913.000000
1503631.000000
1504326.000000
1505013.000000
1505723.000000
1506457.000000
1507198.000000
1507921.000000
1508635.000000
1509371.000000
1510136.000000
1510896.000000
1511657.000000
1512383.000000
1513097.000000
1513814.000000
1514582.000000
1515393.000000
1516187.000000
1516975.000000
1517722.000000
1518439.000000
1519171.000000
1519941.000000
1520732.000000
1521506.000000
1522247.000000
1522973.000000
1523709.000000
1524472.000000
1525255.000000
1526049.000000
1526814.000000
1527540.000000
1528249.000000
1528974.000000
1529723.000000
1530481.000000
1531215.000000
1531923.000000
1532635.000000
1533352.000000
1534084.000000
1534852.000000
1535593.000000
1536326.000000
1537091.000000
1537876.000000
1538654.000000
1539396.000000
1540128.000000
1540865.000000
1541605.000000
1542353.000000
1543110.000000
1543855.000000
1544577.000000
1545279.000000
1545965.000000
1546643.000000
1547361.000000
1548161.000000
1548929.000000
1549703.000000
1550464.000000
1551234.000000
1552035.000000
1552824.000000
1553619.000000
1554360.000000
1555078.000000
1555787.000000
1556491.000000
1557170.000000
1557862.000000
1558612.000000
1559417.000000
1560228.000000
1561051.000000
1561872.000000
1562667.000000
1563411.000000
1564132.000000
1564848.000000
1565565.000000
1566323.000000
1567119.000000
1567893.000000
1568628.000000
1569408.000000
1570246.000000
1571128.000000
1571985.000000
1572768.000000
1573526.000000
1574320.000000
1575176.000000
1576055.000000
1576870.000000
1577679.000000
1578489.000000
1579289.000000
1580054.000000
1580827.000000
1581555.000000
1582275.000000
1582991.000000
1583739.000000
1584609.000000
1585445.000000
1586230.000000
1587036.000000
1587872.000000
1588754.000000
1589625.000000
1590474.000000
1591282.000000
1592056.000000
1592794.000000
1593532.000000
1594289.000000
1595054.000000
1595828.000000
1596583.000000
1597315.000000
1598038.000000
1598769.000000
1599523.000000
1600288.000000
1601060.000000
1601812.000000
1602535.000000
1603268.000000
1604012.000000
1604777.000000
1605528.000000
1606249.000000
1606949.000000
1607669.000000
1608413.000000
1609167.000000
1609893.000000
1610602.000000
1611320.000000
1612065.000000
1612824.000000
1613592.000000
1614337.000000
1615094.000000
1615863.000000
1616634.000000
1617381.000000
1618117.000000
1618855.000000
1619608.000000
1620376.000000
1621116.000000
1621838.000000
1622568.000000
1623304.000000
1624063.000000
1624828.000000
1625579.000000
1626331.000000
1627120.000000
1627933.000000
1628687.000000
1629412.000000
1630159.000000
1630943.000000
1631772.000000
1632668.000000
1633467.000000
1634221.000000
1634988.000000
1635762.000000
1636529.000000
1637299.000000
1638057.000000
1638792.000000
1639552.000000
1640345.000000
1641158.000000
1641990.000000
1642763.000000
1643507.000000
1644277.000000
1645050.000000
1645836.000000
1646578.000000
1647296.000000
1648011.000000
1648755.000000
1649546.000000
1650371.000000
1651175.000000
1651928.000000
1652667.000000
1653436.000000
1654211.000000
1654985.000000
1655790.000000
1656540.000000
1657262.000000
1657988.000000
1658731.000000
1659456.000000
1660147.000000
1660829.000000
1661495.000000
1662180.000000
1662939.000000
1663690.000000
1664395.000000
1665091.000000
1665830.000000
1666574.000000
1667303.000000
1668042.000000
1668816.000000
1669640.000000
1670455.000000
1671209.000000
1671941.000000
1672687.000000
1673437.000000
1674219.000000
1674948.000000
1675662.000000
1676418.000000
1677223.000000
1678072.000000
1678863.000000
1679621.000000
1680398.000000
1681214.000000
1682073.000000
1682881.000000
1683694.000000
1684548.000000
1685403.000000
1686199.000000
1686979.000000
1687779.000000
1688610.000000
1689451.000000
1690232.000000
1691009.000000
1691808.000000
1692620.000000
1693403.000000
1694182.000000
1695004.000000
1695891.000000
1696778.000000
1697595.000000
1698424.000000
1699276.000000
1700127.000000
1700955.000000
1701741.000000
1702520.000000
1703295.000000
1704093.000000
1704888.000000
1705645.000000
1706414.000000
1707224.000000
1708045.000000
1708897.000000
1709702.000000
1710483.000000
1711247.000000
1712022.000000
1712832.000000
1713582.000000
1714302.000000
1715047.000000
1715842.000000
1716668.000000
1717445.000000
1718195.000000
1718976.000000
1719779.000000
1720545.000000
1721291.000000
1722041.000000
1722822.000000
1723610.000000
1724366.000000
1725131.000000
1725923.000000
1726739.000000
1727540.000000
1728310.000000
1729054.000000
1729835.000000
1730681.000000
1731542.000000
1732388.000000
1733157.000000
1733917.000000
1734685.000000
1735455.000000
1736237.000000
1736987.000000
1737725.000000
1738481.000000
1739265.000000
1740031.000000
1740793.000000
1741602.000000
1742451.000000
1743273.000000
1744062.000000
1744844.000000
1745644.000000
1746419.000000
1747186.000000
1747964.000000
1748802.000000
1749602.000000
1750347.000000
1751062.000000
1751791.000000
1752540.000000
1753315.000000
1754099.000000
1754855.000000
1755626.000000
1756429.000000
1757211.000000
1757957.000000
1758685.000000
1759419.000000
1760168.000000
1760930.000000
1761667.000000
1762384.000000
1763116.000000
1763885.000000
1764669.000000
1765414.000000
1766168.000000
1766945.000000
1767733.000000
1768525.000000
1769274.000000
1770014.000000
1770771.000000
1771532.000000
1772290.000000
1773033.000000
1773768.000000
1774560.000000
1775366.000000
1776152.000000
1776920.000000
1777661.000000
1778384.000000
1779121.000000
1779846.000000
1780547.000000
1781226.000000
1781909.000000
1782621.000000
1783329.000000
1784019.000000
1784732.000000
1785483.000000
1786307.000000
1787075.000000
1787818.000000
1788574.000000
1789332.000000
1790074.000000
1790794.000000
1791543.000000
1792309.000000
1793114.000000
1793881.000000
1794635.000000
1795406.000000
1796199.000000
1797002.000000
1797802.000000
1798557.000000
1799287.000000
1800034.000000
1800815.000000
1801641.000000
1802486.000000
1803307.000000
1804100.000000
1804936.000000
1805786.000000
1806586.000000
1807344.000000
1808085.000000
1808823.000000
1809592.000000
1810380.000000
1811172.000000
1811910.000000
1812624.000000
1813336.000000
1814061.000000
1814827.000000
1815603.000000
1816347.000000
1817068.000000
1817801.000000
1818570.000000
1819359.000000
1820141.000000
1820888.000000
1821608.000000
1822325.000000
1823050.000000
1823793.000000
1824517.000000
1825223.000000
1825944.000000
1826692.000000
1827484.000000
1828253.000000
1828978.000000
1829682.000000
1830400.000000
1831157.000000
1831945.000000
1832708.000000
1833444.000000
1834199.000000
1834985.000000
1835796.000000
1836647.000000
1837426.000000
1838162.000000
1838909.000000
1839655.000000
1840386.000000
1841083.000000
1841765.000000
1842436.000000
1843098.000000
1843812.000000
1844615.000000
1845435.000000
1846191.000000
1846917.000000
1847660.000000
1848435.000000
1849239.000000
1850043.000000
1850791.000000
1851514.000000
1852262.000000
1853042.000000
1853858.000000
1854624.000000
1855358.000000
1856086.000000
1856828.000000
1857591.000000
1858357.000000
1859084.000000
1859819.000000
1860588.000000
1861414.000000
1862288.000000
1863088.000000
1863835.000000
1864581.000000
1865317.000000
1866048.000000
1866772.000000
1867475.000000
1868173.000000
1868888.000000
1869641.000000
1870420.000000
1871155.000000
1871867.000000
1872586.000000
1873322.000000
1874057.000000
1874771.000000
1875476.000000
1876211.000000
1876994.000000
1877833.000000
1878624.000000
1879384.000000
1880145.000000
1880930.000000
1881706.000000
1882439.000000
1883178.000000
1883936.000000
1884697.000000
1885431.000000
1886160.000000
1886895.000000
1887655.000000
1888428.000000
1889166.000000
1889894.000000
1890630.000000
1891395.000000
1892168.000000
1892905.000000
1893622.000000
1894341.000000
1895115.000000
1895897.000000
1896674.000000
1897458.000000
1898250.000000
1899030.000000
1899763.000000
1900476.000000
1901196.000000
1901963.000000
1902784.000000
1903622.000000
1904450.000000
1905225.000000
1905943.000000
1906640.000000
1907341.000000
1908060.000000
1908819.000000
1909598.000000
1910391.000000
1911149.000000
1911872.000000
1912577.000000
1913313.000000
1914064.000000
1914841.000000
1915632.000000
1916419.000000
1917176.000000
1917895.000000
1918603.000000
1919328.000000
1920070.000000
1920835.000000
1921605.000000
1922383.000000
1923132.000000
1923844.000000
1924546.000000
1925284.000000
1926033.000000
1926816.000000
1927587.000000
1928310.000000
1929020.000000
1929736.000000
