ECG (ms)
923.000000
2131.000000
3241.000000
4169.000000
5161.000000
6411.000000
7530.000000
8504.000000
9711.000000
10848.000000
11867.000000
12967.000000
14030.000000
14922.000000
15954.000000
17176.000000
18098.000000
19203.000000
20410.000000
21429.000000
22542.000000
23667.000000
24667.000000
25782.000000
26848.000000
27881.000000
28848.000000
29861.000000
30869.000000
31769.000000
33021.000000
34109.000000
35033.000000
36086.000000
37166.000000
38099.000000
39000.000000
40030.000000
41189.000000
42335.000000
43439.000000
44499.000000
45443.000000
46429.000000
47388.000000
48537.000000
49564.000000
50438.000000
51341.000000
52421.000000
53484.000000
54363.000000
55207.000000
56119.000000
57368.000000
58412.000000
59391.000000
60489.000000
61603.000000
62598.000000
63790.000000
64946.000000
65913.000000
67062.000000
68164.000000
69148.000000
70265.000000
71377.000000
72358.000000
73457.000000
74552.000000
75573.000000
76566.000000
77592.000000
78614.000000
79527.000000
80615.000000
81694.000000
82638.000000
83727.000000
84797.000000
85807.000000
86775.000000
87838.000000
88910.000000
89914.000000
90913.000000
91961.000000
93052.000000
94118.000000
95054.000000
95990.000000
96852.000000
98111.000000
99229.000000
100174.000000
101078.000000
102073.000000
103072.000000
104018.000000
105289.000000
106330.000000
107383.000000
108525.000000
109545.000000
110605.000000
111617.000000
112499.000000
113463.000000
114495.000000
115437.000000
116404.000000
117629.000000
118743.000000
119830.000000
120889.000000
121828.000000
122748.000000
123677.000000
124893.000000
125999.000000
126948.000000
127824.000000
128639.000000
129556.000000
130783.000000
131865.000000
132776.000000
133591.000000
134413.000000
135707.000000
136856.000000
137885.000000
138800.000000
139764.000000
140901.000000
141981.000000
143027.000000
143953.000000
144982.000000
146057.000000
147143.000000
148117.000000
149116.000000
150099.000000
151020.000000
151886.000000
152939.000000
154074.000000
155013.000000
155884.000000
156777.000000
158015.000000
159165.000000
160256.000000
161226.000000
162251.000000
163152.000000
164187.000000
165437.000000
166424.000000
167474.000000
168540.000000
169514.000000
170402.000000
171312.000000
172568.000000
173745.000000
174778.000000
175717.000000
176957.000000
178115.000000
179235.000000
180333.000000
181256.000000
182129.000000
183151.000000
184342.000000
185292.000000
186208.000000
187232.000000
188310.000000
189248.000000
190138.000000
191143.000000
192277.000000
193209.000000
194109.000000
195103.000000
196139.000000
197049.000000
197994.000000
199238.000000
200278.000000
201155.000000
202054.000000
203320.000000
204411.000000
205341.000000
206272.000000
207441.000000
208561.000000
209503.000000
210412.000000
211670.000000
212769.000000
213703.000000
214667.000000
215751.000000
216714.000000
217684.000000
218706.000000
219661.000000
220607.000000
221685.000000
222707.000000
223654.000000
224720.000000
225720.000000
226596.000000
227484.000000
228707.000000
229689.000000
230597.000000
231581.000000
232617.000000
233506.000000
234465.000000
235537.000000
236433.000000
237331.000000
238383.000000
239505.000000
240403.000000
241277.000000
242256.000000
243495.000000
244589.000000
245594.000000
246535.000000
247558.000000
248780.000000
249917.000000
251012.000000
251953.000000
252888.000000
253836.000000
255117.000000
256228.000000
257180.000000
258108.000000
259023.000000
260291.000000
261442.000000
262540.000000
263480.000000
264383.000000
265280.000000
266468.000000
267377.000000
268196.000000
268732.000000
270037.000000
271220.000000
272384.000000
273559.000000
274686.000000
275776.000000
276622.000000
277434.000000
278271.000000
279577.000000
280774.000000
281906.000000
283003.000000
284021.000000
284905.000000
285758.000000
286944.000000
288102.000000
289159.000000
290069.000000
291000.000000
292002.000000
292905.000000
293860.000000
295008.000000
295959.000000
296965.000000
298002.000000
298916.000000
299891.000000
300972.000000
301913.000000
302927.000000
303975.000000
304912.000000
306074.000000
307149.000000
308020.000000
308904.000000
310011.000000
311002.000000
311879.000000
312728.000000
314007.000000
315149.000000
316193.000000
317240.000000
318349.000000
319442.000000
320488.000000
321619.000000
322766.000000
323856.000000
324950.000000
326055.000000
327071.000000
328070.000000
329229.000000
330190.000000
331315.000000
332317.000000
333168.000000
334086.000000
335341.000000
336454.000000
337410.000000
338339.000000
339191.000000
340499.000000
341658.000000
342785.000000
343764.000000
344881.000000
345986.000000
346969.000000
348028.000000
348978.000000
350129.000000
351360.000000
352532.000000
353589.000000
354537.000000
355518.000000
356801.000000
357945.000000
359078.000000
360229.000000
361223.000000
362276.000000
363168.000000
364404.000000
365562.000000
366630.000000
367634.000000
368728.000000
369889.000000
370939.000000
371970.000000
373077.000000
374139.000000
375174.000000
376279.000000
377379.000000
378391.000000
379258.000000
380154.000000
381464.000000
382657.000000
383712.000000
384760.000000
385980.000000
387106.000000
388120.000000
389098.000000
390355.000000
391544.000000
392659.000000
393595.000000
394432.000000
395287.000000
396596.000000
397813.000000
398877.000000
399894.000000
401057.000000
402222.000000
403301.000000
404426.000000
405603.000000
406679.000000
407717.000000
408833.000000
409916.000000
410921.000000
412019.000000
413113.000000
414105.000000
415168.000000
416119.000000
416988.000000
417769.000000
418582.000000
419933.000000
421111.000000
422067.000000
422999.000000
424255.000000
425442.000000
426386.000000
427346.000000
428490.000000
429454.000000
430386.000000
431644.000000
432844.000000
433841.000000
434833.000000
436044.000000
437166.000000
438157.000000
439185.000000
440365.000000
441393.000000
442553.000000
443512.000000
444399.000000
445358.000000
446250.000000
447209.000000
448572.000000
449769.000000
450829.000000
452020.000000
453147.000000
454117.000000
455039.000000
456349.000000
457580.000000
458734.000000
459826.000000
461006.000000
462121.000000
463153.000000
464219.000000
465371.000000
466467.000000
467452.000000
468600.000000
469685.000000
470568.000000
471509.000000
472758.000000
473848.000000
474769.000000
475765.000000
476888.000000
477845.000000
478931.000000
480102.000000
481114.000000
482258.000000
483410.000000
484332.000000
485400.000000
486547.000000
487496.000000
488589.000000
489740.000000
490669.000000
491643.000000
492738.000000
493705.000000
494895.000000
496003.000000
496986.000000
498044.000000
499082.000000
500022.000000
501083.000000
502133.000000
503066.000000
504109.000000
505250.000000
506229.000000
507338.000000
508445.000000
509337.000000
510204.000000
511463.000000
512598.000000
513719.000000
514819.000000
515861.000000
516897.000000
518031.000000
519251.000000
520428.000000
521479.000000
522405.000000
523315.000000
524642.000000
525842.000000
527041.000000
528126.000000
529072.000000
529976.000000
531267.000000
532438.000000
533554.000000
534610.000000
535556.000000
536557.000000
537808.000000
538970.000000
539980.000000
540829.000000
541682.000000
543000.000000
544207.000000
545357.000000
546374.000000
547238.000000
548122.000000
549405.000000
550585.000000
551560.000000
552458.000000
553399.000000
554719.000000
555931.000000
557083.000000
558033.000000
558886.000000
559844.000000
561120.000000
562274.000000
563300.000000
564506.000000
565641.000000
566649.000000
567546.000000
568448.000000
569716.000000
570878.000000
571988.000000
572907.000000
573751.000000
574679.000000
575972.000000
577175.000000
578162.000000
579189.000000
580346.000000
581504.000000
582462.000000
583369.000000
584610.000000
585801.000000
586864.000000
587912.000000
589013.000000
590117.000000
591104.000000
592188.000000
593233.000000
594148.000000
595082.000000
596125.000000
597308.000000
598306.000000
599269.000000
600437.000000
601517.000000
602460.000000
603643.000000
604797.000000
605814.000000
606893.000000
607963.000000
608892.000000
609894.000000
610902.000000
611796.000000
612761.000000
614023.000000
614993.000000
616048.000000
617158.000000
618120.000000
619248.000000
620363.000000
621292.000000
622344.000000
623502.000000
624496.000000
625665.000000
626727.000000
627617.000000
628521.000000
629548.000000
630528.000000
631580.000000
632764.000000
633731.000000
634751.000000
635944.000000
636946.000000
638088.000000
639174.000000
640092.000000
641098.000000
642230.000000
643172.000000
644258.000000
645368.000000
646342.000000
647623.000000
648722.000000
649723.000000
650909.000000
651920.000000
652865.000000
654035.000000
655076.000000
656022.000000
657260.000000
658331.000000
659339.000000
660459.000000
661496.000000
662622.000000
663845.000000
664868.000000
666063.000000
667199.000000
668204.000000
669344.000000
670475.000000
671448.000000
672625.000000
673733.000000
674784.000000
675916.000000
677027.000000
678048.000000
679219.000000
680306.000000
681273.000000
682353.000000
683480.000000
684472.000000
685649.000000
686795.000000
687785.000000
688892.000000
689907.000000
690785.000000
692030.000000
693165.000000
694206.000000
695323.000000
696445.000000
697507.000000
698636.000000
699735.000000
700675.000000
701595.000000
702570.000000
703489.000000
704414.000000
705744.000000
707026.000000
708196.000000
709210.000000
710451.000000
711599.000000
712606.000000
713744.000000
714870.000000
715902.000000
717028.000000
718110.000000
719162.000000
720286.000000
721339.000000
722364.000000
723503.000000
724532.000000
725428.000000
726206.000000
726937.000000
727687.000000
729045.000000
730219.000000
731383.000000
732508.000000
733644.000000
734674.000000
735549.000000
736403.000000
737680.000000
738876.000000
740027.000000
741009.000000
741880.000000
742817.000000
743951.000000
745012.000000
746000.000000
746891.000000
747781.000000
749054.000000
750188.000000
751136.000000
752106.000000
753107.000000
754056.000000
754943.000000
755938.000000
757176.000000
758296.000000
759307.000000
760448.000000
761471.000000
762352.000000
763280.000000
764241.000000
765101.000000
765940.000000
767225.000000
768412.000000
769517.000000
770453.000000
771377.000000
772476.000000
773584.000000
774612.000000
775509.000000
776446.000000
777502.000000
778569.000000
779486.000000
780437.000000
781588.000000
782573.000000
783471.000000
784437.000000
785640.000000
786633.000000
787527.000000
788510.000000
789721.000000
790774.000000
791685.000000
792520.000000
793435.000000
794730.000000
795906.000000
796892.000000
797847.000000
799130.000000
800287.000000
801279.000000
802342.000000
803431.000000
804436.000000
805358.000000
806357.000000
807596.000000
808715.000000
809651.000000
810714.000000
811861.000000
812869.000000
813805.000000
814885.000000
816019.000000
817017.000000
818215.000000
819308.000000
820231.000000
821202.000000
822178.000000
823101.000000
824328.000000
825514.000000
826566.000000
827701.000000
828714.000000
829710.000000
830956.000000
832078.000000
833110.000000
834177.000000
835235.000000
836171.000000
837188.000000
838371.000000
839392.000000
840560.000000
841601.000000
842701.000000
843879.000000
844876.000000
845927.000000
847065.000000
847981.000000
848992.000000
850201.000000
851192.000000
852148.000000
853430.000000
854660.000000
855768.000000
856875.000000
858020.000000
859113.000000
860153.000000
861263.000000
862343.000000
863302.000000
864242.000000
865265.000000
866191.000000
867316.000000
868526.000000
869465.000000
870621.000000
871767.000000
872692.000000
873769.000000
874887.000000
875818.000000
876848.000000
878021.000000
879013.000000
880150.000000
881286.000000
882228.000000
883217.000000
884311.000000
885255.000000
886217.000000
887370.000000
888480.000000
889502.000000
890631.000000
891683.000000
892612.000000
893621.000000
894700.000000
895632.000000
896668.000000
897805.000000
898764.000000
899856.000000
901052.000000
902004.000000
903051.000000
904171.000000
905159.000000
906223.000000
907289.000000
908209.000000
909279.000000
910421.000000
911415.000000
912528.000000
913731.000000
914770.000000
915932.000000
917015.000000
917934.000000
918891.000000
920243.000000
921393.000000
922583.000000
923775.000000
924926.000000
925953.000000
926912.000000
927860.000000
929220.000000
930336.000000
931415.000000
932641.000000
933824.000000
934868.000000
935854.000000
937135.000000
938328.000000
939405.000000
940517.000000
941726.000000
942900.000000
943968.000000
945150.000000
946315.000000
947401.000000
948351.000000
949177.000000
950103.000000
951364.000000
952464.000000
953404.000000
954317.000000
955549.000000
956792.000000
957888.000000
958789.000000
959670.000000
960968.000000
962069.000000
963086.000000
964181.000000
965319.000000
966357.000000
967360.000000
968383.000000
969553.000000
970596.000000
971650.000000
972772.000000
973886.000000
974976.000000
976008.000000
976918.000000
977751.000000
978720.000000
980007.000000
981012.000000
981925.000000
982818.000000
984118.000000
985322.000000
986279.000000
987140.000000
988132.000000
989376.000000
990413.000000
991293.000000
992221.000000
993432.000000
994625.000000
995640.000000
996521.000000
997475.000000
998727.000000
999872.000000
1000843.000000
1001698.000000
1002634.000000
1003868.000000
1004975.000000
1005918.000000
1006798.000000
1008014.000000
1009154.000000
1010187.000000
1011092.000000
1012072.000000
1013283.000000
1014360.000000
1015447.000000
1016519.000000
1017441.000000
1018308.000000
1019337.000000
1020517.000000
1021607.000000
1022620.000000
1023799.000000
1024905.000000
1025931.000000
1027087.000000
1028180.000000
1029183.000000
1030276.000000
1031381.000000
1032322.000000
1033417.000000
1034552.000000
1035565.000000
1036645.000000
1037812.000000
1038822.000000
1039845.000000
1041007.000000
1042001.000000
1043215.000000
1044408.000000
1045411.000000
1046537.000000
1047654.000000
1048584.000000
1049451.000000
1050756.000000
1051895.000000
1052959.000000
1054122.000000
1055310.000000
1056411.000000
1057536.000000
1058668.000000
1059744.000000
1060793.000000
1061948.000000
1063041.000000
1064046.000000
1065154.000000
1066285.000000
1067283.000000
1068254.000000
1069368.000000
1070440.000000
1071360.000000
1072232.000000
1073531.000000
1074675.000000
1075810.000000
1076789.000000
1077632.000000
1078446.000000
1079336.000000
1080700.000000
1081924.000000
1082979.000000
1083860.000000
1084695.000000
1085686.000000
1086967.000000
1088202.000000
1089365.000000
1090514.000000
1091538.000000
1092441.000000
1093291.000000
1094191.000000
1095488.000000
1096721.000000
1097901.000000
1099029.000000
1099996.000000
1100856.000000
1101690.000000
1102643.000000
1103955.000000
1105198.000000
1106390.000000
1107386.000000
1108280.000000
1109133.000000
1110100.000000
1111377.000000
1112532.000000
1113511.000000
1114468.000000
1115701.000000
1116844.000000
1117802.000000
1118650.000000
1119521.000000
1120833.000000
1122047.000000
1123107.000000
1124336.000000
1125555.000000
1126630.000000
1127641.000000
1128833.000000
1129877.000000
1130814.000000
1131997.000000
1133207.000000
1134168.000000
1135073.000000
1136235.000000
1137499.000000
1138606.000000
1139798.000000
1140888.000000
1141899.000000
1143141.000000
1144327.000000
1145309.000000
1146187.000000
1147460.000000
1148641.000000
1149705.000000
1150614.000000
1151587.000000
1152853.000000
1153974.000000
1155038.000000
1156252.000000
1157394.000000
1158408.000000
1159623.000000
1160742.000000
1161738.000000
1162557.000000
1163388.000000
1164717.000000
1165914.000000
1166967.000000
1167943.000000
1169192.000000
1170370.000000
1171473.000000
1172420.000000
1173393.000000
1174520.000000
1175590.000000
1176535.000000
1177726.000000
1178844.000000
1179803.000000
1180947.000000
1182088.000000
1183055.000000
1184132.000000
1185285.000000
1186203.000000
1187175.000000
1188430.000000
1189521.000000
1190517.000000
1191726.000000
1192897.000000
1194006.000000
