ECG (ms)
272.000000
1132.000000
1975.000000
2761.000000
3558.000000
4362.000000
5158.000000
5927.000000
6723.000000
7538.000000
8356.000000
9139.000000
9947.000000
10770.000000
11587.000000
12354.000000
13134.000000
13938.000000
14743.000000
15516.000000
16326.000000
17170.000000
17982.000000
18770.000000
19578.000000
20400.000000
21196.000000
21974.000000
22763.000000
23568.000000
24387.000000
25189.000000
26024.000000
26866.000000
27670.000000
28484.000000
29312.000000
30132.000000
30921.000000
31742.000000
32555.000000
33297.000000
34026.000000
34733.000000
35452.000000
36206.000000
37003.000000
37850.000000
38696.000000
39591.000000
40492.000000
41341.000000
42187.000000
43056.000000
43924.000000
44748.000000
45538.000000
46337.000000
47134.000000
47916.000000
48731.000000
49589.000000
50478.000000
51333.000000
52204.000000
53104.000000
53997.000000
54841.000000
55708.000000
56589.000000
57438.000000
58269.000000
59122.000000
59961.000000
60767.000000
61602.000000
62453.000000
63294.000000
64122.000000
64985.000000
65855.000000
66669.000000
67497.000000
68338.000000
69188.000000
69998.000000
70829.000000
71668.000000
72481.000000
73295.000000
74162.000000
75050.000000
75898.000000
76759.000000
77631.000000
78507.000000
79351.000000
80222.000000
81107.000000
81964.000000
82801.000000
83660.000000
84511.000000
85316.000000
86151.000000
86996.000000
87819.000000
88662.000000
89550.000000
90417.000000
91261.000000
92126.000000
92988.000000
93808.000000
94649.000000
95493.000000
96302.000000
97109.000000
97950.000000
98797.000000
99609.000000
100450.000000
101318.000000
102150.000000
102994.000000
103849.000000
104698.000000
105507.000000
106350.000000
107201.000000
108022.000000
108862.000000
109718.000000
110573.000000
111389.000000
112238.000000
113104.000000
113940.000000
114784.000000
115657.000000
116512.000000
117333.000000
118180.000000
119031.000000
119841.000000
120686.000000
121540.000000
122350.000000
123160.000000
123996.000000
124844.000000
125646.000000
126477.000000
127344.000000
128202.000000
129046.000000
129950.000000
130868.000000
131728.000000
132617.000000
133497.000000
134324.000000
135172.000000
136032.000000
136850.000000
137688.000000
138558.000000
139425.000000
140262.000000
141122.000000
142001.000000
142836.000000
143697.000000
144594.000000
145475.000000
146323.000000
147192.000000
148077.000000
148917.000000
149758.000000
150619.000000
151477.000000
152282.000000
153099.000000
153927.000000
154725.000000
155526.000000
156351.000000
157187.000000
157993.000000
158814.000000
159653.000000
160495.000000
161292.000000
162104.000000
162938.000000
163753.000000
164547.000000
165377.000000
166229.000000
167048.000000
167882.000000
168741.000000
169613.000000
170440.000000
171293.000000
172149.000000
172989.000000
173784.000000
174603.000000
175445.000000
176279.000000
177095.000000
177960.000000
178838.000000
179653.000000
180486.000000
181325.000000
182115.000000
182937.000000
183773.000000
184586.000000
185409.000000
186263.000000
187121.000000
187939.000000
188796.000000
189648.000000
190476.000000
191293.000000
192138.000000
192976.000000
193788.000000
194621.000000
195470.000000
196284.000000
197134.000000
197998.000000
198847.000000
199676.000000
200521.000000
201370.000000
202183.000000
203001.000000
203840.000000
204691.000000
205486.000000
206289.000000
207113.000000
207931.000000
208728.000000
209566.000000
210405.000000
211191.000000
211999.000000
212839.000000
213692.000000
214494.000000
215341.000000
216198.000000
217034.000000
217856.000000
218684.000000
219509.000000
220306.000000
221138.000000
221994.000000
222816.000000
223665.000000
224533.000000
225384.000000
226209.000000
227067.000000
227919.000000
228731.000000
229563.000000
230422.000000
231276.000000
232104.000000
232957.000000
233809.000000
234613.000000
235436.000000
236267.000000
237062.000000
237848.000000
238668.000000
239490.000000
240262.000000
241047.000000
241852.000000
242637.000000
243415.000000
244231.000000
245043.000000
245815.000000
246618.000000
247440.000000
248225.000000
249004.000000
249778.000000
250548.000000
251284.000000
252040.000000
252828.000000
253610.000000
254382.000000
255192.000000
256012.000000
256806.000000
257603.000000
258418.000000
259229.000000
260007.000000
260819.000000
261638.000000
262423.000000
263211.000000
264037.000000
264870.000000
265670.000000
266499.000000
267352.000000
268169.000000
268982.000000
269824.000000
270648.000000
271438.000000
272237.000000
273045.000000
273819.000000
274605.000000
275431.000000
276265.000000
277070.000000
277913.000000
278789.000000
279636.000000
280497.000000
281370.000000
282227.000000
283062.000000
283937.000000
284814.000000
285650.000000
286515.000000
287395.000000
288258.000000
289094.000000
289961.000000
290846.000000
291688.000000
292531.000000
293386.000000
294249.000000
295065.000000
295921.000000
296804.000000
297664.000000
298499.000000
299359.000000
300219.000000
301048.000000
301903.000000
302767.000000
303587.000000
304419.000000
305273.000000
306123.000000
306931.000000
307771.000000
308630.000000
309470.000000
310301.000000
311145.000000
311983.000000
312782.000000
313617.000000
314457.000000
315266.000000
316064.000000
316903.000000
317770.000000
318589.000000
319412.000000
320263.000000
321117.000000
321925.000000
322760.000000
323597.000000
324395.000000
325194.000000
326021.000000
326852.000000
327641.000000
328456.000000
329308.000000
330138.000000
330963.000000
331801.000000
332618.000000
333405.000000
334185.000000
334960.000000
335720.000000
336498.000000
337354.000000
338239.000000
339058.000000
339919.000000
340785.000000
341602.000000
342412.000000
343240.000000
344039.000000
344822.000000
345614.000000
346429.000000
347226.000000
348052.000000
348925.000000
349787.000000
350609.000000
351461.000000
352308.000000
353092.000000
353881.000000
354675.000000
355434.000000
356172.000000
356940.000000
357728.000000
358496.000000
359280.000000
360138.000000
361012.000000
361858.000000
362734.000000
363606.000000
364447.000000
365265.000000
366097.000000
366930.000000
367739.000000
368542.000000
369369.000000
370209.000000
371007.000000
371830.000000
372682.000000
373519.000000
374330.000000
375163.000000
376000.000000
376791.000000
377619.000000
378493.000000
379355.000000
380187.000000
381049.000000
381928.000000
382761.000000
383623.000000
384500.000000
385316.000000
386161.000000
387039.000000
387894.000000
388742.000000
389615.000000
390481.000000
391294.000000
392140.000000
393001.000000
393847.000000
394675.000000
395530.000000
396404.000000
397232.000000
398080.000000
398941.000000
399788.000000
400612.000000
401460.000000
402309.000000
403117.000000
403955.000000
404792.000000
405586.000000
406394.000000
407218.000000
408022.000000
408802.000000
409616.000000
410439.000000
411221.000000
412032.000000
412864.000000
413671.000000
414458.000000
415284.000000
416138.000000
416932.000000
417740.000000
418566.000000
419372.000000
420160.000000
420991.000000
421833.000000
422623.000000
423441.000000
424270.000000
425075.000000
425883.000000
426716.000000
427593.000000
428444.000000
429322.000000
430218.000000
431099.000000
431954.000000
432835.000000
433745.000000
434629.000000
435503.000000
436412.000000
437304.000000
438148.000000
439028.000000
439932.000000
440798.000000
441681.000000
442594.000000
443521.000000
444402.000000
445319.000000
446245.000000
447122.000000
448027.000000
448943.000000
449823.000000
450678.000000
451570.000000
452471.000000
453308.000000
454158.000000
455024.000000
455847.000000
456722.000000
457653.000000
458561.000000
459462.000000
460434.000000
461392.000000
462292.000000
463211.000000
464130.000000
464977.000000
465846.000000
466726.000000
467591.000000
468441.000000
469337.000000
470266.000000
471142.000000
472034.000000
472942.000000
473830.000000
474681.000000
475549.000000
476423.000000
477260.000000
478111.000000
478991.000000
479872.000000
480722.000000
481609.000000
482521.000000
483398.000000
484305.000000
485216.000000
486089.000000
486950.000000
487820.000000
488676.000000
489514.000000
490395.000000
491302.000000
492156.000000
493058.000000
493984.000000
494864.000000
495748.000000
496650.000000
497518.000000
498349.000000
499206.000000
500078.000000
500904.000000
501756.000000
502645.000000
503493.000000
504335.000000
505199.000000
506074.000000
506890.000000
507732.000000
508585.000000
509428.000000
510237.000000
511078.000000
511949.000000
512806.000000
513644.000000
514516.000000
515387.000000
516227.000000
517065.000000
517927.000000
518778.000000
519585.000000
520422.000000
521255.000000
522044.000000
522862.000000
523711.000000
524544.000000
525394.000000
526290.000000
527161.000000
527993.000000
528871.000000
529745.000000
530560.000000
531392.000000
532221.000000
533012.000000
533816.000000
534642.000000
535435.000000
536196.000000
536986.000000
537796.000000
538578.000000
539342.000000
540138.000000
540942.000000
541724.000000
542539.000000
543359.000000
544167.000000
544926.000000
545696.000000
546506.000000
547291.000000
548027.000000
548784.000000
549561.000000
550313.000000
551057.000000
551822.000000
552602.000000
553340.000000
554101.000000
554881.000000
555666.000000
556410.000000
557165.000000
557923.000000
558686.000000
559434.000000
560223.000000
561038.000000
561812.000000
562562.000000
563323.000000
564091.000000
564828.000000
565568.000000
566334.000000
567155.000000
567978.000000
568813.000000
569674.000000
570534.000000
571347.000000
572196.000000
573065.000000
573892.000000
574715.000000
575577.000000
576444.000000
577262.000000
578110.000000
578975.000000
579793.000000
580634.000000
581502.000000
582331.000000
583165.000000
584035.000000
584932.000000
585782.000000
586667.000000
587564.000000
588422.000000
589269.000000
590146.000000
591036.000000
591871.000000
592723.000000
593591.000000
594456.000000
595288.000000
596132.000000
596995.000000
597807.000000
598637.000000
599480.000000
600299.000000
601106.000000
601968.000000
602833.000000
603672.000000
604564.000000
605464.000000
606305.000000
607150.000000
607998.000000
608832.000000
609639.000000
610482.000000
611340.000000
612158.000000
613003.000000
613871.000000
614686.000000
615487.000000
616301.000000
617095.000000
617858.000000
618644.000000
619447.000000
620222.000000
621004.000000
621823.000000
622676.000000
623482.000000
624312.000000
625151.000000
625941.000000
626744.000000
627568.000000
628377.000000
629154.000000
629965.000000
630779.000000
631557.000000
632358.000000
633179.000000
633967.000000
634749.000000
635550.000000
636373.000000
637151.000000
637933.000000
638748.000000
639586.000000
640403.000000
641228.000000
642078.000000
642945.000000
643768.000000
644642.000000
645526.000000
646384.000000
647226.000000
648083.000000
648940.000000
649755.000000
650589.000000
651432.000000
652250.000000
653064.000000
653905.000000
654740.000000
655523.000000
656344.000000
657188.000000
658001.000000
658794.000000
659621.000000
660483.000000
661308.000000
662158.000000
663048.000000
663924.000000
664748.000000
665595.000000
666427.000000
667209.000000
668018.000000
668830.000000
669620.000000
670402.000000
671210.000000
672033.000000
672814.000000
673627.000000
674466.000000
675283.000000
676070.000000
676886.000000
677745.000000
678561.000000
679430.000000
680336.000000
681199.000000
682077.000000
682993.000000
683883.000000
684736.000000
685620.000000
686522.000000
687365.000000
688214.000000
689071.000000
689928.000000
690741.000000
691571.000000
692418.000000
693229.000000
694027.000000
694843.000000
695686.000000
696482.000000
697301.000000
698144.000000
698991.000000
699800.000000
700625.000000
701451.000000
702238.000000
703042.000000
703909.000000
704800.000000
705672.000000
706519.000000
707398.000000
708291.000000
709132.000000
709972.000000
710831.000000
711707.000000
712526.000000
713391.000000
714281.000000
715142.000000
716006.000000
716922.000000
717837.000000
718694.000000
719587.000000
720486.000000
721350.000000
722198.000000
723087.000000
724007.000000
724916.000000
725778.000000
726665.000000
727554.000000
728404.000000
729264.000000
730157.000000
731040.000000
731902.000000
732807.000000
733752.000000
734656.000000
735533.000000
736457.000000
737382.000000
738252.000000
739147.000000
740066.000000
740951.000000
741829.000000
742753.000000
743677.000000
744549.000000
745445.000000
746328.000000
747171.000000
748029.000000
748905.000000
749776.000000
750617.000000
751519.000000
752444.000000
753341.000000
754212.000000
755124.000000
756051.000000
756924.000000
757828.000000
758745.000000
759603.000000
760477.000000
761382.000000
762286.000000
763150.000000
764049.000000
764945.000000
765802.000000
766683.000000
767619.000000
768558.000000
769460.000000
770412.000000
771368.000000
772260.000000
773165.000000
774066.000000
774891.000000
775723.000000
776569.000000
777410.000000
778247.000000
779163.000000
780094.000000
780980.000000
781899.000000
782818.000000
783683.000000
784569.000000
785468.000000
786319.000000
787188.000000
788063.000000
788887.000000
789724.000000
790580.000000
791418.000000
792245.000000
793097.000000
793966.000000
794785.000000
795634.000000
796484.000000
797296.000000
798120.000000
798959.000000
799811.000000
800617.000000
801464.000000
802313.000000
803137.000000
803950.000000
804798.000000
805644.000000
806475.000000
807342.000000
808228.000000
809085.000000
809934.000000
810792.000000
811650.000000
812471.000000
813328.000000
814203.000000
815042.000000
815869.000000
816730.000000
817606.000000
818437.000000
819299.000000
820197.000000
821048.000000
821889.000000
822786.000000
823684.000000
824520.000000
825393.000000
826283.000000
827131.000000
828006.000000
828901.000000
829780.000000
830618.000000
831502.000000
832399.000000
833239.000000
834105.000000
835000.000000
835868.000000
836718.000000
837599.000000
838472.000000
839300.000000
840153.000000
841039.000000
841893.000000
842765.000000
843664.000000
844528.000000
845376.000000
846262.000000
847154.000000
847990.000000
848843.000000
849710.000000
850550.000000
851352.000000
852192.000000
853052.000000
853874.000000
854714.000000
855596.000000
856449.000000
857302.000000
858185.000000
859033.000000
859838.000000
860673.000000
861502.000000
862292.000000
863113.000000
863967.000000
864787.000000
865585.000000
866428.000000
867288.000000
868093.000000
868923.000000
869772.000000
870595.000000
871391.000000
872216.000000
873044.000000
873839.000000
874668.000000
875507.000000
876301.000000
877080.000000
877895.000000
878722.000000
879495.000000
880279.000000
881092.000000
881899.000000
882665.000000
883468.000000
884293.000000
885076.000000
885853.000000
886654.000000
887461.000000
888220.000000
888999.000000
889785.000000
890562.000000
891323.000000
892115.000000
892928.000000
893708.000000
894501.000000
895322.000000
896130.000000
896896.000000
897704.000000
898544.000000
899352.000000
900153.000000
901009.000000
901864.000000
902662.000000
903486.000000
904315.000000
905135.000000
905933.000000
906766.000000
907638.000000
908473.000000
909288.000000
910127.000000
910957.000000
911738.000000
912541.000000
913294.000000
913991.000000
914676.000000
915361.000000
916076.000000
916829.000000
917626.000000
918391.000000
919171.000000
919970.000000
920770.000000
921543.000000
922343.000000
923176.000000
923979.000000
924754.000000
925560.000000
926377.000000
927224.000000
928017.000000
928838.000000
929671.000000
930503.000000
931290.000000
932095.000000
932903.000000
933698.000000
934460.000000
935258.000000
936069.000000
936880.000000
937644.000000
938440.000000
939283.000000
940105.000000
940894.000000
941717.000000
942553.000000
943342.000000
944145.000000
944986.000000
945829.000000
946616.000000
947429.000000
948249.000000
949035.000000
949820.000000
950630.000000
951440.000000
952218.000000
953033.000000
953872.000000
954702.000000
955526.000000
956393.000000
957279.000000
958108.000000
958949.000000
959812.000000
960684.000000
961511.000000
962390.000000
963282.000000
964140.000000
964986.000000
965855.000000
966752.000000
967594.000000
968470.000000
969355.000000
970213.000000
971044.000000
971927.000000
972817.000000
973646.000000
974474.000000
975337.000000
976182.000000
976991.000000
977865.000000
978764.000000
979601.000000
980451.000000
981316.000000
982158.000000
982958.000000
983793.000000
984686.000000
985552.000000
986454.000000
987381.000000
988264.000000
989135.000000
990052.000000
990960.000000
991796.000000
992664.000000
993536.000000
994346.000000
995205.000000
996088.000000
996929.000000
997785.000000
998667.000000
999563.000000
1000429.000000
1001335.000000
1002258.000000
1003113.000000
1003984.000000
1004893.000000
1005782.000000
1006641.000000
1007533.000000
1008435.000000
1009287.000000
1010149.000000
1011028.000000
1011865.000000
1012712.000000
1013600.000000
1014462.000000
1015289.000000
1016148.000000
1017027.000000
1017867.000000
1018718.000000
1019585.000000
1020435.000000
1021268.000000
1022131.000000
1023004.000000
1023831.000000
1024678.000000
1025554.000000
1026419.000000
1027265.000000
1028165.000000
1029076.000000
1029932.000000
1030799.000000
1031698.000000
1032591.000000
1033448.000000
1034353.000000
1035291.000000
1036198.000000
1037097.000000
1038036.000000
1038956.000000
1039848.000000
1040772.000000
1041689.000000
1042555.000000
1043465.000000
1044380.000000
1045255.000000
1046120.000000
1047012.000000
1047865.000000
1048706.000000
1049591.000000
1050487.000000
1051336.000000
1052225.000000
1053153.000000
1054033.000000
1054915.000000
1055828.000000
1056777.000000
1057658.000000
1058585.000000
1059526.000000
1060419.000000
1061302.000000
1062218.000000
1063136.000000
1063992.000000
1064830.000000
1065666.000000
1066513.000000
1067380.000000
1068267.000000
1069250.000000
1070287.000000
1071228.000000
1072167.000000
1073126.000000
1074019.000000
1074892.000000
1075801.000000
1076682.000000
1077524.000000
1078402.000000
1079275.000000
1080098.000000
1080942.000000
1081794.000000
1082597.000000
1083423.000000
1084267.000000
1085097.000000
1085906.000000
1086764.000000
1087632.000000
1088441.000000
1089256.000000
1090089.000000
1090898.000000
1091695.000000
1092539.000000
1093434.000000
1094290.000000
1095184.000000
1096091.000000
1096961.000000
1097834.000000
1098736.000000
1099613.000000
1100432.000000
1101290.000000
1102145.000000
1102951.000000
1103756.000000
1104584.000000
1105390.000000
1106172.000000
1106985.000000
1107833.000000
1108661.000000
1109483.000000
1110325.000000
1111159.000000
1111945.000000
1112777.000000
1113652.000000
1114500.000000
1115353.000000
1116252.000000
1117181.000000
1118043.000000
1118935.000000
1119820.000000
1120651.000000
1121509.000000
1122385.000000
1123222.000000
1124077.000000
1124964.000000
1125863.000000
1126701.000000
1127582.000000
1128468.000000
1129320.000000
1130179.000000
1131080.000000
1131959.000000
1132798.000000
1133688.000000
1134567.000000
1135416.000000
1136279.000000
1137169.000000
1138076.000000
1138945.000000
1139813.000000
1140709.000000
1141625.000000
1142491.000000
1143384.000000
1144280.000000
1145139.000000
1145972.000000
1146841.000000
1147722.000000
1148558.000000
1149405.000000
1150281.000000
1151155.000000
1151987.000000
1152867.000000
1153745.000000
1154577.000000
1155437.000000
1156329.000000
1157187.000000
1158028.000000
1158917.000000
1159825.000000
1160689.000000
1161583.000000
1162491.000000
1163340.000000
1164167.000000
1165052.000000
1165928.000000
1166749.000000
1167588.000000
1168451.000000
1169293.000000
1170121.000000
1171021.000000
1171935.000000
1172788.000000
1173687.000000
1174592.000000
1175447.000000
1176346.000000
1177252.000000
1178084.000000
1178924.000000
1179765.000000
1180594.000000
1181400.000000
1182265.000000
1183188.000000
1184111.000000
1185057.000000
1186041.000000
1186999.000000
1187967.000000
1188957.000000
1189909.000000
1190885.000000
1191865.000000
1192789.000000
1193698.000000
1194637.000000
