ECG (ms)
524.000000
1136.000000
1764.000000
2398.000000
3060.000000
3750.000000
4429.000000
5127.000000
5838.000000
6546.000000
7225.000000
7874.000000
8521.000000
9158.000000
9779.000000
10410.000000
11051.000000
11722.000000
12398.000000
13114.000000
13882.000000
14653.000000
15435.000000
16180.000000
16860.000000
17524.000000
18156.000000
18789.000000
19410.000000
20048.000000
20729.000000
21451.000000
22278.000000
23145.000000
23951.000000
24740.000000
25517.000000
26226.000000
26936.000000
27625.000000
28289.000000
28957.000000
29626.000000
30337.000000
31047.000000
31803.000000
32604.000000
33419.000000
34219.000000
34975.000000
35708.000000
36407.000000
37096.000000
37774.000000
38465.000000
39159.000000
39863.000000
40593.000000
41366.000000
42167.000000
42916.000000
43681.000000
44428.000000
45151.000000
45858.000000
46567.000000
47298.000000
48067.000000
48798.000000
49509.000000
50253.000000
51025.000000
51764.000000
52456.000000
53123.000000
53810.000000
54525.000000
55275.000000
55997.000000
56708.000000
57444.000000
58192.000000
58934.000000
59649.000000
60371.000000
61108.000000
61851.000000
62572.000000
63279.000000
64031.000000
64830.000000
65604.000000
66367.000000
67123.000000
67870.000000
68575.000000
69269.000000
69961.000000
70693.000000
71470.000000
72214.000000
72973.000000
73734.000000
74500.000000
75223.000000
75919.000000
76625.000000
77349.000000
78063.000000
78753.000000
79449.000000
80178.000000
80942.000000
81720.000000
82453.000000
83181.000000
83918.000000
84649.000000
85355.000000
86050.000000
86763.000000
87500.000000
88238.000000
88964.000000
89705.000000
90458.000000
91185.000000
91892.000000
92605.000000
93326.000000
94039.000000
94735.000000
95425.000000
96137.000000
96850.000000
97553.000000
98253.000000
98960.000000
99676.000000
100370.000000
101068.000000
101795.000000
102550.000000
103262.000000
103972.000000
104683.000000
105410.000000
106121.000000
106833.000000
107569.000000
108321.000000
109054.000000
109787.000000
110529.000000
111268.000000
111979.000000
112669.000000
113364.000000
114069.000000
114768.000000
115454.000000
116143.000000
116841.000000
117545.000000
118233.000000
118923.000000
119628.000000
120344.000000
121039.000000
121724.000000
122427.000000
123141.000000
123841.000000
124552.000000
125271.000000
125978.000000
126676.000000
127375.000000
128081.000000
128772.000000
129456.000000
130147.000000
130856.000000
131578.000000
132281.000000
132981.000000
133679.000000
134383.000000
135080.000000
135763.000000
136446.000000
137141.000000
137858.000000
138565.000000
139277.000000
140018.000000
140750.000000
141466.000000
142147.000000
142821.000000
143490.000000
144165.000000
144852.000000
145553.000000
146264.000000
147006.000000
147761.000000
148489.000000
149191.000000
149891.000000
150581.000000
151255.000000
151909.000000
152562.000000
153229.000000
153907.000000
154606.000000
155314.000000
156052.000000
156810.000000
157532.000000
158235.000000
158941.000000
159644.000000
160326.000000
160997.000000
161673.000000
162367.000000
163080.000000
163784.000000
164478.000000
165194.000000
165920.000000
166630.000000
167314.000000
168001.000000
168703.000000
169414.000000
170134.000000
170846.000000
171543.000000
172229.000000
172918.000000
173612.000000
174319.000000
175018.000000
175704.000000
176395.000000
177103.000000
177799.000000
178481.000000
179166.000000
179865.000000
180545.000000
181203.000000
181862.000000
182533.000000
183242.000000
183944.000000
184652.000000
185380.000000
186085.000000
186757.000000
187424.000000
188094.000000
188759.000000
189426.000000
190096.000000
190752.000000
191416.000000
192102.000000
192800.000000
193483.000000
194171.000000
194875.000000
195577.000000
196256.000000
196935.000000
197606.000000
198267.000000
198916.000000
199572.000000
200259.000000
200981.000000
201680.000000
202379.000000
203095.000000
203823.000000
204515.000000
205189.000000
205861.000000
206523.000000
207166.000000
207812.000000
208472.000000
209163.000000
209856.000000
210537.000000
211246.000000
211968.000000
212665.000000
213343.000000
214023.000000
214711.000000
215398.000000
216083.000000
216781.000000
217513.000000
218261.000000
218992.000000
219718.000000
220431.000000
221127.000000
221809.000000
222503.000000
223211.000000
223904.000000
224583.000000
225264.000000
225959.000000
226656.000000
227341.000000
228037.000000
228755.000000
229492.000000
230198.000000
230890.000000
231591.000000
232301.000000
233010.000000
233717.000000
234429.000000
235173.000000
235933.000000
236665.000000
237400.000000
238133.000000
238864.000000
239564.000000
240257.000000
240963.000000
241683.000000
242391.000000
243098.000000
243820.000000
244574.000000
245303.000000
246014.000000
246740.000000
247494.000000
248234.000000
248952.000000
249686.000000
250411.000000
251130.000000
251824.000000
252511.000000
253188.000000
253854.000000
254527.000000
255213.000000
255917.000000
256628.000000
257323.000000
258020.000000
258721.000000
259414.000000
260087.000000
260760.000000
261438.000000
262126.000000
262831.000000
263525.000000
264223.000000
264941.000000
265651.000000
266341.000000
267031.000000
267725.000000
268419.000000
269086.000000
269752.000000
270429.000000
271125.000000
271816.000000
272512.000000
273239.000000
273941.000000
274629.000000
275320.000000
276008.000000
276697.000000
277375.000000
278047.000000
278730.000000
279420.000000
280119.000000
280792.000000
281464.000000
282148.000000
282857.000000
283578.000000
284286.000000
284988.000000
285690.000000
286404.000000
287115.000000
287808.000000
288492.000000
289175.000000
289875.000000
290579.000000
291271.000000
291957.000000
292656.000000
293379.000000
294103.000000
294804.000000
295498.000000
296188.000000
296869.000000
297536.000000
298191.000000
298847.000000
299521.000000
300226.000000
300952.000000
301681.000000
302435.000000
303187.000000
303898.000000
304588.000000
305270.000000
305951.000000
306622.000000
307294.000000
307990.000000
308713.000000
309433.000000
310144.000000
310878.000000
311621.000000
312353.000000
313050.000000
313742.000000
314422.000000
315094.000000
315756.000000
316430.000000
317143.000000
317900.000000
318626.000000
319343.000000
320040.000000
320731.000000
321406.000000
322070.000000
322721.000000
323356.000000
323994.000000
324637.000000
325295.000000
325972.000000
326668.000000
327365.000000
328046.000000
328738.000000
329426.000000
330114.000000
330788.000000
331460.000000
332137.000000
332821.000000
333503.000000
334170.000000
334837.000000
335522.000000
336224.000000
336909.000000
337591.000000
338287.000000
338990.000000
339685.000000
340359.000000
341037.000000
341724.000000
342415.000000
343084.000000
343753.000000
344429.000000
345111.000000
345792.000000
346472.000000
347169.000000
347878.000000
348586.000000
349281.000000
349983.000000
350685.000000
351386.000000
352063.000000
352738.000000
353414.000000
354094.000000
354762.000000
355434.000000
356131.000000
356844.000000
357542.000000
358231.000000
358923.000000
359617.000000
360290.000000
360957.000000
361634.000000
362329.000000
363049.000000
363745.000000
364442.000000
365140.000000
365835.000000
366511.000000
367185.000000
367856.000000
368529.000000
369197.000000
369867.000000
370558.000000
371275.000000
371998.000000
372695.000000
373384.000000
374068.000000
374735.000000
375392.000000
376047.000000
376699.000000
377353.000000
378006.000000
378678.000000
379379.000000
380094.000000
380802.000000
381525.000000
382262.000000
382986.000000
383670.000000
384347.000000
385018.000000
385684.000000
386336.000000
386992.000000
387668.000000
388374.000000
389104.000000
389806.000000
390518.000000
391237.000000
391946.000000
392620.000000
393289.000000
393958.000000
394635.000000
395308.000000
395983.000000
396673.000000
397375.000000
398078.000000
398760.000000
399444.000000
400126.000000
400801.000000
401464.000000
402128.000000
402801.000000
403485.000000
404172.000000
404859.000000
405552.000000
406257.000000
406962.000000
407636.000000
408306.000000
408980.000000
409655.000000
410322.000000
410997.000000
411679.000000
412379.000000
413056.000000
413725.000000
414405.000000
415090.000000
415759.000000
416428.000000
417104.000000
417787.000000
418461.000000
419134.000000
419808.000000
420491.000000
421178.000000
421850.000000
422521.000000
423179.000000
423826.000000
424466.000000
425119.000000
425778.000000
426441.000000
427118.000000
427795.000000
428465.000000
429127.000000
429798.000000
430486.000000
431192.000000
431891.000000
432586.000000
433294.000000
434008.000000
434724.000000
435419.000000
436108.000000
436795.000000
437492.000000
438198.000000
438911.000000
439639.000000
440402.000000
441188.000000
441927.000000
442650.000000
443369.000000
444071.000000
444748.000000
445429.000000
446132.000000
446854.000000
447571.000000
448295.000000
449034.000000
449769.000000
450479.000000
451173.000000
451871.000000
452570.000000
453264.000000
453958.000000
454678.000000
455405.000000
456126.000000
456825.000000
457525.000000
458236.000000
458959.000000
459660.000000
460360.000000
461074.000000
461795.000000
462498.000000
463191.000000
463896.000000
464603.000000
465316.000000
466010.000000
466712.000000
467430.000000
468154.000000
468846.000000
469533.000000
470227.000000
470925.000000
471613.000000
472301.000000
473010.000000
473741.000000
474451.000000
475158.000000
475876.000000
476593.000000
477289.000000
477967.000000
478660.000000
479359.000000
480065.000000
480761.000000
481459.000000
482177.000000
482900.000000
483628.000000
484338.000000
485040.000000
485751.000000
486457.000000
487143.000000
487823.000000
488512.000000
489211.000000
489914.000000
490614.000000
491317.000000
492042.000000
492787.000000
493524.000000
494243.000000
494948.000000
495648.000000
496339.000000
497015.000000
497700.000000
498409.000000
499143.000000
499854.000000
500562.000000
501283.000000
502008.000000
502721.000000
503408.000000
504091.000000
504773.000000
505462.000000
506141.000000
506813.000000
507509.000000
508222.000000
508945.000000
509639.000000
510335.000000
511040.000000
511728.000000
512388.000000
513047.000000
513701.000000
514360.000000
515022.000000
515697.000000
516381.000000
517056.000000
517733.000000
518426.000000
519136.000000
519862.000000
520573.000000
521280.000000
521992.000000
522700.000000
523403.000000
524093.000000
524787.000000
525489.000000
526202.000000
526902.000000
527591.000000
528291.000000
528999.000000
529705.000000
530408.000000
531110.000000
531817.000000
532536.000000
533240.000000
533942.000000
534666.000000
535406.000000
536160.000000
536873.000000
537573.000000
538285.000000
538999.000000
539706.000000
540416.000000
541135.000000
541877.000000
542639.000000
543356.000000
544059.000000
544770.000000
545478.000000
546202.000000
546922.000000
547657.000000
548435.000000
549217.000000
549968.000000
550694.000000
551423.000000
552139.000000
552845.000000
553531.000000
554229.000000
554942.000000
555692.000000
556422.000000
557166.000000
557913.000000
558643.000000
559346.000000
560051.000000
560749.000000
561431.000000
562111.000000
562810.000000
563541.000000
564272.000000
564987.000000
565724.000000
566456.000000
567181.000000
567878.000000
568567.000000
569256.000000
569948.000000
570640.000000
571333.000000
572059.000000
572804.000000
573553.000000
574271.000000
574978.000000
575685.000000
576392.000000
577093.000000
577787.000000
578497.000000
579225.000000
579978.000000
580712.000000
581426.000000
582142.000000
582848.000000
583522.000000
584193.000000
584878.000000
585574.000000
586274.000000
586985.000000
587704.000000
588425.000000
589124.000000
589817.000000
590518.000000
591231.000000
591921.000000
592614.000000
593308.000000
594007.000000
594686.000000
595360.000000
596049.000000
596744.000000
597426.000000
598109.000000
598806.000000
599511.000000
600202.000000
600890.000000
601585.000000
602281.000000
602973.000000
603646.000000
604322.000000
604995.000000
605672.000000
606337.000000
607006.000000
607690.000000
608385.000000
609087.000000
609786.000000
610497.000000
611213.000000
611920.000000
612602.000000
613279.000000
613945.000000
614601.000000
615243.000000
615891.000000
616570.000000
617327.000000
618114.000000
618869.000000
619647.000000
620420.000000
621151.000000
621850.000000
622546.000000
623231.000000
623909.000000
624574.000000
625244.000000
625924.000000
626617.000000
627308.000000
628019.000000
628738.000000
629463.000000
630161.000000
630860.000000
631557.000000
632256.000000
632930.000000
633605.000000
634289.000000
634990.000000
635690.000000
636396.000000
637115.000000
637837.000000
638539.000000
639229.000000
639928.000000
640622.000000
641305.000000
641988.000000
642677.000000
643379.000000
644067.000000
644760.000000
645472.000000
646188.000000
646884.000000
647573.000000
648269.000000
648957.000000
649620.000000
650285.000000
650981.000000
651726.000000
652458.000000
653190.000000
653935.000000
654674.000000
655381.000000
656050.000000
656736.000000
657420.000000
658113.000000
658789.000000
659451.000000
660108.000000
660746.000000
661369.000000
662006.000000
662653.000000
663333.000000
664009.000000
664679.000000
665345.000000
666021.000000
666694.000000
667353.000000
668018.000000
668695.000000
669392.000000
670102.000000
670802.000000
671509.000000
672216.000000
672929.000000
673622.000000
674313.000000
675009.000000
675707.000000
676416.000000
677115.000000
677819.000000
678539.000000
679259.000000
679963.000000
680654.000000
681355.000000
682064.000000
682772.000000
683457.000000
684143.000000
684831.000000
685531.000000
686229.000000
686921.000000
687621.000000
688335.000000
689037.000000
689719.000000
690401.000000
691091.000000
691792.000000
692495.000000
693223.000000
693965.000000
694716.000000
695440.000000
696157.000000
696863.000000
697547.000000
698211.000000
698878.000000
699553.000000
700253.000000
700950.000000
701663.000000
702388.000000
703135.000000
703856.000000
704564.000000
705268.000000
705969.000000
706658.000000
707329.000000
708009.000000
708695.000000
709381.000000
710059.000000
710747.000000
711460.000000
712207.000000
712957.000000
713684.000000
714396.000000
715101.000000
715802.000000
716495.000000
717169.000000
717844.000000
718521.000000
719215.000000
719917.000000
720624.000000
721353.000000
722103.000000
722853.000000
723567.000000
724268.000000
724971.000000
725668.000000
726350.000000
727033.000000
727731.000000
728439.000000
729131.000000
729832.000000
730549.000000
731268.000000
731964.000000
732655.000000
733342.000000
734033.000000
734709.000000
735388.000000
736073.000000
736767.000000
737445.000000
738124.000000
738811.000000
739500.000000
740171.000000
740841.000000
741520.000000
742198.000000
742874.000000
743555.000000
744245.000000
744948.000000
745640.000000
746336.000000
747035.000000
747738.000000
748418.000000
749091.000000
749763.000000
750431.000000
751094.000000
751767.000000
752474.000000
753198.000000
753908.000000
754616.000000
755331.000000
756048.000000
756737.000000
757417.000000
758095.000000
758777.000000
759459.000000
760150.000000
760861.000000
761577.000000
762267.000000
762953.000000
763647.000000
764351.000000
765035.000000
765715.000000
766402.000000
767090.000000
767772.000000
768449.000000
769139.000000
769848.000000
770562.000000
771262.000000
771959.000000
772659.000000
773356.000000
774039.000000
774722.000000
775409.000000
776099.000000
776789.000000
777473.000000
778164.000000
778871.000000
779580.000000
780276.000000
780973.000000
781688.000000
782411.000000
783107.000000
783808.000000
784501.000000
785184.000000
785850.000000
786521.000000
787197.000000
787883.000000
788560.000000
789245.000000
789942.000000
790655.000000
791344.000000
792028.000000
792706.000000
793376.000000
794031.000000
794687.000000
795348.000000
796017.000000
796689.000000
797374.000000
798081.000000
798799.000000
799497.000000
800202.000000
800893.000000
801575.000000
802237.000000
802905.000000
803588.000000
804298.000000
805003.000000
805724.000000
806471.000000
807227.000000
807944.000000
808665.000000
809374.000000
810066.000000
810734.000000
811402.000000
812087.000000
812797.000000
813499.000000
814205.000000
814930.000000
815666.000000
816380.000000
817098.000000
817817.000000
818515.000000
819186.000000
819861.000000
820545.000000
821248.000000
821942.000000
822658.000000
823398.000000
824149.000000
824863.000000
825569.000000
826256.000000
826932.000000
827593.000000
828256.000000
828946.000000
829681.000000
830427.000000
831165.000000
831918.000000
832668.000000
833384.000000
834077.000000
834777.000000
835476.000000
836175.000000
836850.000000
837529.000000
838229.000000
838952.000000
839664.000000
840371.000000
841091.000000
841809.000000
842508.000000
843190.000000
843882.000000
844583.000000
845276.000000
845961.000000
846649.000000
847341.000000
848030.000000
848705.000000
849387.000000
850075.000000
850756.000000
851426.000000
852101.000000
852795.000000
853497.000000
854182.000000
854867.000000
855562.000000
856260.000000
856937.000000
857607.000000
858283.000000
858959.000000
859638.000000
860309.000000
860982.000000
861672.000000
862367.000000
863047.000000
863730.000000
864415.000000
865101.000000
865778.000000
866444.000000
867110.000000
867778.000000
868444.000000
869094.000000
869746.000000
870417.000000
871107.000000
871805.000000
872501.000000
873203.000000
873912.000000
874603.000000
875280.000000
875957.000000
876629.000000
877304.000000
877969.000000
878637.000000
879322.000000
880024.000000
880713.000000
881405.000000
882102.000000
882789.000000
883457.000000
884128.000000
884800.000000
885468.000000
886129.000000
886801.000000
887488.000000
888183.000000
888861.000000
889540.000000
890224.000000
890911.000000
891593.000000
892286.000000
892999.000000
893724.000000
894429.000000
895126.000000
895824.000000
896512.000000
897181.000000
897838.000000
898508.000000
899196.000000
899910.000000
900619.000000
901329.000000
902055.000000
902778.000000
903471.000000
904166.000000
904852.000000
905537.000000
906216.000000
906895.000000
907584.000000
908294.000000
909012.000000
909706.000000
910389.000000
911072.000000
911750.000000
912419.000000
913086.000000
913770.000000
914459.000000
915148.000000
915825.000000
916513.000000
917203.000000
917887.000000
918556.000000
919222.000000
919893.000000
920569.000000
921237.000000
921906.000000
922592.000000
923288.000000
923973.000000
924662.000000
925361.000000
926062.000000
926743.000000
927426.000000
928103.000000
928787.000000
929455.000000
930124.000000
930806.000000
931496.000000
932174.000000
932857.000000
933548.000000
934252.000000
934935.000000
935623.000000
936306.000000
937000.000000
937678.000000
938367.000000
939063.000000
939775.000000
940487.000000
941227.000000
941971.000000
942714.000000
943432.000000
