ECG (ms)
402.000000
1481.000000
2601.000000
3724.000000
4799.000000
5885.000000
6886.000000
7919.000000
8963.000000
9974.000000
11071.000000
12209.000000
13303.000000
14427.000000
15535.000000
16579.000000
17643.000000
18701.000000
19758.000000
20878.000000
21995.000000
23053.000000
24149.000000
25250.000000
26324.000000
27439.000000
28555.000000
29611.000000
30673.000000
31738.000000
32790.000000
33825.000000
34918.000000
36033.000000
37116.000000
38233.000000
39364.000000
40461.000000
41561.000000
42620.000000
43633.000000
44707.000000
45828.000000
46927.000000
48002.000000
49127.000000
50261.000000
51400.000000
52506.000000
53644.000000
54782.000000
55898.000000
56997.000000
58124.000000
59288.000000
60408.000000
61524.000000
62675.000000
63817.000000
64892.000000
65995.000000
67127.000000
68243.000000
69401.000000
70557.000000
71690.000000
72843.000000
74000.000000
75138.000000
76239.000000
77337.000000
78475.000000
79636.000000
80754.000000
81855.000000
82982.000000
84108.000000
85217.000000
86386.000000
87549.000000
88674.000000
89821.000000
90955.000000
92045.000000
93180.000000
94327.000000
95432.000000
96583.000000
97735.000000
98875.000000
100083.000000
101284.000000
102476.000000
103685.000000
104851.000000
106039.000000
107209.000000
108361.000000
109551.000000
110728.000000
111877.000000
113070.000000
114245.000000
115404.000000
116604.000000
117765.000000
118968.000000
120152.000000
121304.000000
122517.000000
123722.000000
124917.000000
126044.000000
127196.000000
128393.000000
129602.000000
130791.000000
131953.000000
133141.000000
134350.000000
135543.000000
136676.000000
137841.000000
139011.000000
140184.000000
141317.000000
142508.000000
143688.000000
144827.000000
145993.000000
147166.000000
148303.000000
149449.000000
150622.000000
151758.000000
152939.000000
154117.000000
155252.000000
156375.000000
157553.000000
158737.000000
159885.000000
161071.000000
162256.000000
163401.000000
164528.000000
165679.000000
166831.000000
167955.000000
169046.000000
170207.000000
171416.000000
172595.000000
173750.000000
174901.000000
176076.000000
177230.000000
178335.000000
179425.000000
180575.000000
181725.000000
182838.000000
183990.000000
185139.000000
186275.000000
187379.000000
188478.000000
189622.000000
190754.000000
191855.000000
192940.000000
194049.000000
195188.000000
196326.000000
197418.000000
198463.000000
199554.000000
200673.000000
201773.000000
202871.000000
204020.000000
205168.000000
206300.000000
207409.000000
208560.000000
209714.000000
210841.000000
211995.000000
213144.000000
214263.000000
215422.000000
216583.000000
217711.000000
218870.000000
220026.000000
221150.000000
222313.000000
223470.000000
224601.000000
225791.000000
226975.000000
228119.000000
229277.000000
230454.000000
231600.000000
232764.000000
233927.000000
235063.000000
236182.000000
237370.000000
238572.000000
239742.000000
240900.000000
242100.000000
243289.000000
244462.000000
245661.000000
246847.000000
247995.000000
249190.000000
250389.000000
251570.000000
252778.000000
253964.000000
255116.000000
256298.000000
257465.000000
258608.000000
259762.000000
260957.000000
262166.000000
263334.000000
264547.000000
265773.000000
266972.000000
268145.000000
269345.000000
270527.000000
271696.000000
272890.000000
274043.000000
275244.000000
276431.000000
277590.000000
278760.000000
279882.000000
281034.000000
282182.000000
283290.000000
284459.000000
285616.000000
286719.000000
287862.000000
288983.000000
290066.000000
291192.000000
292302.000000
293388.000000
294518.000000
295647.000000
296744.000000
297886.000000
299014.000000
300100.000000
301228.000000
302351.000000
303433.000000
304550.000000
305679.000000
306759.000000
307865.000000
308989.000000
310074.000000
311187.000000
312320.000000
313418.000000
314564.000000
315727.000000
316828.000000
317968.000000
319100.000000
320199.000000
321321.000000
322489.000000
323621.000000
324799.000000
325967.000000
327093.000000
328261.000000
329433.000000
330561.000000
331741.000000
332907.000000
334032.000000
335203.000000
336373.000000
337522.000000
338727.000000
339927.000000
341090.000000
342312.000000
343496.000000
344654.000000
345849.000000
347003.000000
348187.000000
349392.000000
350550.000000
351692.000000
352917.000000
354117.000000
355274.000000
356475.000000
357647.000000
358787.000000
359967.000000
361136.000000
362274.000000
363441.000000
364575.000000
365675.000000
366832.000000
368017.000000
369182.000000
370348.000000
371547.000000
372705.000000
373860.000000
375032.000000
376163.000000
377320.000000
378508.000000
379654.000000
380875.000000
382067.000000
383218.000000
384405.000000
385577.000000
386710.000000
387875.000000
389052.000000
390214.000000
391403.000000
392555.000000
393674.000000
394838.000000
396005.000000
397130.000000
398311.000000
399459.000000
400580.000000
401733.000000
402860.000000
403950.000000
405097.000000
406246.000000
407347.000000
408485.000000
409660.000000
410838.000000
412053.000000
413281.000000
414447.000000
415639.000000
416831.000000
417959.000000
419120.000000
420292.000000
421414.000000
422546.000000
423685.000000
424776.000000
425895.000000
427025.000000
428100.000000
429209.000000
430337.000000
431418.000000
432519.000000
433640.000000
434724.000000
435817.000000
436950.000000
438040.000000
439153.000000
440311.000000
441417.000000
442543.000000
443689.000000
444780.000000
445917.000000
447075.000000
448230.000000
449341.000000
450444.000000
451616.000000
452798.000000
453955.000000
455092.000000
456264.000000
457425.000000
458552.000000
459654.000000
460798.000000
461962.000000
463085.000000
464257.000000
465428.000000
466571.000000
467759.000000
468934.000000
470083.000000
471277.000000
472455.000000
473601.000000
474791.000000
475961.000000
477117.000000
478332.000000
479511.000000
480660.000000
481843.000000
482975.000000
484141.000000
485321.000000
486468.000000
487685.000000
488873.000000
490055.000000
491273.000000
492446.000000
493630.000000
494845.000000
496040.000000
497297.000000
498525.000000
499717.000000
500931.000000
502119.000000
503329.000000
504516.000000
505652.000000
506834.000000
507978.000000
509064.000000
510172.000000
511315.000000
512448.000000
513661.000000
514843.000000
515991.000000
517188.000000
518352.000000
519463.000000
520630.000000
521801.000000
522936.000000
524106.000000
525298.000000
526439.000000
527605.000000
528772.000000
529902.000000
531077.000000
532250.000000
533392.000000
534573.000000
535722.000000
536835.000000
538015.000000
539169.000000
540308.000000
541503.000000
542692.000000
543826.000000
544987.000000
546127.000000
547242.000000
548437.000000
549609.000000
550745.000000
551938.000000
553103.000000
554241.000000
555420.000000
556574.000000
557687.000000
558839.000000
559954.000000
561042.000000
562166.000000
563262.000000
564417.000000
565570.000000
566675.000000
567812.000000
568962.000000
570072.000000
571226.000000
572365.000000
573447.000000
574570.000000
575694.000000
576785.000000
577983.000000
579178.000000
580329.000000
581511.000000
582655.000000
583815.000000
584966.000000
586095.000000
587280.000000
588460.000000
589595.000000
590775.000000
591921.000000
593037.000000
594200.000000
595325.000000
596424.000000
597547.000000
598647.000000
599723.000000
600870.000000
601994.000000
603087.000000
604235.000000
605389.000000
606500.000000
607658.000000
608812.000000
609947.000000
611127.000000
612284.000000
613410.000000
614583.000000
615762.000000
616903.000000
618079.000000
619239.000000
620363.000000
621536.000000
622688.000000
623813.000000
624964.000000
626102.000000
627197.000000
628348.000000
629499.000000
630619.000000
631802.000000
633000.000000
634212.000000
635373.000000
636479.000000
637653.000000
638828.000000
640003.000000
641122.000000
642221.000000
643367.000000
644526.000000
645647.000000
646741.000000
647886.000000
649016.000000
650095.000000
651248.000000
652415.000000
653539.000000
654704.000000
655849.000000
656945.000000
658052.000000
659201.000000
660338.000000
661501.000000
662686.000000
663832.000000
665012.000000
666176.000000
667330.000000
668534.000000
669713.000000
670871.000000
672058.000000
673203.000000
674411.000000
675604.000000
676753.000000
677901.000000
679086.000000
680212.000000
681345.000000
682524.000000
683675.000000
684763.000000
685904.000000
687060.000000
688199.000000
689342.000000
690524.000000
691680.000000
692815.000000
693991.000000
695161.000000
696314.000000
697520.000000
698723.000000
699885.000000
701089.000000
702287.000000
703482.000000
704715.000000
705930.000000
707113.000000
708351.000000
709567.000000
710803.000000
712028.000000
713258.000000
714491.000000
715694.000000
716930.000000
718150.000000
719320.000000
720560.000000
721782.000000
722951.000000
724186.000000
725377.000000
726614.000000
727802.000000
729015.000000
730175.000000
731362.000000
732521.000000
733638.000000
734832.000000
736060.000000
737242.000000
738426.000000
739622.000000
740767.000000
741858.000000
743007.000000
744173.000000
745298.000000
746411.000000
747551.000000
748689.000000
749784.000000
750829.000000
751922.000000
753053.000000
754143.000000
755170.000000
756229.000000
757301.000000
758360.000000
759382.000000
760453.000000
761605.000000
762723.000000
763789.000000
764882.000000
765998.000000
767075.000000
768139.000000
769265.000000
770400.000000
771506.000000
772661.000000
773812.000000
774918.000000
776076.000000
777289.000000
778431.000000
779603.000000
780801.000000
781960.000000
783157.000000
784373.000000
785556.000000
786803.000000
788008.000000
789167.000000
790364.000000
791513.000000
792661.000000
793879.000000
795091.000000
796348.000000
797605.000000
798850.000000
800083.000000
801280.000000
802502.000000
803712.000000
804963.000000
806147.000000
807335.000000
808490.000000
809674.000000
810834.000000
811957.000000
813141.000000
814368.000000
815549.000000
816788.000000
817988.000000
819163.000000
820364.000000
821538.000000
822760.000000
823990.000000
825146.000000
826351.000000
827525.000000
828673.000000
829874.000000
831071.000000
832248.000000
833498.000000
834744.000000
835951.000000
837178.000000
838409.000000
839639.000000
840873.000000
842068.000000
843200.000000
844361.000000
845498.000000
846648.000000
847878.000000
849074.000000
850206.000000
851370.000000
852523.000000
853620.000000
854731.000000
855884.000000
856982.000000
858106.000000
859230.000000
860314.000000
861341.000000
862419.000000
863507.000000
864563.000000
865684.000000
866830.000000
867942.000000
869027.000000
870150.000000
871273.000000
872372.000000
873437.000000
874580.000000
875738.000000
876877.000000
877977.000000
879101.000000
880240.000000
881346.000000
882485.000000
883636.000000
884756.000000
885924.000000
887096.000000
888231.000000
889416.000000
890614.000000
891763.000000
892920.000000
894118.000000
895278.000000
896496.000000
897695.000000
898859.000000
900094.000000
901307.000000
902480.000000
903695.000000
904876.000000
906099.000000
907369.000000
908593.000000
909798.000000
911030.000000
912193.000000
913380.000000
914587.000000
915751.000000
916951.000000
918157.000000
919328.000000
920539.000000
921736.000000
922886.000000
924080.000000
925269.000000
926419.000000
927619.000000
928809.000000
929962.000000
931163.000000
932368.000000
933546.000000
934780.000000
936005.000000
937215.000000
938454.000000
939687.000000
940869.000000
942091.000000
943346.000000
944577.000000
945867.000000
947102.000000
948273.000000
949458.000000
950638.000000
951776.000000
952974.000000
954153.000000
955303.000000
956491.000000
957669.000000
958828.000000
960025.000000
961191.000000
962336.000000
963515.000000
964662.000000
965761.000000
966913.000000
968039.000000
969114.000000
970237.000000
971352.000000
972421.000000
973525.000000
974611.000000
975691.000000
976794.000000
977855.000000
978889.000000
979942.000000
980987.000000
982011.000000
983087.000000
984177.000000
985225.000000
986320.000000
987442.000000
988548.000000
989622.000000
990714.000000
991838.000000
992965.000000
994042.000000
995092.000000
996190.000000
997330.000000
998440.000000
999557.000000
1000688.000000
1001839.000000
1002958.000000
1004131.000000
1005315.000000
1006445.000000
1007569.000000
1008726.000000
1009884.000000
1011027.000000
1012234.000000
1013426.000000
1014598.000000
1015795.000000
1017010.000000
1018145.000000
1019314.000000
1020515.000000
1021657.000000
1022819.000000
1023997.000000
1025189.000000
1026330.000000
1027504.000000
1028690.000000
1029842.000000
1030955.000000
1032119.000000
1033306.000000
1034468.000000
1035638.000000
1036874.000000
1038111.000000
1039304.000000
1040506.000000
1041755.000000
1042985.000000
1044156.000000
1045380.000000
1046585.000000
1047746.000000
1048938.000000
1050150.000000
1051307.000000
1052507.000000
1053701.000000
1054841.000000
1056008.000000
1057188.000000
1058366.000000
1059615.000000
1060873.000000
1062060.000000
1063287.000000
1064510.000000
1065680.000000
1066893.000000
1068120.000000
1069313.000000
1070554.000000
1071776.000000
1072974.000000
1074218.000000
1075406.000000
1076578.000000
1077777.000000
1078933.000000
1080102.000000
1081313.000000
1082499.000000
1083712.000000
1084944.000000
1086148.000000
1087305.000000
1088525.000000
1089729.000000
1090891.000000
1092082.000000
1093268.000000
1094441.000000
1095573.000000
1096772.000000
1097972.000000
1099160.000000
1100341.000000
1101573.000000
1102783.000000
1103950.000000
1105074.000000
1106250.000000
1107432.000000
1108621.000000
1109788.000000
1110910.000000
1112052.000000
1113230.000000
1114411.000000
1115594.000000
1116737.000000
1117867.000000
1119057.000000
1120254.000000
1121414.000000
1122598.000000
1123821.000000
1125043.000000
1126223.000000
1127429.000000
1128605.000000
1129832.000000
1131031.000000
1132256.000000
1133497.000000
1134759.000000
1135992.000000
1137184.000000
1138382.000000
1139612.000000
1140812.000000
1142083.000000
1143317.000000
1144518.000000
1145771.000000
1147005.000000
1148162.000000
1149334.000000
1150539.000000
1151726.000000
1152882.000000
1154102.000000
1155298.000000
1156445.000000
1157649.000000
1158847.000000
1160005.000000
1161212.000000
1162439.000000
1163650.000000
1164905.000000
1166147.000000
1167384.000000
1168647.000000
1169871.000000
1171077.000000
1172354.000000
1173639.000000
1174853.000000
1176106.000000
1177368.000000
1178619.000000
1179978.000000
1181349.000000
1182637.000000
1183983.000000
1185303.000000
1186502.000000
1187738.000000
1188940.000000
1190086.000000
1191277.000000
1192454.000000
1193580.000000
1194721.000000
1195846.000000
1196884.000000
1197857.000000
1198802.000000
1199811.000000
1200827.000000
1201771.000000
1202783.000000
1203802.000000
1204854.000000
1205897.000000
1206894.000000
1207958.000000
1209033.000000
