ECG (ms)
794.000000
1626.000000
2458.000000
3311.000000
4170.000000
4980.000000
5794.000000
6671.000000
7618.000000
8535.000000
9383.000000
10236.000000
11109.000000
11978.000000
12817.000000
13705.000000
14601.000000
15425.000000
16279.000000
17181.000000
18062.000000
18889.000000
19757.000000
20678.000000
21595.000000
22470.000000
23377.000000
24267.000000
25102.000000
25934.000000
26811.000000
27722.000000
28566.000000
29430.000000
30341.000000
31260.000000
32096.000000
32941.000000
33854.000000
34705.000000
35495.000000
36305.000000
37173.000000
38069.000000
38947.000000
39881.000000
40826.000000
41698.000000
42558.000000
43474.000000
44426.000000
45343.000000
46195.000000
47073.000000
48008.000000
48932.000000
49795.000000
50683.000000
51601.000000
52488.000000
53325.000000
54187.000000
55094.000000
55956.000000
56849.000000
57788.000000
58696.000000
59523.000000
60382.000000
61298.000000
62215.000000
63076.000000
63938.000000
64839.000000
65729.000000
66560.000000
67403.000000
68301.000000
69200.000000
70055.000000
70969.000000
71884.000000
72746.000000
73597.000000
74491.000000
75371.000000
76195.000000
77054.000000
77955.000000
78826.000000
79629.000000
80443.000000
81302.000000
82157.000000
82956.000000
83790.000000
84673.000000
85557.000000
86398.000000
87276.000000
88195.000000
89074.000000
89897.000000
90755.000000
91656.000000
92519.000000
93325.000000
94173.000000
95071.000000
95949.000000
96776.000000
97627.000000
98517.000000
99371.000000
100204.000000
101087.000000
101971.000000
102804.000000
103608.000000
104446.000000
105303.000000
106146.000000
106941.000000
107799.000000
108741.000000
109670.000000
110550.000000
111458.000000
112395.000000
113317.000000
114171.000000
114985.000000
115836.000000
116717.000000
117546.000000
118379.000000
119263.000000
120148.000000
120993.000000
121840.000000
122723.000000
123598.000000
124435.000000
125297.000000
126187.000000
127012.000000
127800.000000
128595.000000
129325.000000
130026.000000
130756.000000
131506.000000
132319.000000
133271.000000
134186.000000
135013.000000
135834.000000
136685.000000
137544.000000
138358.000000
139174.000000
140044.000000
140936.000000
141768.000000
142586.000000
143440.000000
144308.000000
145133.000000
145959.000000
146861.000000
147797.000000
148694.000000
149604.000000
150531.000000
151412.000000
152225.000000
153037.000000
153870.000000
154692.000000
155474.000000
156269.000000
157109.000000
157990.000000
158835.000000
159698.000000
160594.000000
161461.000000
162275.000000
163106.000000
163971.000000
164828.000000
165651.000000
166502.000000
167375.000000
168216.000000
169017.000000
169847.000000
170703.000000
171546.000000
172384.000000
173283.000000
174191.000000
175035.000000
175824.000000
176643.000000
177558.000000
178442.000000
179262.000000
180108.000000
180980.000000
181836.000000
182653.000000
183488.000000
184363.000000
185221.000000
186064.000000
186942.000000
187805.000000
188603.000000
189397.000000
190232.000000
191078.000000
191886.000000
192689.000000
193517.000000
194349.000000
195162.000000
196011.000000
196885.000000
197717.000000
198518.000000
199380.000000
200257.000000
201087.000000
201911.000000
202761.000000
203585.000000
204351.000000
205104.000000
205901.000000
206752.000000
207589.000000
208387.000000
209242.000000
210127.000000
210997.000000
211811.000000
212664.000000
213557.000000
214422.000000
215255.000000
216137.000000
217057.000000
217935.000000
218767.000000
219635.000000
220492.000000
221283.000000
222080.000000
222942.000000
223838.000000
224688.000000
225533.000000
226430.000000
227335.000000
228171.000000
229017.000000
229920.000000
230785.000000
231578.000000
232397.000000
233266.000000
234107.000000
234899.000000
235740.000000
236636.000000
237540.000000
238397.000000
239331.000000
240273.000000
241162.000000
242013.000000
242911.000000
243799.000000
244631.000000
245500.000000
246443.000000
247412.000000
248334.000000
249223.000000
250132.000000
251024.000000
251832.000000
252641.000000
253491.000000
254366.000000
255190.000000
256027.000000
256921.000000
257796.000000
258619.000000
259455.000000
260330.000000
261197.000000
262002.000000
262833.000000
263717.000000
264581.000000
265406.000000
266277.000000
267177.000000
268037.000000
268865.000000
269757.000000
270680.000000
271602.000000
272469.000000
273344.000000
274212.000000
275025.000000
275817.000000
276659.000000
277542.000000
278394.000000
279269.000000
280181.000000
281062.000000
281907.000000
282774.000000
283656.000000
284499.000000
285296.000000
286113.000000
286963.000000
287813.000000
288636.000000
289501.000000
290391.000000
291240.000000
292076.000000
292944.000000
293797.000000
294600.000000
295422.000000
296284.000000
297150.000000
297985.000000
298869.000000
299770.000000
300628.000000
301461.000000
302322.000000
303182.000000
304001.000000
304801.000000
305623.000000
306476.000000
307299.000000
308108.000000
308964.000000
309845.000000
310681.000000
311558.000000
312451.000000
313307.000000
314150.000000
315028.000000
315928.000000
316769.000000
317605.000000
318486.000000
319375.000000
320218.000000
321084.000000
321989.000000
322895.000000
323737.000000
324569.000000
325419.000000
326267.000000
327067.000000
327864.000000
328691.000000
329559.000000
330404.000000
331279.000000
332269.000000
333251.000000
334153.000000
335048.000000
335949.000000
336803.000000
337609.000000
338466.000000
339351.000000
340195.000000
341012.000000
341871.000000
342735.000000
343545.000000
344357.000000
345209.000000
346048.000000
346842.000000
347663.000000
348523.000000
349378.000000
350221.000000
351098.000000
351975.000000
352810.000000
353635.000000
354511.000000
355381.000000
356204.000000
357025.000000
357892.000000
358749.000000
359559.000000
360369.000000
361202.000000
362052.000000
362857.000000
363625.000000
364430.000000
365306.000000
366168.000000
366975.000000
367821.000000
368736.000000
369620.000000
370444.000000
371297.000000
372181.000000
373037.000000
373888.000000
374779.000000
375669.000000
376503.000000
377337.000000
378203.000000
379069.000000
379912.000000
380800.000000
381728.000000
382632.000000
383506.000000
384399.000000
385299.000000
386151.000000
386972.000000
387832.000000
388727.000000
389607.000000
390478.000000
391390.000000
392297.000000
393158.000000
394040.000000
394978.000000
395905.000000
396762.000000
397637.000000
398569.000000
399477.000000
400322.000000
401187.000000
402107.000000
403006.000000
403867.000000
404786.000000
405736.000000
406637.000000
407528.000000
408455.000000
409350.000000
410192.000000
411056.000000
411974.000000
412882.000000
413739.000000
414608.000000
415526.000000
416423.000000
417280.000000
418177.000000
419087.000000
419970.000000
420859.000000
421808.000000
422742.000000
423598.000000
424447.000000
425348.000000
426256.000000
427118.000000
427995.000000
428923.000000
429833.000000
430678.000000
431552.000000
432470.000000
433358.000000
434226.000000
435131.000000
436025.000000
436865.000000
437743.000000
438686.000000
439630.000000
440514.000000
441420.000000
442316.000000
443154.000000
443989.000000
444885.000000
445787.000000
446634.000000
447511.000000
448430.000000
449331.000000
450184.000000
451046.000000
451936.000000
452804.000000
453630.000000
454471.000000
455339.000000
456218.000000
457046.000000
457880.000000
458757.000000
459620.000000
460420.000000
461199.000000
461997.000000
462806.000000
463590.000000
464391.000000
465254.000000
466142.000000
466974.000000
467801.000000
468648.000000
469496.000000
470288.000000
471057.000000
471854.000000
472706.000000
473527.000000
474324.000000
475176.000000
476037.000000
476847.000000
477620.000000
478427.000000
479259.000000
480069.000000
480870.000000
481739.000000
482624.000000
483448.000000
484239.000000
485074.000000
485946.000000
486780.000000
487580.000000
488425.000000
489268.000000
490064.000000
490853.000000
491681.000000
492523.000000
493323.000000
494113.000000
494953.000000
495836.000000
496670.000000
497516.000000
498388.000000
499253.000000
500046.000000
500830.000000
501640.000000
502473.000000
503269.000000
504079.000000
504933.000000
505799.000000
506620.000000
507441.000000
508292.000000
509126.000000
509913.000000
510739.000000
511599.000000
512416.000000
513179.000000
513960.000000
514771.000000
515612.000000
516427.000000
517277.000000
518171.000000
519027.000000
519825.000000
520658.000000
521524.000000
522339.000000
523109.000000
523890.000000
524717.000000
525555.000000
526353.000000
527177.000000
528054.000000
528916.000000
529708.000000
530525.000000
531388.000000
532258.000000
533082.000000
533899.000000
534768.000000
535664.000000
536495.000000
537303.000000
538139.000000
538984.000000
539811.000000
540655.000000
541540.000000
542423.000000
543254.000000
544084.000000
544951.000000
545812.000000
546610.000000
547399.000000
548210.000000
549062.000000
549903.000000
550709.000000
551543.000000
552411.000000
553251.000000
554086.000000
554954.000000
555824.000000
556642.000000
557468.000000
558355.000000
559245.000000
560076.000000
560905.000000
561772.000000
562659.000000
563507.000000
564368.000000
565286.000000
566197.000000
567038.000000
567885.000000
568787.000000
569701.000000
570551.000000
571425.000000
572317.000000
573176.000000
574027.000000
574905.000000
575766.000000
576584.000000
577443.000000
578341.000000
579206.000000
580031.000000
580902.000000
581789.000000
582613.000000
583446.000000
584326.000000
585189.000000
585993.000000
586821.000000
587710.000000
588608.000000
589464.000000
590365.000000
591284.000000
592153.000000
593014.000000
593923.000000
594810.000000
595649.000000
596524.000000
597449.000000
598335.000000
599177.000000
600069.000000
600980.000000
601848.000000
602701.000000
603607.000000
604510.000000
605357.000000
606236.000000
607162.000000
608106.000000
608992.000000
609862.000000
610755.000000
611624.000000
612439.000000
613292.000000
614203.000000
615124.000000
615989.000000
616882.000000
617827.000000
618753.000000
619634.000000
620546.000000
621411.000000
622251.000000
623069.000000
623815.000000
624526.000000
625252.000000
626086.000000
627007.000000
627881.000000
628804.000000
629732.000000
630578.000000
631413.000000
632280.000000
633166.000000
634004.000000
634895.000000
635829.000000
636759.000000
637652.000000
638587.000000
639540.000000
640426.000000
641322.000000
642252.000000
643160.000000
643999.000000
644862.000000
645785.000000
646696.000000
647542.000000
648415.000000
649306.000000
650147.000000
650988.000000
651883.000000
652784.000000
653636.000000
654532.000000
655450.000000
656336.000000
657184.000000
658081.000000
658986.000000
659830.000000
660681.000000
661573.000000
662459.000000
663309.000000
664204.000000
665142.000000
666027.000000
666858.000000
667710.000000
668580.000000
669429.000000
670303.000000
671235.000000
672143.000000
673002.000000
673896.000000
674843.000000
675755.000000
676617.000000
677513.000000
678443.000000
679345.000000
680229.000000
681170.000000
682104.000000
682976.000000
683848.000000
684762.000000
685678.000000
686548.000000
687433.000000
688352.000000
689242.000000
690093.000000
691013.000000
691966.000000
692871.000000
693766.000000
694691.000000
695605.000000
696466.000000
697367.000000
698304.000000
699217.000000
700057.000000
700927.000000
701832.000000
702738.000000
703648.000000
704608.000000
705549.000000
706410.000000
707278.000000
708187.000000
709092.000000
709946.000000
710841.000000
711766.000000
712682.000000
713571.000000
714501.000000
715445.000000
716350.000000
717273.000000
718231.000000
719159.000000
720060.000000
720995.000000
721901.000000
722772.000000
723689.000000
724649.000000
725581.000000
726539.000000
727515.000000
728440.000000
729343.000000
730275.000000
731174.000000
732016.000000
732882.000000
733781.000000
734669.000000
735521.000000
736430.000000
737366.000000
738256.000000
739135.000000
740055.000000
740963.000000
741823.000000
742729.000000
743679.000000
744620.000000
745548.000000
746524.000000
747481.000000
748365.000000
749282.000000
750259.000000
751242.000000
752192.000000
753165.000000
754146.000000
755052.000000
755922.000000
756829.000000
757730.000000
758570.000000
759429.000000
760316.000000
761177.000000
762041.000000
762970.000000
763842.000000
764646.000000
765467.000000
766370.000000
767231.000000
768097.000000
769070.000000
770052.000000
771002.000000
771944.000000
772926.000000
773889.000000
774792.000000
775733.000000
776688.000000
777579.000000
778457.000000
779380.000000
780282.000000
781116.000000
781957.000000
782862.000000
783789.000000
784703.000000
785685.000000
786676.000000
787604.000000
788484.000000
789399.000000
790343.000000
791261.000000
792147.000000
793050.000000
793955.000000
794808.000000
795702.000000
796627.000000
797533.000000
798390.000000
799316.000000
800267.000000
801175.000000
802082.000000
803028.000000
803956.000000
804838.000000
805764.000000
806714.000000
807626.000000
808565.000000
809568.000000
810575.000000
811519.000000
812466.000000
813451.000000
814419.000000
815309.000000
816198.000000
817112.000000
818001.000000
818867.000000
819778.000000
820689.000000
821534.000000
822401.000000
823340.000000
824249.000000
825157.000000
826104.000000
827040.000000
827900.000000
828787.000000
829735.000000
830697.000000
831622.000000
832578.000000
833534.000000
834419.000000
835305.000000
836259.000000
837211.000000
838125.000000
839086.000000
840065.000000
840987.000000
841899.000000
842846.000000
843775.000000
844637.000000
845517.000000
846470.000000
847405.000000
848283.000000
849203.000000
850130.000000
851003.000000
851884.000000
852803.000000
853717.000000
854539.000000
855351.000000
856206.000000
857096.000000
857950.000000
858815.000000
859731.000000
860648.000000
861494.000000
862351.000000
863246.000000
864128.000000
864938.000000
865774.000000
866673.000000
867567.000000
868452.000000
869382.000000
870302.000000
871157.000000
872033.000000
872922.000000
873789.000000
874633.000000
875543.000000
876475.000000
877357.000000
878263.000000
879208.000000
880133.000000
880983.000000
881847.000000
882746.000000
883618.000000
884459.000000
885340.000000
886224.000000
887076.000000
887962.000000
888916.000000
889849.000000
890712.000000
891603.000000
892535.000000
893428.000000
894268.000000
895131.000000
896027.000000
896899.000000
897763.000000
898680.000000
899599.000000
900450.000000
901344.000000
902299.000000
903215.000000
904091.000000
905009.000000
905936.000000
906813.000000
907699.000000
908624.000000
909526.000000
910366.000000
911253.000000
912195.000000
913099.000000
913954.000000
914851.000000
915784.000000
916679.000000
917576.000000
918524.000000
919464.000000
920335.000000
921248.000000
922188.000000
923094.000000
923985.000000
924927.000000
925862.000000
926720.000000
927626.000000
928597.000000
929546.000000
930434.000000
931365.000000
932306.000000
933186.000000
934053.000000
934990.000000
935929.000000
936796.000000
937677.000000
938610.000000
939526.000000
940373.000000
941255.000000
942176.000000
943074.000000
943942.000000
944841.000000
945786.000000
946675.000000
947516.000000
948382.000000
949260.000000
950086.000000
950924.000000
951843.000000
952766.000000
953635.000000
954545.000000
955478.000000
956380.000000
957289.000000
958240.000000
959164.000000
960029.000000
960936.000000
961866.000000
962762.000000
963668.000000
964629.000000
965568.000000
966422.000000
967182.000000
967905.000000
968620.000000
969377.000000
970245.000000
971121.000000
972061.000000
973085.000000
974064.000000
975038.000000
976041.000000
976996.000000
977875.000000
978767.000000
979673.000000
980556.000000
981446.000000
982357.000000
983259.000000
984140.000000
985082.000000
986035.000000
986949.000000
987874.000000
988852.000000
989802.000000
990682.000000
991610.000000
992573.000000
993487.000000
994408.000000
995362.000000
996301.000000
997176.000000
998077.000000
999021.000000
999950.000000
1000845.000000
1001759.000000
1002688.000000
1003596.000000
1004501.000000
1005441.000000
1006385.000000
1007285.000000
1008213.000000
1009179.000000
1010106.000000
1010981.000000
1011891.000000
1012834.000000
1013742.000000
1014600.000000
1015482.000000
1016406.000000
1017289.000000
1018181.000000
1019126.000000
1020059.000000
1020928.000000
1021823.000000
1022735.000000
1023609.000000
1024434.000000
1025289.000000
1026198.000000
1027091.000000
1027943.000000
1028834.000000
1029769.000000
1030701.000000
1031610.000000
1032577.000000
1033548.000000
1034457.000000
1035331.000000
1036218.000000
1037102.000000
1037943.000000
1038796.000000
1039724.000000
1040655.000000
1041532.000000
1042421.000000
1043348.000000
1044264.000000
1045125.000000
1046020.000000
1046933.000000
1047824.000000
1048704.000000
1049632.000000
1050550.000000
1051396.000000
1052285.000000
1053231.000000
1054137.000000
1055012.000000
1055936.000000
1056870.000000
1057748.000000
1058669.000000
1059606.000000
1060494.000000
1061379.000000
1062310.000000
1063233.000000
1064070.000000
1064923.000000
1065853.000000
1066797.000000
1067702.000000
1068656.000000
1069623.000000
1070526.000000
1071432.000000
1072368.000000
1073260.000000
1074101.000000
1074982.000000
1075901.000000
1076780.000000
1077691.000000
1078656.000000
1079592.000000
1080515.000000
1081458.000000
1082376.000000
1083224.000000
1084096.000000
1085039.000000
1085981.000000
1086866.000000
1087815.000000
1088795.000000
1089740.000000
1090638.000000
1091565.000000
1092485.000000
1093332.000000
1094190.000000
1095105.000000
1096031.000000
1096897.000000
1097814.000000
1098796.000000
1099754.000000
1100676.000000
1101639.000000
1102591.000000
1103458.000000
1104323.000000
1105219.000000
1106099.000000
1106910.000000
1107727.000000
1108599.000000
1109492.000000
1110339.000000
1111255.000000
1112215.000000
1113139.000000
1114021.000000
1114938.000000
1115867.000000
1116738.000000
1117651.000000
1118620.000000
1119542.000000
1120420.000000
1121335.000000
1122259.000000
1123108.000000
1123962.000000
1124863.000000
1125781.000000
1126636.000000
1127538.000000
1128471.000000
1129355.000000
1130229.000000
1131134.000000
1132023.000000
1132855.000000
1133703.000000
1134619.000000
1135535.000000
1136400.000000
1137300.000000
1138228.000000
1139135.000000
1140042.000000
1140998.000000
1141942.000000
1142817.000000
1143709.000000
1144635.000000
1145516.000000
1146368.000000
1147255.000000
1148148.000000
1148987.000000
1149836.000000
1150731.000000
1151619.000000
1152431.000000
1153248.000000
1154096.000000
1154938.000000
1155739.000000
1156593.000000
1157486.000000
1158330.000000
1159174.000000
1160070.000000
1160939.000000
1161732.000000
1162575.000000
1163465.000000
1164349.000000
1165182.000000
1166059.000000
1166978.000000
1167843.000000
1168689.000000
1169585.000000
1170485.000000
1171339.000000
1172192.000000
1173099.000000
1173993.000000
1174836.000000
1175721.000000
1176640.000000
1177514.000000
1178367.000000
1179265.000000
1180164.000000
1180996.000000
1181870.000000
1182840.000000
1183777.000000
1184663.000000
1185575.000000
1186490.000000
1187346.000000
1188193.000000
1189082.000000
1189987.000000
1190834.000000
1191726.000000
1192668.000000
1193599.000000
1194465.000000
1195360.000000
1196309.000000
1197253.000000
1198150.000000
1199111.000000
1200082.000000
1200968.000000
1201871.000000
1202831.000000
1203770.000000
1204637.000000
1205534.000000
1206462.000000
1207365.000000
1208244.000000
1209186.000000
1210126.000000
1211001.000000
1211914.000000
1212897.000000
1213867.000000
1214781.000000
1215726.000000
1216696.000000
1217599.000000
1218476.000000
1219423.000000
1220377.000000
1221269.000000
1222152.000000
1223095.000000
1224056.000000
1224934.000000
1225834.000000
1226788.000000
1227716.000000
1228586.000000
1229515.000000
1230513.000000
1231462.000000
1232351.000000
1233282.000000
1234224.000000
1235090.000000
1235969.000000
1236891.000000
1237808.000000
1238639.000000
1239487.000000
1240412.000000
1241372.000000
1242255.000000
1243155.000000
1244093.000000
1245025.000000
1245909.000000
1246840.000000
1247805.000000
1248742.000000
1249691.000000
1250683.000000
1251639.000000
1252517.000000
1253422.000000
1254399.000000
1255341.000000
1256193.000000
1257082.000000
1258004.000000
1258912.000000
1259830.000000
1260797.000000
1261750.000000
1262645.000000
1263584.000000
1264539.000000
1265446.000000
1266324.000000
1267261.000000
1268214.000000
1269122.000000
1270084.000000
1271075.000000
1272036.000000
1272988.000000
1273982.000000
1274934.000000
1275798.000000
1276696.000000
1277683.000000
1278644.000000
1279524.000000
1280460.000000
1281442.000000
1282377.000000
1283250.000000
1284179.000000
1285128.000000
1286037.000000
1286933.000000
1287882.000000
1288838.000000
1289723.000000
1290614.000000
1291565.000000
1292513.000000
1293389.000000
1294316.000000
1295271.000000
1296206.000000
1297171.000000
1298173.000000
1299170.000000
1300106.000000
1301016.000000
1301941.000000
1302852.000000
1303698.000000
1304560.000000
1305476.000000
1306431.000000
1307412.000000
1308409.000000
1309355.000000
1310219.000000
1311068.000000
1311956.000000
1312855.000000
1313687.000000
1314563.000000
1315493.000000
1316402.000000
1317275.000000
1318209.000000
1319131.000000
1319965.000000
1320787.000000
1321682.000000
1322555.000000
1323377.000000
1324264.000000
1325200.000000
1326085.000000
1326922.000000
1327793.000000
1328656.000000
1329453.000000
1330251.000000
1331104.000000
1332005.000000
1332833.000000
1333665.000000
1334572.000000
1335476.000000
1336334.000000
1337243.000000
1338149.000000
1339023.000000
1339913.000000
1340809.000000
1341626.000000
1342386.000000
1343162.000000
1344006.000000
1344859.000000
1345702.000000
1346612.000000
1347512.000000
1348334.000000
1349141.000000
1349996.000000
1350850.000000
1351637.000000
1352444.000000
1353354.000000
1354302.000000
1355210.000000
1356148.000000
1357120.000000
1358067.000000
1358919.000000
1359819.000000
1360777.000000
1361697.000000
1362539.000000
1363439.000000
1364385.000000
1365300.000000
1366202.000000
1367158.000000
1368090.000000
1368960.000000
1369886.000000
1370813.000000
1371681.000000
1372555.000000
1373487.000000
1374398.000000
1375279.000000
1376243.000000
1377187.000000
1378059.000000
1379000.000000
1379967.000000
1380857.000000
1381729.000000
1382658.000000
1383586.000000
1384452.000000
1385388.000000
1386372.000000
1387320.000000
1388254.000000
1389224.000000
1390172.000000
1391027.000000
1391898.000000
1392817.000000
1393720.000000
1394552.000000
1395397.000000
1396260.000000
1397116.000000
1397952.000000
1398852.000000
1399788.000000
1400659.000000
1401532.000000
1402473.000000
1403404.000000
1404264.000000
1405160.000000
1406064.000000
1406913.000000
1407754.000000
1408668.000000
1409559.000000
1410390.000000
1411263.000000
1412167.000000
1413031.000000
1413898.000000
1414817.000000
1415723.000000
1416571.000000
1417467.000000
1418403.000000
1419276.000000
1420134.000000
1421047.000000
1421977.000000
1422834.000000
1423717.000000
1424696.000000
1425657.000000
1426578.000000
1427564.000000
1428543.000000
1429452.000000
1430336.000000
1431264.000000
1432195.000000
1433100.000000
1434076.000000
1435057.000000
1435954.000000
1436838.000000
1437774.000000
1438709.000000
1439571.000000
1440455.000000
1441374.000000
1442318.000000
1443239.000000
1444220.000000
1445151.000000
1446006.000000
1446926.000000
1447912.000000
1448848.000000
1449732.000000
1450665.000000
1451602.000000
1452471.000000
1453354.000000
1454300.000000
1455261.000000
1456221.000000
1457223.000000
1458182.000000
1459097.000000
1460059.000000
1461014.000000
1461897.000000
1462795.000000
1463771.000000
1464721.000000
1465627.000000
1466589.000000
1467564.000000
1468451.000000
1469321.000000
1470249.000000
1471186.000000
1472049.000000
1472950.000000
1473923.000000
1474869.000000
1475784.000000
1476743.000000
1477687.000000
1478544.000000
1479395.000000
1480298.000000
1481215.000000
1482082.000000
1482996.000000
1483953.000000
1484871.000000
1485745.000000
1486667.000000
1487607.000000
1488496.000000
1489393.000000
1490338.000000
1491267.000000
1492125.000000
1493022.000000
1493941.000000
1494822.000000
1495715.000000
1496673.000000
1497609.000000
1498485.000000
1499395.000000
1500326.000000
1501221.000000
1502113.000000
1503077.000000
1504041.000000
1504927.000000
1505830.000000
1506742.000000
1507608.000000
1508477.000000
1509401.000000
1510314.000000
1511171.000000
1512076.000000
1513006.000000
1513873.000000
1514724.000000
1515618.000000
1516507.000000
1517326.000000
1518166.000000
1519070.000000
1519969.000000
1520843.000000
1521775.000000
1522716.000000
1523613.000000
1524520.000000
1525448.000000
1526346.000000
1527195.000000
1528078.000000
1528982.000000
1529836.000000
1530700.000000
1531675.000000
1532679.000000
1533648.000000
1534668.000000
1535714.000000
1536731.000000
1537719.000000
1538731.000000
1539726.000000
1540635.000000
1541566.000000
1542571.000000
1543568.000000
1544526.000000
1545517.000000
1546494.000000
1547396.000000
1548340.000000
1549376.000000
1550385.000000
1551380.000000
1552409.000000
1553404.000000
1554300.000000
1555211.000000
1556170.000000
1557107.000000
1557998.000000
1558968.000000
1559955.000000
1560871.000000
1561823.000000
1562843.000000
1563847.000000
1564738.000000
1565607.000000
1566473.000000
1567307.000000
1568106.000000
1568966.000000
1569893.000000
1570783.000000
1571691.000000
1572678.000000
1573626.000000
1574467.000000
1575315.000000
1576222.000000
1577143.000000
1578016.000000
1578938.000000
1579908.000000
1580861.000000
1581804.000000
1582786.000000
1583752.000000
1584632.000000
1585529.000000
1586482.000000
1587388.000000
1588271.000000
1589210.000000
1590171.000000
1591070.000000
1591910.000000
1592741.000000
1593510.000000
1594287.000000
1595060.000000
1595776.000000
1596490.000000
1597249.000000
1598026.000000
1598956.000000
1599877.000000
1600736.000000
1601560.000000
1602412.000000
1603268.000000
1604045.000000
1604819.000000
1605647.000000
1606565.000000
1607442.000000
1608339.000000
1609329.000000
1610309.000000
1611185.000000
1612073.000000
1613006.000000
1613927.000000
1614764.000000
1615596.000000
1616470.000000
1617354.000000
1618191.000000
1619035.000000
1619957.000000
1620891.000000
1621728.000000
1622561.000000
1623454.000000
1624392.000000
1625299.000000
1626270.000000
1627276.000000
1628236.000000
1629117.000000
1630030.000000
1630982.000000
1631869.000000
1632742.000000
1633656.000000
1634562.000000
1635420.000000
1636316.000000
1637277.000000
1638228.000000
1639183.000000
1640194.000000
1641171.000000
1642072.000000
1643003.000000
1643967.000000
1644882.000000
1645817.000000
1646816.000000
1647791.000000
1648745.000000
1649747.000000
1650712.000000
1651573.000000
1652473.000000
1653429.000000
1654352.000000
1655269.000000
1656242.000000
1657199.000000
1658062.000000
1659007.000000
1660029.000000
1661002.000000
1661961.000000
1662958.000000
1663918.000000
1664783.000000
1665674.000000
1666628.000000
1667573.000000
1668450.000000
1669392.000000
1670376.000000
1671308.000000
1672220.000000
1673186.000000
1674145.000000
1675042.000000
1675964.000000
1676953.000000
1677919.000000
1678814.000000
1679769.000000
1680761.000000
1681693.000000
1682621.000000
1683619.000000
1684604.000000
1685493.000000
1686419.000000
1687416.000000
1688395.000000
1689310.000000
1690303.000000
1691322.000000
1692286.000000
1693302.000000
1694337.000000
1695337.000000
1696304.000000
1697288.000000
1698232.000000
1699115.000000
1700052.000000
1701044.000000
1701990.000000
1702882.000000
1703804.000000
1704744.000000
1705617.000000
1706514.000000
1707465.000000
1708397.000000
1709268.000000
1710208.000000
1711174.000000
1712082.000000
1712990.000000
1713946.000000
1714904.000000
1715783.000000
1716696.000000
1717701.000000
1718675.000000
1719554.000000
1720487.000000
1721485.000000
1722468.000000
1723386.000000
1724286.000000
1725162.000000
1725988.000000
1726807.000000
1727705.000000
1728646.000000
1729547.000000
1730482.000000
1731510.000000
1732512.000000
1733458.000000
1734466.000000
1735492.000000
1736482.000000
1737466.000000
1738471.000000
1739433.000000
1740301.000000
1741190.000000
1742157.000000
1743126.000000
1744042.000000
1744947.000000
1745898.000000
1746886.000000
1747817.000000
1748774.000000
1749766.000000
1750719.000000
1751637.000000
1752620.000000
1753630.000000
1754588.000000
1755592.000000
1756622.000000
1757595.000000
1758550.000000
1759538.000000
1760492.000000
1761353.000000
1762241.000000
1763222.000000
1764193.000000
1765141.000000
1766166.000000
1767165.000000
1768073.000000
1768984.000000
1769966.000000
1770925.000000
1771830.000000
1772774.000000
1773734.000000
1774650.000000
1775614.000000
1776625.000000
1777589.000000
1778492.000000
1779459.000000
1780443.000000
1781364.000000
1782289.000000
1783262.000000
1784211.000000
1785086.000000
1786029.000000
1787006.000000
1787923.000000
1788885.000000
1789912.000000
1790909.000000
1791847.000000
1792841.000000
1793837.000000
1794755.000000
1795699.000000
1796699.000000
1797667.000000
1798578.000000
1799555.000000
