ECG (ms)
515.000000
1381.000000
2251.000000
3103.000000
3971.000000
4851.000000
5713.000000
6564.000000
7416.000000
8275.000000
9124.000000
9967.000000
10815.000000
11663.000000
12505.000000
13359.000000
14234.000000
15120.000000
15988.000000
16839.000000
17686.000000
18539.000000
19387.000000
20240.000000
21108.000000
21983.000000
22866.000000
23755.000000
24646.000000
25547.000000
26417.000000
27276.000000
28140.000000
29004.000000
29873.000000
30719.000000
31557.000000
32398.000000
33262.000000
34160.000000
35099.000000
36022.000000
36945.000000
37876.000000
38789.000000
39674.000000
40544.000000
41419.000000
42300.000000
43181.000000
44044.000000
44888.000000
45733.000000
46586.000000
47440.000000
48281.000000
49126.000000
49979.000000
50855.000000
51726.000000
52589.000000
53469.000000
54368.000000
55271.000000
56146.000000
57014.000000
57878.000000
58738.000000
59598.000000
60437.000000
61262.000000
62047.000000
62816.000000
63623.000000
64451.000000
65274.000000
66096.000000
66937.000000
67817.000000
68699.000000
69560.000000
70402.000000
71244.000000
72088.000000
72921.000000
73739.000000
74546.000000
75359.000000
76186.000000
77013.000000
77845.000000
78709.000000
79602.000000
80505.000000
81391.000000
82257.000000
83111.000000
83953.000000
84802.000000
85666.000000
86552.000000
87445.000000
88338.000000
89215.000000
90078.000000
90928.000000
91767.000000
92609.000000
93482.000000
94393.000000
95327.000000
96254.000000
97180.000000
98099.000000
98995.000000
99867.000000
100725.000000
101568.000000
102419.000000
103287.000000
104186.000000
105107.000000
106041.000000
106989.000000
107912.000000
108809.000000
109699.000000
110583.000000
111450.000000
112301.000000
113130.000000
113965.000000
114809.000000
115666.000000
116563.000000
117464.000000
118349.000000
119204.000000
120060.000000
120922.000000
121797.000000
122683.000000
123559.000000
124413.000000
125271.000000
126124.000000
126990.000000
127848.000000
128688.000000
129523.000000
130377.000000
131246.000000
132108.000000
132978.000000
133849.000000
134711.000000
135557.000000
136392.000000
137235.000000
138105.000000
138968.000000
139831.000000
140712.000000
141606.000000
142473.000000
143329.000000
144192.000000
145062.000000
145957.000000
146855.000000
147734.000000
148624.000000
149522.000000
150424.000000
151309.000000
152166.000000
153012.000000
153857.000000
154716.000000
155595.000000
156488.000000
157369.000000
158229.000000
159083.000000
159941.000000
160810.000000
161692.000000
162562.000000
163415.000000
164252.000000
165077.000000
165906.000000
166756.000000
167648.000000
168543.000000
169423.000000
170309.000000
171210.000000
172110.000000
172997.000000
173849.000000
174679.000000
175504.000000
176321.000000
177154.000000
177980.000000
178812.000000
179668.000000
180558.000000
181458.000000
182333.000000
183214.000000
184100.000000
184973.000000
185820.000000
186678.000000
187530.000000
188383.000000
189217.000000
190039.000000
190853.000000
191684.000000
192540.000000
193421.000000
194308.000000
195197.000000
196064.000000
196901.000000
197727.000000
198546.000000
199368.000000
200193.000000
201031.000000
201875.000000
202706.000000
203535.000000
204383.000000
205244.000000
206118.000000
206979.000000
207832.000000
208681.000000
209524.000000
210360.000000
211179.000000
211991.000000
212800.000000
213624.000000
214452.000000
215278.000000
216115.000000
216966.000000
217836.000000
218694.000000
219539.000000
220388.000000
221237.000000
222089.000000
222931.000000
223759.000000
224583.000000
225418.000000
226273.000000
227163.000000
228084.000000
229014.000000
229929.000000
230821.000000
231693.000000
232552.000000
233401.000000
234250.000000
235090.000000
235914.000000
236723.000000
237523.000000
238326.000000
239166.000000
240058.000000
240961.000000
241862.000000
242786.000000
243712.000000
244647.000000
245532.000000
246399.000000
247261.000000
248116.000000
248950.000000
249767.000000
250573.000000
251377.000000
252194.000000
253035.000000
253890.000000
254767.000000
255620.000000
256476.000000
257331.000000
258191.000000
259029.000000
259854.000000
260670.000000
261492.000000
262319.000000
263161.000000
264023.000000
264891.000000
265751.000000
266623.000000
267493.000000
268345.000000
269174.000000
269999.000000
270821.000000
271624.000000
272421.000000
273209.000000
273992.000000
274781.000000
275610.000000
276507.000000
277443.000000
278388.000000
279314.000000
280233.000000
281135.000000
282021.000000
282867.000000
283701.000000
284535.000000
285366.000000
286176.000000
286990.000000
287813.000000
288635.000000
289447.000000
290253.000000
291069.000000
291898.000000
292751.000000
293623.000000
294467.000000
295298.000000
296124.000000
296959.000000
297782.000000
298599.000000
299406.000000
300202.000000
300988.000000
301768.000000
302551.000000
303355.000000
304196.000000
305053.000000
305900.000000
306752.000000
307613.000000
308492.000000
309377.000000
310266.000000
311157.000000
312022.000000
312865.000000
313702.000000
314539.000000
315376.000000
316206.000000
317024.000000
317847.000000
318686.000000
319556.000000
320450.000000
321341.000000
322233.000000
323096.000000
323941.000000
324784.000000
325626.000000
326479.000000
327352.000000
328229.000000
329089.000000
329956.000000
330824.000000
331695.000000
332549.000000
333398.000000
334249.000000
335112.000000
335963.000000
336807.000000
337651.000000
338512.000000
339381.000000
340250.000000
341116.000000
341964.000000
342801.000000
343640.000000
344506.000000
345399.000000
346298.000000
347180.000000
348041.000000
348897.000000
349761.000000
350642.000000
351531.000000
352395.000000
353232.000000
354063.000000
354894.000000
355734.000000
356573.000000
357410.000000
358269.000000
359153.000000
360045.000000
360919.000000
361801.000000
362679.000000
363521.000000
364365.000000
365208.000000
366036.000000
366851.000000
367674.000000
368500.000000
369318.000000
370123.000000
370937.000000
371762.000000
372609.000000
373461.000000
374307.000000
375152.000000
376015.000000
376903.000000
377813.000000
378729.000000
379622.000000
380481.000000
381332.000000
382182.000000
383022.000000
383845.000000
384664.000000
385489.000000
386309.000000
387121.000000
387925.000000
388732.000000
389583.000000
390450.000000
391309.000000
392171.000000
393042.000000
393917.000000
394783.000000
395631.000000
396479.000000
397338.000000
398194.000000
399050.000000
399895.000000
400745.000000
401601.000000
402452.000000
403288.000000
404141.000000
405001.000000
405863.000000
406714.000000
407568.000000
408428.000000
409283.000000
410129.000000
410983.000000
411836.000000
412691.000000
413528.000000
414345.000000
415172.000000
416009.000000
416875.000000
417755.000000
418627.000000
419477.000000
420316.000000
421164.000000
422024.000000
422899.000000
423771.000000
424624.000000
425474.000000
426317.000000
427172.000000
428025.000000
428866.000000
429685.000000
430499.000000
431320.000000
432163.000000
433034.000000
433918.000000
434782.000000
435652.000000
436534.000000
437421.000000
438286.000000
439156.000000
440014.000000
440858.000000
441690.000000
442532.000000
443369.000000
444184.000000
445015.000000
445862.000000
446694.000000
447519.000000
448336.000000
449179.000000
450048.000000
450971.000000
451871.000000
452746.000000
453612.000000
454488.000000
455365.000000
456242.000000
457114.000000
457967.000000
458806.000000
459656.000000
460517.000000
461364.000000
462189.000000
463027.000000
463861.000000
464682.000000
465505.000000
466344.000000
467206.000000
468069.000000
468920.000000
469787.000000
470659.000000
471520.000000
472384.000000
473256.000000
474134.000000
474981.000000
475847.000000
476710.000000
477565.000000
478396.000000
479214.000000
480046.000000
480893.000000
481752.000000
482603.000000
483490.000000
484393.000000
485295.000000
486159.000000
487025.000000
487875.000000
488700.000000
489526.000000
490359.000000
491183.000000
492001.000000
492829.000000
493671.000000
494501.000000
495337.000000
496182.000000
497042.000000
497884.000000
498739.000000
499583.000000
500408.000000
501213.000000
501986.000000
502741.000000
503502.000000
504286.000000
505079.000000
505868.000000
506698.000000
507553.000000
508438.000000
509330.000000
510203.000000
511060.000000
511917.000000
512779.000000
513624.000000
514453.000000
515284.000000
516138.000000
517029.000000
517925.000000
518811.000000
519719.000000
520624.000000
521518.000000
522380.000000
523258.000000
524145.000000
525029.000000
525914.000000
526802.000000
527665.000000
528511.000000
529379.000000
530275.000000
531184.000000
532065.000000
532971.000000
533895.000000
534804.000000
535681.000000
536570.000000
537449.000000
538317.000000
539164.000000
540012.000000
540881.000000
541753.000000
542606.000000
543442.000000
544292.000000
545148.000000
546009.000000
546841.000000
547695.000000
548547.000000
549418.000000
550292.000000
551154.000000
552017.000000
552901.000000
553807.000000
554703.000000
555585.000000
556470.000000
557340.000000
558177.000000
558997.000000
559803.000000
560607.000000
561447.000000
562341.000000
563304.000000
564279.000000
565257.000000
566196.000000
567112.000000
568043.000000
568985.000000
569922.000000
570837.000000
571752.000000
572670.000000
573581.000000
574465.000000
575350.000000
576229.000000
577101.000000
577966.000000
578841.000000
579726.000000
580618.000000
581496.000000
582381.000000
583263.000000
584150.000000
585027.000000
585890.000000
586754.000000
587621.000000
588486.000000
589328.000000
590153.000000
591011.000000
591929.000000
592871.000000
593788.000000
594679.000000
595593.000000
596499.000000
597401.000000
598287.000000
599141.000000
599976.000000
600808.000000
601664.000000
602560.000000
603458.000000
604353.000000
605262.000000
606158.000000
607036.000000
607920.000000
608802.000000
609699.000000
610580.000000
611445.000000
612331.000000
613228.000000
614130.000000
615015.000000
615875.000000
616752.000000
617657.000000
618574.000000
619480.000000
620400.000000
621336.000000
622257.000000
623133.000000
624011.000000
624891.000000
625749.000000
626602.000000
627473.000000
628356.000000
629224.000000
630102.000000
631017.000000
631965.000000
632876.000000
633819.000000
634759.000000
635687.000000
636566.000000
637448.000000
638324.000000
639190.000000
640048.000000
640920.000000
641805.000000
642701.000000
643575.000000
644442.000000
645311.000000
646182.000000
647021.000000
647898.000000
648794.000000
649709.000000
650617.000000
651483.000000
652370.000000
653254.000000
654150.000000
655024.000000
655908.000000
656803.000000
657687.000000
658572.000000
659433.000000
660270.000000
661122.000000
661994.000000
662854.000000
663715.000000
664550.000000
665406.000000
666280.000000
667152.000000
668026.000000
668932.000000
669868.000000
670790.000000
671687.000000
672588.000000
673481.000000
674344.000000
675175.000000
676006.000000
676839.000000
677691.000000
678556.000000
679398.000000
680254.000000
681129.000000
682015.000000
682889.000000
683781.000000
684687.000000
685617.000000
686528.000000
687402.000000
688301.000000
689205.000000
690091.000000
690955.000000
691795.000000
692644.000000
693535.000000
694434.000000
695309.000000
696206.000000
697127.000000
698063.000000
698959.000000
699812.000000
700677.000000
701545.000000
702409.000000
703255.000000
704091.000000
704938.000000
705812.000000
706690.000000
707567.000000
708441.000000
709372.000000
710320.000000
711266.000000
712175.000000
713101.000000
714027.000000
714930.000000
715786.000000
716651.000000
717530.000000
718423.000000
719304.000000
720172.000000
721074.000000
721984.000000
722870.000000
723726.000000
724602.000000
725479.000000
726364.000000
727236.000000
728126.000000
729029.000000
729943.000000
730844.000000
731733.000000
732596.000000
733458.000000
734333.000000
735215.000000
736069.000000
736904.000000
737753.000000
738625.000000
739531.000000
740452.000000
741356.000000
742279.000000
743216.000000
744152.000000
745060.000000
745933.000000
746818.000000
747696.000000
748554.000000
749402.000000
750239.000000
751090.000000
751960.000000
752824.000000
753682.000000
754543.000000
755409.000000
756281.000000
757148.000000
758001.000000
758842.000000
759697.000000
760576.000000
761454.000000
762321.000000
763173.000000
764036.000000
764912.000000
765800.000000
766667.000000
767524.000000
768416.000000
769349.000000
770283.000000
771183.000000
772129.000000
773078.000000
774005.000000
774905.000000
775794.000000
776693.000000
777582.000000
778454.000000
779302.000000
780155.000000
781029.000000
781913.000000
782800.000000
783660.000000
784558.000000
785471.000000
786377.000000
787262.000000
788157.000000
789056.000000
789951.000000
790823.000000
791683.000000
792556.000000
793433.000000
794296.000000
795138.000000
796002.000000
796883.000000
797792.000000
798667.000000
799522.000000
800399.000000
801275.000000
802123.000000
802954.000000
803798.000000
804656.000000
805544.000000
806415.000000
807268.000000
808156.000000
809064.000000
809978.000000
810860.000000
811711.000000
812586.000000
813458.000000
814322.000000
815158.000000
815978.000000
816811.000000
817670.000000
818558.000000
819444.000000
820320.000000
821202.000000
822108.000000
823029.000000
823912.000000
824766.000000
825640.000000
826494.000000
827349.000000
828156.000000
828940.000000
829720.000000
830504.000000
831334.000000
832202.000000
833061.000000
833890.000000
834700.000000
835532.000000
836375.000000
837217.000000
838029.000000
838816.000000
839623.000000
840439.000000
841240.000000
842045.000000
842852.000000
843664.000000
844482.000000
845299.000000
846105.000000
846905.000000
847702.000000
848516.000000
849348.000000
850205.000000
851066.000000
851910.000000
852753.000000
853609.000000
854490.000000
855364.000000
856214.000000
857047.000000
857890.000000
858754.000000
859623.000000
860472.000000
861324.000000
862195.000000
863066.000000
863918.000000
864760.000000
865622.000000
866496.000000
867388.000000
868274.000000
869137.000000
870017.000000
870893.000000
871746.000000
872590.000000
873446.000000
874322.000000
875199.000000
876062.000000
876910.000000
877765.000000
878637.000000
879518.000000
880378.000000
881233.000000
882102.000000
882986.000000
883856.000000
884703.000000
885551.000000
886396.000000
887241.000000
888073.000000
888890.000000
889721.000000
890581.000000
891473.000000
892342.000000
893206.000000
894082.000000
894957.000000
895809.000000
896658.000000
897517.000000
898367.000000
899196.000000
900012.000000
900837.000000
