ECG (ms)
485.000000
1259.000000
2074.000000
2920.000000
3724.000000
4554.000000
5416.000000
6259.000000
7090.000000
7948.000000
8791.000000
9597.000000
10429.000000
11276.000000
12096.000000
12936.000000
13794.000000
14624.000000
15463.000000
16333.000000
17211.000000
18031.000000
18864.000000
19734.000000
20572.000000
21397.000000
22263.000000
23156.000000
23983.000000
24802.000000
25656.000000
26507.000000
27312.000000
28137.000000
28992.000000
29816.000000
30584.000000
31384.000000
32250.000000
33106.000000
33926.000000
34796.000000
35727.000000
36609.000000
37437.000000
38292.000000
39170.000000
39991.000000
40812.000000
41657.000000
42490.000000
43277.000000
44104.000000
44952.000000
45811.000000
46615.000000
47479.000000
48387.000000
49236.000000
50112.000000
51022.000000
51897.000000
52714.000000
53545.000000
54415.000000
55255.000000
56047.000000
56889.000000
57804.000000
58675.000000
59515.000000
60384.000000
61288.000000
62129.000000
62962.000000
63833.000000
64706.000000
65569.000000
66448.000000
67360.000000
68224.000000
69084.000000
69972.000000
70842.000000
71663.000000
72518.000000
73419.000000
74269.000000
75130.000000
76011.000000
76853.000000
77652.000000
78494.000000
79368.000000
80195.000000
80967.000000
81797.000000
82696.000000
83567.000000
84353.000000
85158.000000
85989.000000
86810.000000
87589.000000
88416.000000
89294.000000
90146.000000
90968.000000
91822.000000
92701.000000
93522.000000
94379.000000
95271.000000
96111.000000
96933.000000
97786.000000
98667.000000
99468.000000
100256.000000
101049.000000
101844.000000
102670.000000
103519.000000
104331.000000
105217.000000
106110.000000
106939.000000
107774.000000
108635.000000
109515.000000
110325.000000
111154.000000
112031.000000
112872.000000
113656.000000
114475.000000
115351.000000
116222.000000
117050.000000
117886.000000
118752.000000
119605.000000
120405.000000
121229.000000
122091.000000
122913.000000
123734.000000
124604.000000
125518.000000
126343.000000
127204.000000
128096.000000
128910.000000
129729.000000
130581.000000
131399.000000
132165.000000
132983.000000
133854.000000
134682.000000
135507.000000
136363.000000
137192.000000
137968.000000
138781.000000
139640.000000
140473.000000
141273.000000
142103.000000
142955.000000
143756.000000
144535.000000
145355.000000
146105.000000
146819.000000
147564.000000
148317.000000
149120.000000
149974.000000
150833.000000
151634.000000
152460.000000
153316.000000
154127.000000
154945.000000
155806.000000
156691.000000
157506.000000
158348.000000
159213.000000
160067.000000
160901.000000
161781.000000
162690.000000
163529.000000
164358.000000
165220.000000
166089.000000
166900.000000
167735.000000
168568.000000
169370.000000
170213.000000
171096.000000
171938.000000
172727.000000
173553.000000
174440.000000
175274.000000
176060.000000
176917.000000
177817.000000
178667.000000
179480.000000
180325.000000
181181.000000
181999.000000
182811.000000
183670.000000
184591.000000
185431.000000
186267.000000
187150.000000
188014.000000
188807.000000
189648.000000
190526.000000
191364.000000
192168.000000
193018.000000
193902.000000
194732.000000
195592.000000
196473.000000
197320.000000
198151.000000
199026.000000
199889.000000
200701.000000
201523.000000
202359.000000
203159.000000
203960.000000
204795.000000
205640.000000
206435.000000
207250.000000
208094.000000
208902.000000
209697.000000
210504.000000
211315.000000
212084.000000
212886.000000
213746.000000
214576.000000
215385.000000
216216.000000
217062.000000
217864.000000
218678.000000
219527.000000
220350.000000
221140.000000
221960.000000
222788.000000
223584.000000
224395.000000
225245.000000
226087.000000
226887.000000
227725.000000
228583.000000
229381.000000
230169.000000
230985.000000
231792.000000
232563.000000
233373.000000
234210.000000
235018.000000
235848.000000
236713.000000
237539.000000
238318.000000
239116.000000
239927.000000
240676.000000
241444.000000
242245.000000
243046.000000
243809.000000
244604.000000
245453.000000
246249.000000
247067.000000
247882.000000
248665.000000
249431.000000
250214.000000
251032.000000
251799.000000
252607.000000
253471.000000
254343.000000
255167.000000
256039.000000
256948.000000
257774.000000
258634.000000
259526.000000
260352.000000
261147.000000
262012.000000
262920.000000
263740.000000
264573.000000
265430.000000
266257.000000
267052.000000
267877.000000
268739.000000
269550.000000
270345.000000
271213.000000
272099.000000
272924.000000
273755.000000
274620.000000
275453.000000
276283.000000
277140.000000
278021.000000
278844.000000
279709.000000
280653.000000
281493.000000
282323.000000
283201.000000
284093.000000
284925.000000
285800.000000
286681.000000
287485.000000
288319.000000
289198.000000
290022.000000
290860.000000
291732.000000
292588.000000
293405.000000
294274.000000
295183.000000
296008.000000
296843.000000
297697.000000
298527.000000
299335.000000
300187.000000
301058.000000
301884.000000
302748.000000
303634.000000
304474.000000
305317.000000
306199.000000
307079.000000
307913.000000
308778.000000
309679.000000
310519.000000
311383.000000
312296.000000
313165.000000
313985.000000
314855.000000
315787.000000
316644.000000
317470.000000
318318.000000
319188.000000
319999.000000
320838.000000
321734.000000
322579.000000
323419.000000
324300.000000
325159.000000
325952.000000
326796.000000
327691.000000
328514.000000
329349.000000
330245.000000
331092.000000
331886.000000
332723.000000
333630.000000
334464.000000
335330.000000
336231.000000
337084.000000
337880.000000
338716.000000
339580.000000
340399.000000
341213.000000
342077.000000
342991.000000
343826.000000
344688.000000
345590.000000
346455.000000
347278.000000
348142.000000
349019.000000
349828.000000
350642.000000
351474.000000
352282.000000
353080.000000
353924.000000
354804.000000
355630.000000
356457.000000
357318.000000
358187.000000
359001.000000
359830.000000
360686.000000
361504.000000
362293.000000
363135.000000
364044.000000
364872.000000
365703.000000
366595.000000
367463.000000
368269.000000
369097.000000
369943.000000
370744.000000
371534.000000
372347.000000
373181.000000
373961.000000
374752.000000
375585.000000
376404.000000
377189.000000
378028.000000
378924.000000
379746.000000
380559.000000
381391.000000
382194.000000
382980.000000
383794.000000
384634.000000
385431.000000
386253.000000
387120.000000
387940.000000
388765.000000
389619.000000
390457.000000
391248.000000
392072.000000
392940.000000
393757.000000
394583.000000
395445.000000
396299.000000
397096.000000
397925.000000
398822.000000
399730.000000
400555.000000
401416.000000
402330.000000
403185.000000
404004.000000
404864.000000
405787.000000
406629.000000
407501.000000
408431.000000
409275.000000
410130.000000
411031.000000
411914.000000
412723.000000
413580.000000
414468.000000
415313.000000
416123.000000
416981.000000
417911.000000
418745.000000
419598.000000
420505.000000
421417.000000
422274.000000
423161.000000
424071.000000
424902.000000
425763.000000
426678.000000
427553.000000
428377.000000
429257.000000
430162.000000
430996.000000
431850.000000
432713.000000
433553.000000
434373.000000
435231.000000
436089.000000
436893.000000
437724.000000
438590.000000
439408.000000
440230.000000
441086.000000
441922.000000
442741.000000
443622.000000
444528.000000
445382.000000
446247.000000
447144.000000
448007.000000
448848.000000
449729.000000
450617.000000
451446.000000
452280.000000
453138.000000
453967.000000
454764.000000
455603.000000
456480.000000
457325.000000
458156.000000
459032.000000
459955.000000
460797.000000
461666.000000
462557.000000
463390.000000
464200.000000
465047.000000
465946.000000
466773.000000
467641.000000
468559.000000
469428.000000
470249.000000
471120.000000
472031.000000
472861.000000
473713.000000
474586.000000
475425.000000
476231.000000
477079.000000
477989.000000
478832.000000
479649.000000
480491.000000
481339.000000
482151.000000
482987.000000
483874.000000
484721.000000
485536.000000
486413.000000
487351.000000
488202.000000
489057.000000
489935.000000
490797.000000
491617.000000
492480.000000
493389.000000
494232.000000
495080.000000
496013.000000
496879.000000
497709.000000
498608.000000
499534.000000
500371.000000
501226.000000
502108.000000
502917.000000
503745.000000
504616.000000
505537.000000
506401.000000
507349.000000
508315.000000
509195.000000
510083.000000
510979.000000
511805.000000
512630.000000
513497.000000
514424.000000
515257.000000
516140.000000
517065.000000
517933.000000
518795.000000
519689.000000
520575.000000
521382.000000
522219.000000
523117.000000
524001.000000
524808.000000
525644.000000
526518.000000
527369.000000
528174.000000
529000.000000
529869.000000
530688.000000
531479.000000
532320.000000
533223.000000
534108.000000
534982.000000
535896.000000
536822.000000
537675.000000
538563.000000
539474.000000
540396.000000
541233.000000
542105.000000
543016.000000
543895.000000
544740.000000
545640.000000
546604.000000
547461.000000
548327.000000
549222.000000
550090.000000
550954.000000
551931.000000
552943.000000
553864.000000
554802.000000
555771.000000
556661.000000
557547.000000
558486.000000
559353.000000
560168.000000
561013.000000
561867.000000
562670.000000
563496.000000
564376.000000
565204.000000
566059.000000
566967.000000
567814.000000
568620.000000
569469.000000
570332.000000
571118.000000
571923.000000
572764.000000
573580.000000
574429.000000
575322.000000
576209.000000
577076.000000
577988.000000
578903.000000
579740.000000
580585.000000
581471.000000
582328.000000
583126.000000
583951.000000
584804.000000
585610.000000
586426.000000
587275.000000
588126.000000
588926.000000
589764.000000
590643.000000
591472.000000
592296.000000
593126.000000
593920.000000
594654.000000
595352.000000
596042.000000
596732.000000
597440.000000
598387.000000
599337.000000
600223.000000
601012.000000
601879.000000
602798.000000
603699.000000
604483.000000
605225.000000
606001.000000
606849.000000
607730.000000
608556.000000
609319.000000
610109.000000
610965.000000
611860.000000
612719.000000
613500.000000
614320.000000
615186.000000
616071.000000
616893.000000
617682.000000
618498.000000
619340.000000
620211.000000
621036.000000
621866.000000
622710.000000
623563.000000
624371.000000
625205.000000
626066.000000
626942.000000
627755.000000
628579.000000
629416.000000
630262.000000
631072.000000
631901.000000
632761.000000
633618.000000
634428.000000
635263.000000
636128.000000
636959.000000
637753.000000
638567.000000
639408.000000
640216.000000
641014.000000
641835.000000
642678.000000
643468.000000
644264.000000
645087.000000
645938.000000
646737.000000
647564.000000
648411.000000
649229.000000
650044.000000
650887.000000
651749.000000
652578.000000
653435.000000
654328.000000
655198.000000
656041.000000
656911.000000
657795.000000
658621.000000
659473.000000
660360.000000
661192.000000
662009.000000
662868.000000
663738.000000
664558.000000
665399.000000
666261.000000
667096.000000
667879.000000
668692.000000
669526.000000
670351.000000
671148.000000
671992.000000
672876.000000
673699.000000
674523.000000
675372.000000
676193.000000
676961.000000
677768.000000
678609.000000
679436.000000
680267.000000
681144.000000
682029.000000
682843.000000
683662.000000
684501.000000
685299.000000
686080.000000
686898.000000
687747.000000
688554.000000
689388.000000
690285.000000
691143.000000
691958.000000
692803.000000
693667.000000
694467.000000
695298.000000
696165.000000
696992.000000
697802.000000
698654.000000
699550.000000
700396.000000
701254.000000
702141.000000
702964.000000
703783.000000
704615.000000
705440.000000
706221.000000
707046.000000
707896.000000
708710.000000
709509.000000
710332.000000
711195.000000
712010.000000
712835.000000
713705.000000
714577.000000
715382.000000
716207.000000
717050.000000
717847.000000
718624.000000
719426.000000
720261.000000
721047.000000
721868.000000
722734.000000
723554.000000
724357.000000
725205.000000
726085.000000
726891.000000
727708.000000
728552.000000
729356.000000
730121.000000
730943.000000
731807.000000
732664.000000
733500.000000
734347.000000
735177.000000
735981.000000
736834.000000
737703.000000
738516.000000
739357.000000
740227.000000
741035.000000
741863.000000
742722.000000
743563.000000
744391.000000
745245.000000
746154.000000
746958.000000
747783.000000
748646.000000
749507.000000
750327.000000
751220.000000
752155.000000
753014.000000
753867.000000
754766.000000
755700.000000
756563.000000
757477.000000
758419.000000
759287.000000
760149.000000
761043.000000
761913.000000
762750.000000
763623.000000
764514.000000
765341.000000
766160.000000
767018.000000
767859.000000
768678.000000
769548.000000
770466.000000
771308.000000
772187.000000
773092.000000
773935.000000
774782.000000
775680.000000
776554.000000
777396.000000
778279.000000
779174.000000
780003.000000
780846.000000
781733.000000
782593.000000
783427.000000
784297.000000
785194.000000
786012.000000
786867.000000
787762.000000
788621.000000
789488.000000
790398.000000
791255.000000
792059.000000
792897.000000
793764.000000
794585.000000
795435.000000
796354.000000
797228.000000
798102.000000
799019.000000
799916.000000
800755.000000
801617.000000
802496.000000
803301.000000
804115.000000
804956.000000
805796.000000
806588.000000
807407.000000
808271.000000
809116.000000
809969.000000
810842.000000
811699.000000
812497.000000
813326.000000
814212.000000
815049.000000
815891.000000
816759.000000
817650.000000
818478.000000
819334.000000
820225.000000
821050.000000
821861.000000
822703.000000
823585.000000
824399.000000
825249.000000
826077.000000
826829.000000
827580.000000
828363.000000
829151.000000
830031.000000
830958.000000
831791.000000
832584.000000
833407.000000
834251.000000
835081.000000
835868.000000
836703.000000
837551.000000
838366.000000
839160.000000
839992.000000
840866.000000
841694.000000
842544.000000
843434.000000
844276.000000
845147.000000
846027.000000
846871.000000
847681.000000
848518.000000
849407.000000
850226.000000
851071.000000
851934.000000
852769.000000
853587.000000
854422.000000
855264.000000
856053.000000
856880.000000
857747.000000
858578.000000
859425.000000
860296.000000
861118.000000
861970.000000
862859.000000
863696.000000
864549.000000
865428.000000
866305.000000
867113.000000
867950.000000
868837.000000
869664.000000
870534.000000
871472.000000
872356.000000
873166.000000
874024.000000
874922.000000
875739.000000
876539.000000
877375.000000
878251.000000
879129.000000
879937.000000
880786.000000
881681.000000
882523.000000
883364.000000
884251.000000
885185.000000
886033.000000
886897.000000
887799.000000
888631.000000
889473.000000
890356.000000
891264.000000
892107.000000
893007.000000
893941.000000
894800.000000
895662.000000
896571.000000
897459.000000
898287.000000
899161.000000
