ECG (ms)
740.000000
1599.000000
2525.000000
3464.000000
4339.000000
5251.000000
6165.000000
7039.000000
7900.000000
8823.000000
9746.000000
10615.000000
11527.000000
12443.000000
13327.000000
14177.000000
15080.000000
16003.000000
16918.000000
17790.000000
18712.000000
19642.000000
20517.000000
21428.000000
22339.000000
23240.000000
24113.000000
25021.000000
25921.000000
26791.000000
27679.000000
28584.000000
29501.000000
30362.000000
31274.000000
32190.000000
33065.000000
33944.000000
34856.000000
35758.000000
36621.000000
37535.000000
38450.000000
39330.000000
40174.000000
41062.000000
41936.000000
42762.000000
43649.000000
44586.000000
45448.000000
46299.000000
47190.000000
48072.000000
48936.000000
49829.000000
50754.000000
51651.000000
52536.000000
53469.000000
54409.000000
55284.000000
56202.000000
57153.000000
58054.000000
58932.000000
59845.000000
60760.000000
61646.000000
62518.000000
63418.000000
64326.000000
65192.000000
66085.000000
66999.000000
67911.000000
68768.000000
69688.000000
70611.000000
71495.000000
72348.000000
73257.000000
74148.000000
74999.000000
75900.000000
76815.000000
77704.000000
78549.000000
79452.000000
80372.000000
81271.000000
82170.000000
83105.000000
84013.000000
84878.000000
85819.000000
86755.000000
87636.000000
88484.000000
89397.000000
90317.000000
91195.000000
92046.000000
92960.000000
93869.000000
94733.000000
95578.000000
96470.000000
97366.000000
98244.000000
99124.000000
100026.000000
100920.000000
101767.000000
102670.000000
103595.000000
104495.000000
105363.000000
106257.000000
107159.000000
108017.000000
108905.000000
109822.000000
110708.000000
111555.000000
112452.000000
113364.000000
114237.000000
115072.000000
115940.000000
116829.000000
117727.000000
118558.000000
119407.000000
120300.000000
121226.000000
122097.000000
122943.000000
123831.000000
124727.000000
125565.000000
126399.000000
127277.000000
128162.000000
129011.000000
129887.000000
130745.000000
131594.000000
132404.000000
133266.000000
134154.000000
135031.000000
135854.000000
136688.000000
137541.000000
138387.000000
139201.000000
140075.000000
140943.000000
141791.000000
142599.000000
143443.000000
144296.000000
145115.000000
145915.000000
146773.000000
147640.000000
148485.000000
149311.000000
150184.000000
151059.000000
151919.000000
152731.000000
153567.000000
154433.000000
155305.000000
156131.000000
156972.000000
157857.000000
158744.000000
159587.000000
160367.000000
161194.000000
162036.000000
162903.000000
163711.000000
164541.000000
165382.000000
166227.000000
167033.000000
167848.000000
168694.000000
169530.000000
170315.000000
171138.000000
171993.000000
172821.000000
173603.000000
174403.000000
175223.000000
176029.000000
176819.000000
177639.000000
178466.000000
179284.000000
180058.000000
180864.000000
181670.000000
182448.000000
183231.000000
184063.000000
184904.000000
185718.000000
186526.000000
187368.000000
188222.000000
189069.000000
189867.000000
190689.000000
191528.000000
192326.000000
193137.000000
193978.000000
194805.000000
195603.000000
196342.000000
197058.000000
197819.000000
198647.000000
199424.000000
200175.000000
200886.000000
201612.000000
202378.000000
203196.000000
203973.000000
204757.000000
205543.000000
206315.000000
207067.000000
207869.000000
208678.000000
209469.000000
210233.000000
211015.000000
211797.000000
212584.000000
213363.000000
214108.000000
214893.000000
215694.000000
216516.000000
217290.000000
218128.000000
218970.000000
219796.000000
220577.000000
221379.000000
222201.000000
223013.000000
223788.000000
224658.000000
225531.000000
226359.000000
227119.000000
227940.000000
228774.000000
229593.000000
230367.000000
231207.000000
232078.000000
232983.000000
233842.000000
234647.000000
235518.000000
236422.000000
237287.000000
238095.000000
238956.000000
239851.000000
240749.000000
241594.000000
242432.000000
243316.000000
244202.000000
245063.000000
245971.000000
246895.000000
247827.000000
248705.000000
249564.000000
250463.000000
251371.000000
252290.000000
253147.000000
254036.000000
254947.000000
255868.000000
256749.000000
257642.000000
258547.000000
259455.000000
260325.000000
261182.000000
262096.000000
263005.000000
263876.000000
264724.000000
265621.000000
266532.000000
267403.000000
268265.000000
269157.000000
270056.000000
270902.000000
271741.000000
272639.000000
273556.000000
274430.000000
275277.000000
276167.000000
277073.000000
277926.000000
278781.000000
279666.000000
280558.000000
281389.000000
282281.000000
283185.000000
284091.000000
284942.000000
285797.000000
286691.000000
287614.000000
288534.000000
289397.000000
290241.000000
291134.000000
292039.000000
292923.000000
293783.000000
294697.000000
295612.000000
296500.000000
297328.000000
298202.000000
299104.000000
300021.000000
300879.000000
301743.000000
302634.000000
303527.000000
304370.000000
305261.000000
306154.000000
307009.000000
307874.000000
308755.000000
309644.000000
310494.000000
311379.000000
312281.000000
313150.000000
313990.000000
314873.000000
315767.000000
316622.000000
317483.000000
318403.000000
319328.000000
320176.000000
321065.000000
321976.000000
322837.000000
323694.000000
324581.000000
325472.000000
326326.000000
327179.000000
328051.000000
328950.000000
329804.000000
330686.000000
331582.000000
332441.000000
333264.000000
334117.000000
334996.000000
335842.000000
336694.000000
337567.000000
338468.000000
339322.000000
340180.000000
341038.000000
341870.000000
342673.000000
343517.000000
344391.000000
345250.000000
346093.000000
346955.000000
347831.000000
348674.000000
349542.000000
350433.000000
351319.000000
352159.000000
353029.000000
353912.000000
354821.000000
355659.000000
356527.000000
357424.000000
358327.000000
359195.000000
360078.000000
360976.000000
361875.000000
362716.000000
363596.000000
364492.000000
365411.000000
366292.000000
367128.000000
368017.000000
368928.000000
369839.000000
370709.000000
371599.000000
372502.000000
373378.000000
374219.000000
375116.000000
376026.000000
376920.000000
377768.000000
378646.000000
379533.000000
380406.000000
381234.000000
382084.000000
382968.000000
383870.000000
384722.000000
385601.000000
386485.000000
387346.000000
388189.000000
389053.000000
389933.000000
390769.000000
391592.000000
392472.000000
393357.000000
394228.000000
395043.000000
395894.000000
396759.000000
397598.000000
398430.000000
399294.000000
400185.000000
401089.000000
401944.000000
402766.000000
403613.000000
404502.000000
405343.000000
406219.000000
407113.000000
407995.000000
408829.000000
409721.000000
410624.000000
411500.000000
412339.000000
413215.000000
414106.000000
414964.000000
415834.000000
416722.000000
417614.000000
418457.000000
419342.000000
420243.000000
421123.000000
421962.000000
422840.000000
423723.000000
424579.000000
425450.000000
426336.000000
427229.000000
428105.000000
428999.000000
429893.000000
430748.000000
431621.000000
432515.000000
433379.000000
434241.000000
435144.000000
436034.000000
436891.000000
437776.000000
438670.000000
439511.000000
440380.000000
441285.000000
442158.000000
443012.000000
443878.000000
444763.000000
445621.000000
446515.000000
447416.000000
448284.000000
449163.000000
450057.000000
450967.000000
451802.000000
452673.000000
453561.000000
454449.000000
455288.000000
456166.000000
457061.000000
457927.000000
458777.000000
459648.000000
460541.000000
461398.000000
462260.000000
463141.000000
464041.000000
464897.000000
465734.000000
466547.000000
467291.000000
467990.000000
468765.000000
469589.000000
470342.000000
471054.000000
471854.000000
472683.000000
473528.000000
474314.000000
475071.000000
475853.000000
476684.000000
477508.000000
478290.000000
479098.000000
479936.000000
480770.000000
481559.000000
482357.000000
483184.000000
484039.000000
484853.000000
485661.000000
486469.000000
487295.000000
488084.000000
488908.000000
489727.000000
490557.000000
491366.000000
492208.000000
493057.000000
493911.000000
494726.000000
495499.000000
496313.000000
497125.000000
497980.000000
498804.000000
499597.000000
500404.000000
501263.000000
502105.000000
502952.000000
503782.000000
504649.000000
505508.000000
506318.000000
507161.000000
508029.000000
508881.000000
509687.000000
510529.000000
511384.000000
512233.000000
513048.000000
513903.000000
514764.000000
515637.000000
516449.000000
517250.000000
518089.000000
518946.000000
519778.000000
520622.000000
521462.000000
522306.000000
523098.000000
523907.000000
524735.000000
525569.000000
526354.000000
527180.000000
528032.000000
528881.000000
529664.000000
530469.000000
531287.000000
532122.000000
532887.000000
533652.000000
534475.000000
535314.000000
536096.000000
536905.000000
537719.000000
538554.000000
539350.000000
540155.000000
540951.000000
541758.000000
542515.000000
543301.000000
544105.000000
544898.000000
545663.000000
546491.000000
547335.000000
548158.000000
548927.000000
549719.000000
550520.000000
551315.000000
552066.000000
552863.000000
553678.000000
554488.000000
555244.000000
555998.000000
556804.000000
557602.000000
558386.000000
559145.000000
559890.000000
560675.000000
561480.000000
562281.000000
563027.000000
563807.000000
564598.000000
565402.000000
566169.000000
566986.000000
567834.000000
568697.000000
569513.000000
570280.000000
571075.000000
571880.000000
572704.000000
573493.000000
574326.000000
575169.000000
576011.000000
576817.000000
577640.000000
578472.000000
579283.000000
580074.000000
580944.000000
581804.000000
582626.000000
583416.000000
584227.000000
585058.000000
585877.000000
586659.000000
587472.000000
588318.000000
589171.000000
589964.000000
590758.000000
591590.000000
592408.000000
593201.000000
594042.000000
594867.000000
595686.000000
596486.000000
597325.000000
598193.000000
599038.000000
599829.000000
600679.000000
601523.000000
602391.000000
603209.000000
604033.000000
604868.000000
605750.000000
606569.000000
607402.000000
608255.000000
609117.000000
609927.000000
610757.000000
611620.000000
612494.000000
613308.000000
614077.000000
614905.000000
615759.000000
616620.000000
617410.000000
618191.000000
619053.000000
619922.000000
620723.000000
621475.000000
622260.000000
623100.000000
623980.000000
624798.000000
625612.000000
626433.000000
627266.000000
628074.000000
628885.000000
629707.000000
630553.000000
631362.000000
632156.000000
632983.000000
633867.000000
634683.000000
635495.000000
636327.000000
637186.000000
638010.000000
638837.000000
639675.000000
640553.000000
641386.000000
642173.000000
642997.000000
643884.000000
644734.000000
645536.000000
646376.000000
647221.000000
648044.000000
648852.000000
649698.000000
650569.000000
651366.000000
652165.000000
652999.000000
653832.000000
654616.000000
655421.000000
656250.000000
657104.000000
657898.000000
658717.000000
659557.000000
660351.000000
661118.000000
661928.000000
662751.000000
663530.000000
664320.000000
665142.000000
665971.000000
666743.000000
667489.000000
668283.000000
669138.000000
669963.000000
670729.000000
671541.000000
672353.000000
673149.000000
673908.000000
674704.000000
675527.000000
676329.000000
677083.000000
677887.000000
678696.000000
679491.000000
680259.000000
681043.000000
681821.000000
682605.000000
683355.000000
684122.000000
684911.000000
685722.000000
686479.000000
687216.000000
687996.000000
688818.000000
689609.000000
690353.000000
691136.000000
691919.000000
692690.000000
693451.000000
694251.000000
695075.000000
695851.000000
696616.000000
697434.000000
698261.000000
699082.000000
699869.000000
700678.000000
701512.000000
702350.000000
703147.000000
703950.000000
704769.000000
705547.000000
706365.000000
707225.000000
708068.000000
708862.000000
709675.000000
710495.000000
711326.000000
712108.000000
712898.000000
713713.000000
714570.000000
715367.000000
716151.000000
716972.000000
717808.000000
718588.000000
719387.000000
720273.000000
721186.000000
722022.000000
722846.000000
723657.000000
724516.000000
725335.000000
726095.000000
726881.000000
727723.000000
728581.000000
729382.000000
730197.000000
731007.000000
731840.000000
732637.000000
733412.000000
734236.000000
735083.000000
735909.000000
736678.000000
737471.000000
738267.000000
739110.000000
739884.000000
740691.000000
741505.000000
742357.000000
743161.000000
743921.000000
744730.000000
745582.000000
746430.000000
747207.000000
747997.000000
748809.000000
749682.000000
750482.000000
751265.000000
752108.000000
752954.000000
753755.000000
754525.000000
755347.000000
756187.000000
757017.000000
757786.000000
758585.000000
759401.000000
760227.000000
761018.000000
761835.000000
762648.000000
763427.000000
764206.000000
765028.000000
765880.000000
766704.000000
767468.000000
768266.000000
769083.000000
769888.000000
770658.000000
771463.000000
772293.000000
773085.000000
773836.000000
774629.000000
775461.000000
776330.000000
777127.000000
777937.000000
778738.000000
779541.000000
780307.000000
781099.000000
781931.000000
782746.000000
783531.000000
784339.000000
785184.000000
785995.000000
786807.000000
787629.000000
788463.000000
789268.000000
790097.000000
790961.000000
791791.000000
792597.000000
793422.000000
794263.000000
795111.000000
795907.000000
796764.000000
797622.000000
798510.000000
799349.000000
800185.000000
801018.000000
801880.000000
802769.000000
803590.000000
804414.000000
805275.000000
806126.000000
806972.000000
807833.000000
808697.000000
809508.000000
810334.000000
811185.000000
812066.000000
812896.000000
813715.000000
814538.000000
815369.000000
816165.000000
816964.000000
817798.000000
818678.000000
819548.000000
820364.000000
821189.000000
822023.000000
822898.000000
823745.000000
824548.000000
825391.000000
826247.000000
827103.000000
827917.000000
828760.000000
829616.000000
830477.000000
831306.000000
832111.000000
832944.000000
833811.000000
834655.000000
835480.000000
836343.000000
837219.000000
838064.000000
838928.000000
839792.000000
840646.000000
841464.000000
842283.000000
843138.000000
844026.000000
844850.000000
845677.000000
846530.000000
847376.000000
848188.000000
849045.000000
849932.000000
850781.000000
851587.000000
852419.000000
853286.000000
854126.000000
854937.000000
855768.000000
856616.000000
857444.000000
858296.000000
859145.000000
859939.000000
860755.000000
861585.000000
862413.000000
863208.000000
864029.000000
864885.000000
865720.000000
866510.000000
867318.000000
868136.000000
868968.000000
869764.000000
870559.000000
871379.000000
872223.000000
873034.000000
873851.000000
874664.000000
875486.000000
876275.000000
877087.000000
877913.000000
878752.000000
879553.000000
880381.000000
881251.000000
882125.000000
882979.000000
883788.000000
884606.000000
885451.000000
886313.000000
887139.000000
887960.000000
888806.000000
889679.000000
890492.000000
891319.000000
892145.000000
892965.000000
893783.000000
894623.000000
895470.000000
896294.000000
897108.000000
897937.000000
898794.000000
899617.000000
900441.000000
901284.000000
902131.000000
902926.000000
903754.000000
904598.000000
905435.000000
906217.000000
907016.000000
907855.000000
908707.000000
909504.000000
910316.000000
911138.000000
911968.000000
912751.000000
913554.000000
914387.000000
915214.000000
916021.000000
916861.000000
917740.000000
918577.000000
919371.000000
920184.000000
921017.000000
921880.000000
922691.000000
923502.000000
924321.000000
925161.000000
925967.000000
926786.000000
927622.000000
928454.000000
929251.000000
930074.000000
930909.000000
931752.000000
932547.000000
933334.000000
934159.000000
935001.000000
935820.000000
936612.000000
937417.000000
938236.000000
939080.000000
939884.000000
940692.000000
941514.000000
942336.000000
943160.000000
943966.000000
944804.000000
945647.000000
946501.000000
947321.000000
948110.000000
948935.000000
949801.000000
950669.000000
951486.000000
952322.000000
953164.000000
954013.000000
954853.000000
955656.000000
956473.000000
957300.000000
958107.000000
958911.000000
959733.000000
960590.000000
961414.000000
962220.000000
963053.000000
963906.000000
964749.000000
965538.000000
966359.000000
967193.000000
968039.000000
968855.000000
969665.000000
970498.000000
971346.000000
972198.000000
973039.000000
973853.000000
974629.000000
975392.000000
976203.000000
977060.000000
977924.000000
978724.000000
979503.000000
980306.000000
981152.000000
982000.000000
982787.000000
983571.000000
984402.000000
985268.000000
986117.000000
986910.000000
987723.000000
988543.000000
989396.000000
990210.000000
991011.000000
991838.000000
992686.000000
993513.000000
994313.000000
995144.000000
996010.000000
996843.000000
997684.000000
998538.000000
999354.000000
1000141.000000
1000957.000000
1001830.000000
1002691.000000
1003497.000000
1004302.000000
1005115.000000
1005950.000000
1006800.000000
1007625.000000
1008406.000000
1009197.000000
