ECG (ms)
519.000000
1573.000000
2627.000000
3578.000000
4683.000000
5642.000000
6424.000000
7297.000000
8461.000000
9421.000000
10716.000000
11802.000000
12937.000000
14125.000000
15187.000000
16106.000000
16910.000000
18086.000000
19011.000000
20127.000000
21209.000000
22276.000000
23437.000000
24359.000000
25283.000000
26501.000000
27523.000000
28709.000000
29946.000000
31036.000000
32309.000000
33437.000000
34545.000000
35640.000000
36527.000000
37423.000000
38582.000000
39453.000000
40343.000000
41662.000000
42711.000000
43936.000000
45026.000000
46175.000000
47414.000000
48524.000000
49723.000000
50885.000000
52003.000000
53208.000000
54251.000000
55447.000000
56479.000000
57578.000000
58617.000000
59549.000000
60607.000000
61596.000000
62585.000000
63659.000000
64575.000000
65706.000000
66674.000000
67551.000000
68717.000000
69739.000000
70894.000000
71905.000000
72957.000000
73997.000000
75078.000000
76216.000000
77351.000000
78505.000000
79574.000000
80617.000000
81688.000000
82587.000000
83499.000000
84634.000000
85562.000000
86698.000000
87851.000000
88899.000000
89987.000000
90869.000000
91727.000000
92983.000000
93997.000000
95155.000000
96226.000000
97318.000000
98509.000000
99625.000000
100755.000000
101881.000000
102988.000000
104241.000000
105280.000000
106376.000000
107509.000000
108499.000000
109624.000000
110618.000000
111774.000000
112876.000000
113829.000000
114937.000000
115981.000000
116814.000000
117663.000000
118805.000000
119755.000000
120953.000000
122120.000000
123217.000000
124340.000000
125480.000000
126656.000000
127712.000000
128802.000000
129903.000000
130872.000000
131955.000000
133002.000000
133871.000000
134927.000000
136006.000000
137025.000000
138168.000000
139360.000000
140551.000000
141647.000000
142758.000000
143985.000000
145066.000000
146209.000000
147273.000000
148123.000000
149288.000000
150305.000000
151165.000000
152151.000000
153235.000000
154260.000000
155110.000000
155873.000000
156662.000000
157529.000000
158311.000000
159098.000000
159822.000000
160989.000000
161816.000000
162625.000000
163485.000000
164284.000000
165366.000000
166468.000000
167288.000000
168066.000000
168902.000000
169809.000000
171004.000000
172039.000000
173118.000000
174064.000000
175038.000000
176188.000000
177085.000000
177918.000000
179096.000000
179990.000000
180883.000000
181777.000000
182866.000000
183944.000000
184766.000000
185561.000000
186487.000000
187353.000000
188246.000000
189146.000000
190008.000000
191229.000000
192267.000000
193312.000000
194285.000000
195131.000000
196209.000000
197220.000000
198140.000000
199266.000000
200368.000000
201268.000000
202451.000000
203429.000000
204275.000000
205116.000000
205948.000000
206757.000000
207905.000000
208935.000000
209769.000000
210590.000000
211414.000000
212242.000000
213460.000000
214592.000000
215653.000000
216728.000000
217591.000000
218406.000000
219258.000000
220043.000000
220900.000000
221996.000000
222893.000000
223843.000000
224979.000000
225927.000000
227100.000000
228182.000000
229149.000000
230163.000000
231070.000000
231890.000000
232703.000000
233741.000000
234645.000000
235805.000000
236759.000000
237704.000000
238591.000000
239798.000000
240952.000000
242122.000000
243202.000000
244338.000000
245551.000000
246586.000000
247807.000000
248969.000000
250114.000000
251274.000000
252370.000000
253435.000000
254569.000000
255514.000000
256497.000000
257654.000000
258594.000000
259760.000000
260796.000000
261806.000000
262881.000000
263898.000000
264956.000000
265985.000000
266903.000000
267941.000000
269008.000000
269890.000000
270869.000000
271941.000000
272824.000000
273723.000000
274673.000000
275540.000000
276711.000000
277784.000000
278651.000000
279525.000000
280682.000000
281736.000000
282935.000000
284016.000000
285146.000000
286237.000000
287188.000000
288320.000000
289371.000000
290317.000000
291380.000000
292293.000000
293207.000000
294387.000000
295357.000000
296326.000000
297422.000000
298384.000000
299473.000000
300636.000000
301515.000000
302518.000000
303699.000000
304600.000000
305572.000000
306602.000000
307649.000000
308858.000000
309855.000000
310770.000000
311842.000000
312699.000000
313626.000000
314854.000000
315845.000000
316976.000000
318081.000000
319004.000000
320143.000000
320981.000000
321753.000000
322785.000000
323820.000000
325053.000000
326106.000000
327218.000000
328309.000000
329208.000000
330091.000000
331219.000000
332308.000000
333417.000000
334556.000000
335469.000000
336345.000000
337309.000000
338182.000000
339350.000000
340390.000000
341238.000000
342121.000000
343137.000000
344094.000000
345391.000000
346515.000000
347656.000000
348810.000000
349883.000000
351109.000000
352243.000000
353258.000000
354405.000000
355459.000000
356582.000000
357811.000000
358746.000000
359643.000000
360782.000000
361743.000000
362999.000000
364094.000000
365107.000000
366246.000000
367254.000000
368234.000000
369369.000000
370263.000000
371222.000000
372395.000000
373338.000000
374490.000000
375611.000000
376669.000000
377839.000000
378934.000000
379867.000000
381048.000000
382024.000000
382889.000000
384109.000000
385122.000000
386274.000000
387352.000000
388322.000000
389529.000000
390558.000000
391473.000000
392527.000000
393501.000000
394384.000000
395571.000000
396723.000000
397757.000000
398870.000000
399850.000000
400953.000000
402103.000000
403088.000000
404115.000000
405150.000000
405984.000000
406857.000000
407863.000000
408723.000000
409622.000000
410757.000000
411702.000000
412613.000000
413768.000000
414655.000000
415596.000000
416678.000000
417845.000000
418939.000000
419859.000000
420684.000000
421746.000000
422772.000000
423657.000000
424843.000000
425893.000000
426843.000000
427731.000000
428607.000000
429404.000000
430276.000000
431260.000000
432078.000000
432927.000000
433999.000000
434869.000000
435809.000000
436709.000000
437528.000000
438422.000000
439333.000000
440221.000000
441279.000000
442267.000000
443086.000000
443909.000000
444751.000000
445507.000000
446333.000000
447365.000000
448254.000000
449396.000000
450401.000000
451271.000000
452172.000000
453101.000000
454284.000000
455443.000000
456431.000000
457464.000000
458362.000000
459157.000000
460014.000000
460911.000000
461774.000000
463025.000000
464065.000000
465140.000000
466366.000000
467301.000000
468183.000000
469043.000000
469867.000000
470801.000000
471906.000000
472831.000000
474047.000000
474990.000000
475950.000000
476859.000000
477689.000000
478613.000000
479566.000000
480416.000000
481617.000000
482700.000000
483835.000000
484918.000000
485910.000000
487025.000000
488006.000000
489075.000000
490130.000000
491016.000000
491835.000000
492603.000000
493349.000000
494607.000000
495543.000000
496734.000000
497717.000000
498736.000000
499844.000000
500780.000000
501846.000000
502956.000000
503852.000000
504676.000000
505807.000000
506642.000000
507468.000000
508651.000000
509531.000000
510499.000000
511699.000000
512702.000000
513829.000000
514769.000000
515625.000000
516823.000000
517771.000000
518585.000000
519387.000000
520204.000000
521018.000000
522162.000000
523176.000000
524100.000000
525137.000000
526000.000000
526874.000000
527989.000000
528973.000000
529855.000000
530816.000000
531668.000000
532496.000000
533600.000000
534512.000000
535331.000000
536319.000000
537154.000000
538372.000000
539547.000000
540594.000000
541767.000000
542812.000000
543981.000000
545096.000000
546054.000000
547186.000000
548381.000000
549451.000000
550639.000000
551698.000000
552900.000000
554088.000000
555230.000000
556432.000000
557480.000000
558640.000000
559784.000000
560802.000000
561852.000000
562997.000000
563986.000000
565046.000000
566137.000000
567024.000000
567863.000000
568988.000000
570100.000000
571229.000000
572286.000000
573180.000000
574397.000000
575414.000000
576408.000000
577640.000000
578741.000000
579786.000000
580970.000000
582056.000000
583132.000000
584240.000000
585242.000000
586213.000000
587377.000000
588431.000000
589587.000000
590721.000000
591648.000000
592520.000000
593803.000000
594896.000000
596041.000000
597201.000000
598162.000000
599332.000000
600512.000000
601487.000000
602470.000000
603569.000000
604449.000000
605577.000000
606752.000000
607683.000000
608640.000000
609617.000000
610441.000000
611298.000000
612270.000000
613194.000000
614079.000000
614975.000000
615795.000000
616626.000000
617443.000000
618183.000000
618975.000000
620095.000000
621066.000000
621912.000000
622829.000000
623663.000000
624522.000000
625668.000000
626678.000000
627574.000000
628440.000000
629294.000000
630141.000000
631311.000000
632287.000000
633242.000000
634113.000000
634912.000000
636099.000000
637214.000000
638291.000000
639405.000000
640327.000000
641331.000000
642338.000000
643181.000000
644331.000000
645442.000000
646560.000000
647697.000000
648799.000000
649803.000000
650938.000000
651947.000000
653084.000000
654178.000000
655096.000000
656286.000000
657406.000000
658396.000000
659509.000000
660560.000000
661573.000000
662663.000000
663598.000000
664440.000000
665596.000000
666553.000000
667396.000000
668275.000000
669291.000000
670238.000000
671416.000000
672523.000000
673586.000000
674689.000000
675677.000000
676684.000000
677769.000000
678781.000000
679745.000000
680833.000000
681864.000000
682824.000000
683924.000000
684977.000000
685900.000000
686967.000000
687971.000000
688771.000000
689542.000000
690450.000000
691280.000000
692197.000000
693490.000000
694497.000000
695406.000000
696469.000000
697338.000000
698346.000000
699503.000000
700502.000000
701639.000000
702638.000000
703467.000000
704608.000000
705686.000000
706535.000000
707402.000000
708526.000000
709450.000000
710422.000000
711448.000000
712296.000000
713309.000000
714394.000000
715271.000000
716131.000000
717133.000000
717953.000000
718802.000000
719759.000000
720630.000000
721518.000000
722700.000000
723697.000000
724902.000000
726058.000000
726973.000000
727826.000000
728700.000000
729504.000000
730345.000000
731531.000000
732454.000000
733328.000000
734328.000000
735181.000000
736057.000000
737185.000000
738149.000000
739063.000000
740147.000000
741035.000000
741898.000000
743021.000000
743932.000000
744785.000000
745995.000000
747014.000000
748027.000000
749063.000000
749901.000000
750931.000000
752139.000000
753154.000000
754293.000000
755365.000000
756308.000000
757497.000000
758564.000000
759641.000000
760824.000000
761898.000000
762970.000000
764125.000000
765218.000000
766275.000000
767389.000000
768334.000000
769338.000000
770453.000000
771346.000000
772158.000000
773407.000000
774462.000000
775357.000000
776517.000000
777480.000000
778318.000000
779243.000000
780134.000000
780993.000000
782092.000000
783253.000000
784384.000000
785579.000000
786597.000000
787585.000000
788733.000000
789666.000000
790582.000000
791741.000000
792738.000000
793840.000000
794979.000000
795909.000000
796942.000000
798039.000000
798990.000000
800121.000000
801264.000000
802290.000000
803342.000000
804422.000000
805282.000000
806199.000000
807349.000000
808394.000000
809559.000000
810618.000000
811627.000000
812810.000000
813887.000000
814857.000000
815785.000000
816634.000000
817473.000000
818798.000000
819909.000000
821103.000000
822259.000000
823278.000000
824442.000000
825537.000000
826516.000000
827688.000000
828751.000000
829798.000000
830928.000000
831965.000000
832989.000000
834135.000000
835222.000000
836175.000000
837152.000000
838261.000000
839129.000000
840074.000000
841288.000000
842314.000000
843466.000000
844613.000000
845589.000000
846725.000000
847804.000000
848781.000000
849794.000000
850717.000000
851506.000000
852664.000000
853484.000000
854322.000000
855141.000000
855962.000000
857142.000000
858127.000000
859060.000000
860034.000000
860985.000000
861757.000000
862561.000000
863580.000000
864458.000000
865346.000000
866542.000000
867615.000000
868693.000000
869846.000000
870812.000000
871671.000000
872545.000000
873505.000000
874355.000000
875560.000000
876656.000000
877709.000000
878735.000000
879579.000000
880417.000000
881573.000000
882599.000000
883704.000000
884847.000000
885864.000000
886948.000000
888039.000000
888942.000000
889773.000000
890928.000000
891965.000000
893020.000000
894100.000000
894953.000000
895730.000000
896913.000000
897930.000000
898769.000000
899723.000000
900851.000000
901760.000000
902724.000000
903746.000000
904586.000000
905506.000000
906508.000000
907366.000000
908513.000000
909633.000000
910503.000000
911447.000000
912323.000000
913105.000000
913905.000000
915050.000000
915991.000000
916939.000000
917928.000000
918790.000000
919762.000000
920850.000000
921724.000000
922916.000000
924091.000000
925134.000000
926250.000000
927355.000000
928316.000000
929481.000000
930570.000000
931592.000000
932685.000000
933804.000000
934790.000000
935870.000000
936963.000000
937883.000000
938740.000000
939904.000000
940862.000000
941718.000000
942688.000000
943657.000000
944517.000000
945705.000000
946825.000000
947912.000000
949077.000000
950097.000000
951050.000000
952266.000000
953228.000000
954093.000000
955084.000000
955986.000000
956854.000000
958088.000000
959260.000000
960242.000000
961393.000000
962372.000000
963230.000000
964397.000000
965457.000000
966342.000000
967597.000000
968695.000000
969562.000000
970414.000000
971374.000000
972241.000000
973478.000000
974624.000000
975676.000000
976846.000000
977884.000000
978864.000000
980023.000000
980958.000000
981794.000000
982994.000000
983963.000000
984881.000000
985811.000000
986727.000000
987543.000000
988450.000000
989585.000000
990573.000000
991665.000000
992714.000000
993568.000000
994400.000000
995382.000000
996317.000000
997139.000000
998161.000000
999192.000000
1000035.000000
1000973.000000
1001989.000000
1002852.000000
1003715.000000
1004786.000000
1005646.000000
1006432.000000
1007321.000000
1008216.000000
1009019.000000
1009937.000000
1010955.000000
1011814.000000
1012655.000000
1013589.000000
1014422.000000
1015244.000000
1016245.000000
1017335.000000
1018178.000000
1018989.000000
1019846.000000
1020648.000000
1021420.000000
1022336.000000
1023427.000000
1024447.000000
1025606.000000
1026517.000000
1027331.000000
1028204.000000
1029076.000000
1029844.000000
1030701.000000
1031733.000000
1032574.000000
1033432.000000
1034351.000000
1035163.000000
1036024.000000
1036913.000000
1037685.000000
1038406.000000
1039166.000000
1040046.000000
1040913.000000
1041696.000000
1042567.000000
1043435.000000
1044203.000000
1045041.000000
1045977.000000
1046768.000000
1047556.000000
1048421.000000
1049264.000000
1050042.000000
1050906.000000
1051847.000000
1052632.000000
1053419.000000
1054234.000000
1055031.000000
1055854.000000
1056928.000000
1057971.000000
1059000.000000
1060046.000000
1060901.000000
1061763.000000
1062980.000000
1063994.000000
1065034.000000
1066013.000000
1066914.000000
1067958.000000
1068940.000000
1069866.000000
1071008.000000
1072081.000000
1072983.000000
1073917.000000
1074843.000000
1075753.000000
1076766.000000
1077717.000000
1078694.000000
1079768.000000
1080791.000000
1081658.000000
1082517.000000
1083483.000000
1084353.000000
1085334.000000
1086554.000000
1087566.000000
1088544.000000
1089463.000000
1090320.000000
1091569.000000
1092675.000000
1093584.000000
1094535.000000
1095628.000000
1096599.000000
1097745.000000
1098792.000000
1099655.000000
1100842.000000
1101935.000000
1102839.000000
1103667.000000
1104540.000000
1105690.000000
1106667.000000
1107700.000000
1108864.000000
1109798.000000
1110672.000000
1111752.000000
1112644.000000
1113523.000000
1114752.000000
1115799.000000
1116659.000000
1117549.000000
1118655.000000
1119605.000000
1120546.000000
1121497.000000
1122306.000000
1123075.000000
1123841.000000
1125040.000000
1126104.000000
1127111.000000
1128049.000000
1128893.000000
1129781.000000
1130781.000000
1131638.000000
1132433.000000
1133314.000000
1134317.000000
1135197.000000
1136300.000000
1137406.000000
1138289.000000
1139191.000000
1140221.000000
1141053.000000
1141928.000000
1143102.000000
1144097.000000
1144994.000000
1146098.000000
1147135.000000
1148024.000000
1149113.000000
1150159.000000
1151140.000000
1152273.000000
1153314.000000
1154195.000000
1155311.000000
1156330.000000
1157275.000000
1158333.000000
1159254.000000
1160142.000000
1161266.000000
1162172.000000
1163082.000000
1164122.000000
1165012.000000
1166144.000000
1167233.000000
1168100.000000
1168994.000000
1170213.000000
1171287.000000
1172374.000000
1173484.000000
1174457.000000
1175407.000000
1176347.000000
1177181.000000
1178019.000000
1179163.000000
1180219.000000
1181091.000000
1181980.000000
1182933.000000
1183764.000000
1184789.000000
1185832.000000
1186699.000000
1187825.000000
1188930.000000
1189930.000000
1191005.000000
1191927.000000
1192744.000000
1193558.000000
1194463.000000
1195403.000000
1196254.000000
1197462.000000
1198551.000000
1199411.000000
1200290.000000
1201418.000000
1202376.000000
1203509.000000
1204611.000000
1205503.000000
1206453.000000
1207611.000000
1208617.000000
1209468.000000
1210369.000000
1211478.000000
1212384.000000
1213328.000000
1214198.000000
1214995.000000
1215804.000000
1216734.000000
1217848.000000
1218824.000000
1219842.000000
1220845.000000
1221664.000000
1222417.000000
1223189.000000
1223930.000000
1225204.000000
1226172.000000
1227308.000000
1228438.000000
1229396.000000
1230397.000000
1231420.000000
1232255.000000
1233210.000000
1234299.000000
1235216.000000
1236152.000000
1237289.000000
1238280.000000
1239315.000000
1240496.000000
1241484.000000
1242296.000000
1243125.000000
1244272.000000
1245323.000000
1246576.000000
1247763.000000
1248837.000000
1249942.000000
1250858.000000
1251689.000000
1252865.000000
1253745.000000
1254604.000000
1255709.000000
1256638.000000
1257457.000000
1258446.000000
1259573.000000
1260485.000000
1261595.000000
1262752.000000
1263684.000000
1264838.000000
1265913.000000
1266799.000000
1267974.000000
1269069.000000
1269969.000000
1271027.000000
1272083.000000
1272990.000000
1274143.000000
1275254.000000
1276187.000000
1277302.000000
1278405.000000
1279409.000000
1280530.000000
1281611.000000
1282552.000000
1283697.000000
1284775.000000
1285627.000000
1286471.000000
1287492.000000
1288359.000000
1289301.000000
1290457.000000
1291460.000000
1292564.000000
1293619.000000
1294469.000000
1295265.000000
1296200.000000
1297197.000000
1298056.000000
1299018.000000
1300149.000000
1301089.000000
1302122.000000
1303073.000000
1303888.000000
1304950.000000
1305848.000000
1306679.000000
1307528.000000
1308410.000000
1309291.000000
1310080.000000
1310982.000000
1312057.000000
1312897.000000
1313670.000000
1314450.000000
1315240.000000
1315965.000000
1316752.000000
1317925.000000
1318943.000000
1319750.000000
1320895.000000
1321917.000000
1322745.000000
1323617.000000
1324602.000000
1325431.000000
1326320.000000
1327485.000000
1328414.000000
1329280.000000
1330142.000000
1330976.000000
1331785.000000
1332666.000000
1333754.000000
1334640.000000
1335776.000000
1336907.000000
1337781.000000
1338610.000000
1339468.000000
1340325.000000
1341117.000000
1342039.000000
1343121.000000
1343976.000000
1345182.000000
1346230.000000
1347058.000000
1347877.000000
1348772.000000
1349596.000000
1350534.000000
1351663.000000
1352578.000000
1353472.000000
1354428.000000
1355287.000000
1356113.000000
1357036.000000
1358149.000000
1359126.000000
1360008.000000
1360923.000000
1361815.000000
1362673.000000
1363899.000000
1364953.000000
1365888.000000
1367024.000000
1367986.000000
1368876.000000
1369857.000000
1370747.000000
1371641.000000
1372828.000000
1373927.000000
1374947.000000
1375934.000000
1376776.000000
1377618.000000
1378544.000000
1379430.000000
1380257.000000
1381460.000000
1382514.000000
1383384.000000
1384270.000000
1385231.000000
1386169.000000
1387305.000000
1388379.000000
1389303.000000
1390409.000000
1391467.000000
1392346.000000
1393191.000000
1394181.000000
1395027.000000
1395873.000000
1397147.000000
1398222.000000
1399174.000000
1400135.000000
1401020.000000
1401862.000000
1402818.000000
1403801.000000
1404623.000000
1405374.000000
1406137.000000
1407357.000000
1408470.000000
1409565.000000
1410463.000000
1411334.000000
1412279.000000
1413115.000000
1414027.000000
1415109.000000
1415994.000000
1416963.000000
1417896.000000
1418724.000000
1419627.000000
1420810.000000
1421690.000000
1422476.000000
1423345.000000
1424139.000000
1424906.000000
1426114.000000
1427238.000000
1428219.000000
1429343.000000
1430515.000000
1431495.000000
1432420.000000
1433514.000000
1434449.000000
1435343.000000
1436296.000000
1437213.000000
1438148.000000
1439335.000000
1440431.000000
1441316.000000
1442268.000000
1443329.000000
1444206.000000
1445100.000000
1446266.000000
1447311.000000
1448229.000000
1449401.000000
1450461.000000
1451296.000000
1452118.000000
1453020.000000
1453835.000000
1454618.000000
1455486.000000
1456644.000000
1457551.000000
1458431.000000
1459393.000000
1460304.000000
1461188.000000
1462045.000000
1462845.000000
1463712.000000
1464676.000000
1465540.000000
1466429.000000
1467352.000000
1468186.000000
1469046.000000
1469988.000000
1470873.000000
1471729.000000
1472687.000000
1473577.000000
1474381.000000
1475221.000000
1476137.000000
1476966.000000
1477849.000000
1478736.000000
1479590.000000
1480372.000000
1481160.000000
1482071.000000
1482886.000000
1483665.000000
1484491.000000
1485307.000000
1486066.000000
1486846.000000
1487698.000000
1488489.000000
1489251.000000
1490077.000000
1490889.000000
1491655.000000
1492463.000000
1493465.000000
1494311.000000
1495089.000000
1495942.000000
1496787.000000
1497545.000000
1498390.000000
1499415.000000
1500278.000000
1501121.000000
1501985.000000
1502817.000000
1503614.000000
1504446.000000
1505298.000000
1506077.000000
1506968.000000
1507931.000000
1508742.000000
1509529.000000
1510398.000000
1511219.000000
1512017.000000
1512905.000000
1513857.000000
1514709.000000
1515667.000000
1516610.000000
1517458.000000
1518490.000000
1519585.000000
1520447.000000
1521312.000000
1522368.000000
1523237.000000
1524165.000000
1525318.000000
1526351.000000
1527260.000000
1528178.000000
1529170.000000
1530078.000000
1531266.000000
1532409.000000
1533400.000000
1534360.000000
1535312.000000
1536198.000000
1537234.000000
1538433.000000
1539528.000000
1540591.000000
1541663.000000
1542522.000000
1543314.000000
1544466.000000
1545621.000000
1546503.000000
1547385.000000
1548275.000000
1549132.000000
1549966.000000
1551115.000000
1551938.000000
1552742.000000
1553781.000000
1554864.000000
1555763.000000
1556556.000000
1557463.000000
1558395.000000
1559224.000000
1560107.000000
1561275.000000
1562328.000000
1563442.000000
1564544.000000
1565417.000000
1566230.000000
1567132.000000
1568008.000000
1568849.000000
1570053.000000
1571068.000000
1572077.000000
1573125.000000
1574021.000000
1574887.000000
1575749.000000
1576595.000000
1577452.000000
1578444.000000
1579337.000000
1580183.000000
1581108.000000
1582015.000000
1582843.000000
1583682.000000
1584552.000000
1585335.000000
1586177.000000
1587121.000000
1587933.000000
1588773.000000
1589704.000000
1590591.000000
1591375.000000
1592216.000000
1593340.000000
1594296.000000
1595317.000000
1596382.000000
1597298.000000
1598162.000000
1599266.000000
1600258.000000
1601095.000000
1601974.000000
1603068.000000
1603962.000000
1604842.000000
1605865.000000
1606826.000000
1607646.000000
1608841.000000
1609971.000000
1610983.000000
1612055.000000
1613144.000000
1614028.000000
1614957.000000
1615940.000000
1616827.000000
1617698.000000
1618912.000000
1619911.000000
1620726.000000
1621487.000000
1622273.000000
1623016.000000
1623985.000000
1624780.000000
1625958.000000
1626985.000000
1627863.000000
1628938.000000
1629899.000000
1630702.000000
1631595.000000
1632474.000000
1633273.000000
1634256.000000
1635432.000000
1636348.000000
1637228.000000
1638211.000000
1639038.000000
1639957.000000
1641061.000000
1641960.000000
1642925.000000
1644050.000000
1644964.000000
1645812.000000
1646792.000000
1647702.000000
1648531.000000
1649419.000000
1650566.000000
1651609.000000
1652674.000000
1653777.000000
1654645.000000
1655459.000000
1656681.000000
1657786.000000
1658765.000000
1659904.000000
1660980.000000
1662029.000000
1663191.000000
1664173.000000
1665124.000000
1666188.000000
1667128.000000
1668055.000000
1669062.000000
1669911.000000
1670709.000000
1671591.000000
1672596.000000
1673476.000000
1674505.000000
1675416.000000
1676237.000000
1677130.000000
1678268.000000
1679240.000000
1680282.000000
1681319.000000
1682181.000000
1683016.000000
1683895.000000
1684729.000000
1685676.000000
1686795.000000
1687692.000000
1688697.000000
1689803.000000
1690671.000000
1691489.000000
1692546.000000
1693434.000000
1694352.000000
1695485.000000
1696533.000000
1697690.000000
1698706.000000
1699808.000000
1700872.000000
1701805.000000
1702945.000000
1703936.000000
1704855.000000
1705823.000000
1706762.000000
1707640.000000
1708756.000000
1709740.000000
1710644.000000
1711522.000000
1712431.000000
1713270.000000
1714300.000000
1715349.000000
1716249.000000
1717115.000000
1717997.000000
1718848.000000
1719667.000000
1720756.000000
1721796.000000
1722642.000000
1723474.000000
1724466.000000
1725318.000000
1726239.000000
1727363.000000
1728398.000000
1729367.000000
1730347.000000
1731192.000000
1732060.000000
1733172.000000
1734132.000000
1734967.000000
1735875.000000
1736864.000000
1737732.000000
1738925.000000
1739998.000000
1741006.000000
1742107.000000
1743192.000000
1744140.000000
1745127.000000
1746140.000000
1746969.000000
1747870.000000
1748980.000000
1749887.000000
1750817.000000
1751809.000000
1752718.000000
1753866.000000
1754956.000000
1755836.000000
1756704.000000
1757591.000000
1758466.000000
1759321.000000
1760542.000000
1761611.000000
1762525.000000
1763443.000000
1764325.000000
1765167.000000
1766341.000000
1767421.000000
1768457.000000
1769598.000000
1770634.000000
1771611.000000
1772740.000000
1773720.000000
1774580.000000
1775430.000000
1776203.000000
1776990.000000
1778153.000000
1779123.000000
1780281.000000
1781274.000000
1782093.000000
1782902.000000
1783797.000000
1784592.000000
1785527.000000
1786814.000000
1787858.000000
1788999.000000
1790113.000000
1791156.000000
1792245.000000
1793151.000000
1793971.000000
1794832.000000
1795895.000000
1796830.000000
