ECG (ms)
147.000000
1031.000000
1966.000000
2985.000000
3955.000000
4837.000000
5746.000000
6695.000000
7588.000000
8476.000000
9368.000000
10219.000000
11093.000000
11998.000000
12889.000000
13740.000000
14628.000000
15510.000000
16340.000000
17249.000000
18172.000000
19023.000000
19891.000000
20783.000000
21683.000000
22544.000000
23349.000000
24194.000000
25045.000000
25858.000000
26701.000000
27582.000000
28431.000000
29314.000000
30241.000000
31098.000000
32013.000000
32950.000000
33806.000000
34690.000000
35582.000000
36414.000000
37311.000000
38192.000000
39009.000000
39800.000000
40573.000000
41385.000000
42176.000000
43073.000000
43962.000000
44835.000000
45779.000000
46661.000000
47519.000000
48408.000000
49270.000000
50119.000000
51003.000000
51907.000000
52751.000000
53623.000000
54527.000000
55375.000000
56244.000000
57158.000000
58005.000000
58874.000000
59758.000000
60601.000000
61492.000000
62416.000000
63262.000000
64135.000000
65023.000000
65849.000000
66722.000000
67615.000000
68457.000000
69326.000000
70287.000000
71206.000000
72084.000000
73009.000000
73916.000000
74767.000000
75653.000000
76561.000000
77414.000000
78293.000000
79183.000000
80056.000000
80926.000000
81849.000000
82751.000000
83666.000000
84631.000000
85574.000000
86456.000000
87357.000000
88283.000000
89138.000000
90014.000000
90909.000000
91756.000000
92663.000000
93634.000000
94570.000000
95488.000000
96430.000000
97368.000000
98222.000000
99115.000000
100019.000000
100864.000000
101753.000000
102728.000000
103659.000000
104567.000000
105531.000000
106443.000000
107333.000000
108286.000000
109247.000000
110105.000000
110985.000000
111882.000000
112736.000000
113561.000000
114464.000000
115415.000000
116285.000000
117244.000000
118147.000000
118960.000000
119732.000000
120522.000000
121612.000000
122612.000000
123617.000000
124594.000000
125527.000000
126466.000000
127387.000000
128268.000000
129152.000000
130079.000000
131012.000000
131896.000000
132815.000000
133726.000000
134597.000000
135525.000000
136488.000000
137426.000000
138332.000000
139225.000000
140117.000000
140966.000000
141841.000000
142714.000000
143562.000000
144460.000000
145386.000000
146267.000000
147139.000000
148024.000000
148914.000000
149786.000000
150669.000000
151539.000000
152368.000000
153235.000000
154123.000000
154975.000000
155859.000000
156773.000000
157629.000000
158533.000000
159442.000000
160276.000000
161143.000000
162010.000000
162835.000000
163703.000000
164608.000000
165453.000000
166331.000000
167297.000000
168230.000000
169070.000000
169955.000000
170851.000000
171678.000000
172510.000000
173386.000000
174227.000000
175090.000000
176006.000000
176923.000000
177803.000000
178732.000000
179652.000000
180499.000000
181375.000000
182274.000000
183119.000000
184011.000000
184953.000000
185836.000000
186737.000000
187689.000000
188559.000000
189441.000000
190331.000000
191186.000000
192013.000000
192879.000000
193789.000000
194640.000000
195531.000000
196485.000000
197406.000000
198316.000000
199253.000000
200135.000000
201010.000000
201910.000000
202783.000000
203717.000000
204685.000000
205566.000000
206456.000000
207344.000000
208183.000000
209037.000000
209952.000000
210892.000000
211780.000000
212691.000000
213620.000000
214528.000000
215395.000000
216302.000000
217219.000000
218064.000000
218944.000000
219862.000000
220731.000000
221595.000000
222532.000000
223486.000000
224365.000000
225269.000000
226235.000000
227152.000000
228028.000000
228942.000000
229838.000000
230689.000000
231577.000000
232508.000000
233414.000000
234313.000000
235263.000000
236178.000000
237049.000000
237971.000000
238900.000000
239758.000000
240668.000000
241587.000000
242443.000000
243336.000000
244269.000000
245142.000000
246093.000000
247159.000000
248146.000000
249078.000000
250016.000000
250884.000000
251790.000000
252742.000000
253681.000000
254605.000000
255581.000000
256531.000000
257429.000000
258324.000000
259199.000000
260049.000000
260961.000000
261872.000000
262727.000000
263630.000000
264580.000000
265446.000000
266340.000000
267235.000000
268082.000000
268972.000000
269877.000000
270711.000000
271567.000000
272414.000000
273225.000000
274040.000000
274904.000000
275757.000000
276585.000000
277454.000000
278329.000000
279174.000000
280088.000000
280996.000000
281822.000000
282689.000000
283578.000000
284414.000000
285275.000000
286164.000000
287001.000000
287878.000000
288818.000000
289688.000000
290601.000000
291527.000000
292380.000000
293258.000000
294165.000000
295083.000000
295972.000000
296901.000000
297815.000000
298661.000000
299543.000000
300432.000000
301288.000000
302184.000000
303149.000000
304101.000000
304986.000000
305923.000000
306847.000000
307710.000000
308614.000000
309598.000000
310480.000000
311395.000000
312373.000000
313305.000000
314253.000000
315205.000000
316086.000000
317029.000000
317934.000000
318797.000000
319708.000000
320616.000000
321504.000000
322447.000000
323384.000000
324302.000000
325262.000000
326244.000000
327151.000000
328105.000000
329064.000000
329940.000000
330839.000000
331757.000000
332628.000000
333534.000000
334509.000000
335416.000000
336360.000000
337368.000000
338274.000000
339223.000000
340218.000000
341122.000000
342037.000000
342964.000000
343819.000000
344693.000000
345600.000000
346472.000000
347391.000000
348366.000000
349246.000000
350173.000000
351108.000000
351973.000000
352876.000000
353836.000000
354716.000000
355616.000000
356583.000000
357474.000000
358360.000000
359266.000000
360130.000000
361025.000000
361964.000000
362834.000000
363724.000000
364627.000000
365471.000000
366348.000000
367239.000000
368057.000000
368827.000000
369613.000000
370454.000000
371324.000000
372116.000000
372899.000000
373649.000000
374433.000000
375202.000000
376007.000000
376865.000000
377688.000000
378528.000000
379418.000000
380292.000000
381118.000000
381960.000000
382802.000000
383593.000000
384400.000000
385217.000000
386015.000000
386832.000000
387681.000000
388553.000000
389377.000000
390236.000000
391104.000000
391921.000000
392764.000000
393627.000000
394464.000000
395379.000000
396317.000000
397169.000000
398024.000000
398877.000000
399680.000000
400526.000000
401392.000000
402201.000000
403039.000000
403875.000000
404656.000000
405473.000000
406318.000000
407107.000000
407864.000000
408623.000000
409837.000000
410913.000000
411979.000000
412967.000000
413868.000000
414776.000000
415639.000000
416448.000000
417277.000000
418136.000000
418976.000000
419832.000000
420746.000000
421685.000000
422580.000000
423497.000000
424428.000000
425319.000000
426206.000000
427097.000000
427974.000000
428845.000000
429729.000000
430640.000000
431509.000000
432384.000000
433268.000000
434123.000000
434997.000000
435887.000000
436747.000000
437594.000000
438459.000000
439339.000000
440165.000000
441026.000000
441922.000000
442797.000000
443635.000000
444519.000000
445367.000000
446207.000000
447091.000000
447961.000000
448775.000000
449628.000000
450505.000000
451342.000000
452219.000000
453142.000000
454006.000000
454941.000000
455868.000000
456733.000000
457646.000000
458520.000000
459383.000000
460297.000000
461209.000000
462074.000000
463006.000000
463958.000000
464836.000000
465747.000000
466693.000000
467562.000000
468456.000000
469396.000000
470249.000000
471141.000000
472066.000000
472947.000000
473811.000000
474731.000000
475635.000000
476502.000000
477411.000000
478348.000000
479215.000000
480114.000000
481021.000000
481865.000000
482752.000000
483704.000000
484571.000000
485458.000000
486394.000000
487310.000000
488196.000000
489158.000000
490121.000000
491031.000000
491951.000000
492882.000000
493755.000000
494645.000000
495553.000000
496438.000000
497328.000000
498254.000000
499159.000000
500010.000000
500903.000000
501809.000000
502674.000000
503578.000000
504523.000000
505409.000000
506326.000000
507273.000000
508181.000000
509084.000000
510035.000000
510915.000000
511775.000000
512695.000000
513596.000000
514455.000000
515369.000000
516348.000000
517243.000000
518154.000000
519080.000000
519955.000000
520859.000000
521790.000000
522647.000000
523517.000000
524401.000000
525224.000000
526069.000000
526965.000000
527850.000000
528746.000000
529747.000000
530713.000000
531589.000000
532517.000000
533430.000000
534277.000000
535164.000000
536076.000000
536943.000000
537857.000000
538819.000000
539715.000000
540682.000000
541698.000000
542609.000000
543523.000000
544456.000000
545347.000000
546270.000000
547276.000000
548229.000000
549128.000000
550077.000000
551033.000000
551933.000000
552883.000000
553853.000000
554739.000000
555663.000000
556609.000000
557503.000000
558437.000000
559415.000000
560320.000000
561272.000000
562259.000000
563171.000000
564121.000000
565055.000000
565952.000000
566915.000000
567851.000000
568762.000000
569737.000000
570734.000000
571658.000000
572622.000000
573636.000000
574560.000000
575504.000000
576467.000000
577345.000000
578244.000000
579176.000000
580057.000000
580965.000000
581934.000000
582847.000000
583736.000000
584672.000000
585592.000000
586455.000000
587387.000000
588336.000000
589226.000000
590163.000000
591126.000000
592016.000000
592937.000000
593857.000000
594711.000000
595609.000000
596542.000000
597416.000000
598302.000000
599230.000000
600114.000000
601058.000000
602035.000000
602936.000000
603864.000000
604817.000000
605699.000000
606615.000000
607570.000000
608480.000000
609367.000000
610308.000000
611274.000000
612162.000000
613108.000000
614066.000000
614940.000000
615846.000000
616756.000000
617619.000000
618538.000000
619484.000000
620363.000000
621290.000000
622249.000000
623126.000000
624041.000000
624983.000000
625856.000000
626786.000000
627776.000000
628690.000000
629603.000000
630541.000000
631429.000000
632364.000000
633331.000000
634230.000000
635170.000000
636136.000000
637061.000000
638040.000000
639040.000000
639957.000000
640832.000000
641750.000000
642657.000000
643517.000000
644428.000000
645365.000000
646255.000000
647215.000000
648170.000000
649074.000000
650033.000000
650995.000000
651906.000000
652872.000000
653870.000000
654775.000000
655694.000000
656658.000000
657556.000000
658470.000000
659407.000000
660288.000000
661206.000000
662266.000000
663280.000000
