ECG (ms)
783.000000
1660.000000
2518.000000
3355.000000
4188.000000
4961.000000
5670.000000
6429.000000
7392.000000
8321.000000
9192.000000
10031.000000
10865.000000
11720.000000
12600.000000
13442.000000
14264.000000
15116.000000
16008.000000
16894.000000
17741.000000
18565.000000
19385.000000
20229.000000
21116.000000
22029.000000
22931.000000
23805.000000
24635.000000
25457.000000
26289.000000
27176.000000
28090.000000
28991.000000
29914.000000
30857.000000
31787.000000
32665.000000
33515.000000
34382.000000
35276.000000
36156.000000
36994.000000
37834.000000
38694.000000
39628.000000
40543.000000
41426.000000
42318.000000
43228.000000
44149.000000
45019.000000
45879.000000
46771.000000
47682.000000
48551.000000
49392.000000
50231.000000
51095.000000
52012.000000
52912.000000
53790.000000
54666.000000
55544.000000
56418.000000
57285.000000
58181.000000
59098.000000
60023.000000
60905.000000
61776.000000
62648.000000
63544.000000
64417.000000
65262.000000
66126.000000
67037.000000
67924.000000
68751.000000
69552.000000
70358.000000
71213.000000
72041.000000
72892.000000
73800.000000
74745.000000
75676.000000
76571.000000
77476.000000
78388.000000
79251.000000
80093.000000
80928.000000
81773.000000
82627.000000
83464.000000
84324.000000
85215.000000
86118.000000
86981.000000
87829.000000
88684.000000
89511.000000
90325.000000
91207.000000
92139.000000
93035.000000
93914.000000
94783.000000
95648.000000
96515.000000
97329.000000
98158.000000
99037.000000
99939.000000
100823.000000
101715.000000
102636.000000
103522.000000
104381.000000
105242.000000
106128.000000
106996.000000
107826.000000
108708.000000
109618.000000
110494.000000
111322.000000
112137.000000
112934.000000
113791.000000
114620.000000
115434.000000
116259.000000
117136.000000
117964.000000
118737.000000
119491.000000
120250.000000
121057.000000
121837.000000
122616.000000
123416.000000
124304.000000
125173.000000
126031.000000
126878.000000
127741.000000
128573.000000
129372.000000
130203.000000
131106.000000
131972.000000
132817.000000
133675.000000
134560.000000
135405.000000
136210.000000
137014.000000
137863.000000
138759.000000
139614.000000
140466.000000
141322.000000
142196.000000
143031.000000
143826.000000
144620.000000
145486.000000
146412.000000
147311.000000
148218.000000
149159.000000
150051.000000
150898.000000
151722.000000
152565.000000
153413.000000
154253.000000
155105.000000
156006.000000
156901.000000
157779.000000
158660.000000
159544.000000
160376.000000
161177.000000
161997.000000
162859.000000
163753.000000
164637.000000
165540.000000
166438.000000
167274.000000
168058.000000
168823.000000
169578.000000
170332.000000
171107.000000
172094.000000
173044.000000
173965.000000
174893.000000
175810.000000
176665.000000
177461.000000
178230.000000
178967.000000
179711.000000
180452.000000
181171.000000
181894.000000
182697.000000
183632.000000
184390.000000
185071.000000
185749.000000
186455.000000
187172.000000
187925.000000
188688.000000
189447.000000
190170.000000
190880.000000
191589.000000
192318.000000
193062.000000
193830.000000
194600.000000
195418.000000
196307.000000
197220.000000
198078.000000
198922.000000
199748.000000
200566.000000
201343.000000
202088.000000
202874.000000
203746.000000
204658.000000
205535.000000
206447.000000
207357.000000
208247.000000
209098.000000
209984.000000
210918.000000
211818.000000
212654.000000
213453.000000
214237.000000
215081.000000
215933.000000
216752.000000
217607.000000
218514.000000
219399.000000
220217.000000
221027.000000
221866.000000
222755.000000
223582.000000
224357.000000
225119.000000
225877.000000
226600.000000
227308.000000
228021.000000
228741.000000
229552.000000
230387.000000
231242.000000
232098.000000
232916.000000
233676.000000
234412.000000
235125.000000
235857.000000
236557.000000
237257.000000
237979.000000
238820.000000
239768.000000
240651.000000
241487.000000
242272.000000
243024.000000
243729.000000
244418.000000
245144.000000
246150.000000
247076.000000
247938.000000
248783.000000
249613.000000
250352.000000
251053.000000
251734.000000
252438.000000
253160.000000
253891.000000
254616.000000
255351.000000
256113.000000
256834.000000
257536.000000
258235.000000
258930.000000
259659.000000
260376.000000
261081.000000
261787.000000
262502.000000
263199.000000
263867.000000
264530.000000
265197.000000
265883.000000
266592.000000
267330.000000
268095.000000
268833.000000
269552.000000
270233.000000
270899.000000
271568.000000
272255.000000
272969.000000
273662.000000
274337.000000
275005.000000
275695.000000
276448.000000
277196.000000
277916.000000
278628.000000
279341.000000
280038.000000
280713.000000
281384.000000
282083.000000
282822.000000
283532.000000
284210.000000
284895.000000
285601.000000
286335.000000
287048.000000
287719.000000
288384.000000
289051.000000
289744.000000
290453.000000
291148.000000
291865.000000
292634.000000
293476.000000
294319.000000
295141.000000
295928.000000
296705.000000
297431.000000
298132.000000
298834.000000
299534.000000
300285.000000
301015.000000
301735.000000
302482.000000
303285.000000
304173.000000
305049.000000
305925.000000
306816.000000
307672.000000
308459.000000
309221.000000
309977.000000
310776.000000
311644.000000
312503.000000
313375.000000
314278.000000
315172.000000
316008.000000
316784.000000
317545.000000
318367.000000
319190.000000
320023.000000
320872.000000
321777.000000
322715.000000
323598.000000
324440.000000
325247.000000
326062.000000
326866.000000
327645.000000
328442.000000
329353.000000
330287.000000
331172.000000
332067.000000
332983.000000
333898.000000
334769.000000
335602.000000
336393.000000
337139.000000
337871.000000
338606.000000
339486.000000
340512.000000
341449.000000
342333.000000
343192.000000
344004.000000
344750.000000
345450.000000
346184.000000
347024.000000
347781.000000
348453.000000
349143.000000
349881.000000
350662.000000
351558.000000
352470.000000
353319.000000
354126.000000
354913.000000
355728.000000
356531.000000
357318.000000
358120.000000
358989.000000
359866.000000
360702.000000
361520.000000
362360.000000
363267.000000
364145.000000
364990.000000
365842.000000
366710.000000
367581.000000
368399.000000
369208.000000
369998.000000
370810.000000
371640.000000
372363.000000
373027.000000
373708.000000
374484.000000
375399.000000
376333.000000
377241.000000
378076.000000
378874.000000
379661.000000
380483.000000
381279.000000
382077.000000
382964.000000
383897.000000
384791.000000
385635.000000
386475.000000
387350.000000
388199.000000
389040.000000
389902.000000
390793.000000
391636.000000
392481.000000
393320.000000
394204.000000
395070.000000
395916.000000
396735.000000
397556.000000
398369.000000
399186.000000
400102.000000
401072.000000
401998.000000
402877.000000
403767.000000
404666.000000
405528.000000
406336.000000
407129.000000
407955.000000
408837.000000
409716.000000
410596.000000
411494.000000
412398.000000
413251.000000
414096.000000
414949.000000
415798.000000
416599.000000
417412.000000
418272.000000
419203.000000
420108.000000
420967.000000
421701.000000
422406.000000
423137.000000
424042.000000
425040.000000
426050.000000
427007.000000
427914.000000
428811.000000
429704.000000
430572.000000
431393.000000
432208.000000
433059.000000
433998.000000
434929.000000
435833.000000
436676.000000
437488.000000
438286.000000
439124.000000
439947.000000
440802.000000
441688.000000
442600.000000
443482.000000
444305.000000
445089.000000
445867.000000
446635.000000
447411.000000
448232.000000
449110.000000
450001.000000
450849.000000
451693.000000
452544.000000
453379.000000
454178.000000
454949.000000
455693.000000
456495.000000
457347.000000
458175.000000
459009.000000
459860.000000
460708.000000
461481.000000
462234.000000
462986.000000
463767.000000
464513.000000
465237.000000
465998.000000
466806.000000
467659.000000
468483.000000
469268.000000
470029.000000
470799.000000
471542.000000
472270.000000
473028.000000
473919.000000
474797.000000
475626.000000
476425.000000
477209.000000
478012.000000
478807.000000
479590.000000
480399.000000
481264.000000
482136.000000
482979.000000
483839.000000
484729.000000
485617.000000
486453.000000
487269.000000
488109.000000
489029.000000
489925.000000
490800.000000
491679.000000
492584.000000
493477.000000
494336.000000
495170.000000
496034.000000
496862.000000
497632.000000
498389.000000
499128.000000
499889.000000
500632.000000
501426.000000
502237.000000
503110.000000
503956.000000
504782.000000
505625.000000
506505.000000
507365.000000
508171.000000
508951.000000
509724.000000
510450.000000
511165.000000
511878.000000
512583.000000
513297.000000
513971.000000
514604.000000
515250.000000
515955.000000
516809.000000
517724.000000
518624.000000
519446.000000
520226.000000
520994.000000
521763.000000
522482.000000
523165.000000
523858.000000
524609.000000
525518.000000
526381.000000
527195.000000
527984.000000
528751.000000
529471.000000
530185.000000
530908.000000
531663.000000
532468.000000
533265.000000
534074.000000
534907.000000
535805.000000
536653.000000
537448.000000
538182.000000
538901.000000
539592.000000
540280.000000
540995.000000
541836.000000
542739.000000
543570.000000
544313.000000
544975.000000
545614.000000
546256.000000
546937.000000
547655.000000
548437.000000
549224.000000
550019.000000
550729.000000
551433.000000
552135.000000
552881.000000
553682.000000
554543.000000
555419.000000
556272.000000
557099.000000
557918.000000
558727.000000
559534.000000
560310.000000
561059.000000
561802.000000
562606.000000
563551.000000
564486.000000
565377.000000
566221.000000
567003.000000
567748.000000
568487.000000
569260.000000
570053.000000
570839.000000
571729.000000
572716.000000
573694.000000
574604.000000
575443.000000
576233.000000
577013.000000
577846.000000
578756.000000
579685.000000
580621.000000
581524.000000
582379.000000
583213.000000
584057.000000
584933.000000
585789.000000
586611.000000
587403.000000
588290.000000
589264.000000
590168.000000
591036.000000
591881.000000
592727.000000
593584.000000
594442.000000
595297.000000
596186.000000
597095.000000
597986.000000
598855.000000
599701.000000
600568.000000
601382.000000
602161.000000
602960.000000
603885.000000
604856.000000
605756.000000
606605.000000
607440.000000
608303.000000
609162.000000
609985.000000
610813.000000
611636.000000
612486.000000
613324.000000
614169.000000
615051.000000
616008.000000
616922.000000
617789.000000
618631.000000
619493.000000
620348.000000
621182.000000
622042.000000
622962.000000
623849.000000
624692.000000
625562.000000
626480.000000
627387.000000
628230.000000
629023.000000
629843.000000
630742.000000
631637.000000
632517.000000
633405.000000
634295.000000
635193.000000
636044.000000
636843.000000
637628.000000
638444.000000
639338.000000
640230.000000
641121.000000
642035.000000
642962.000000
643870.000000
644734.000000
645619.000000
646534.000000
647413.000000
648245.000000
649052.000000
649875.000000
650687.000000
651495.000000
652345.000000
653244.000000
654150.000000
655011.000000
655853.000000
656671.000000
657485.000000
658270.000000
659061.000000
659858.000000
660678.000000
661497.000000
662318.000000
663167.000000
664047.000000
664887.000000
665654.000000
666401.000000
667162.000000
667986.000000
668782.000000
669532.000000
670296.000000
671085.000000
671863.000000
672599.000000
673349.000000
674100.000000
674904.000000
675671.000000
676403.000000
677154.000000
677946.000000
678826.000000
679687.000000
680542.000000
681406.000000
682265.000000
683085.000000
683870.000000
684658.000000
685467.000000
686303.000000
687139.000000
688047.000000
688996.000000
689888.000000
690735.000000
691499.000000
692170.000000
692812.000000
693474.000000
694212.000000
695045.000000
695978.000000
696917.000000
697751.000000
698523.000000
699254.000000
700006.000000
700828.000000
701723.000000
702687.000000
703712.000000
704638.000000
705549.000000
706450.000000
707292.000000
708051.000000
708770.000000
709520.000000
710473.000000
711387.000000
712274.000000
713151.000000
714019.000000
714887.000000
715723.000000
716541.000000
717364.000000
718205.000000
719028.000000
719820.000000
720601.000000
721397.000000
722178.000000
722930.000000
723713.000000
724518.000000
725345.000000
726141.000000
726916.000000
727686.000000
728479.000000
729248.000000
729985.000000
730739.000000
731521.000000
732407.000000
733273.000000
734078.000000
734844.000000
735580.000000
736316.000000
737034.000000
737772.000000
738640.000000
739665.000000
740696.000000
741664.000000
742577.000000
743455.000000
744272.000000
745007.000000
745708.000000
746415.000000
747193.000000
748108.000000
749003.000000
749918.000000
750864.000000
751773.000000
752637.000000
753459.000000
754261.000000
755031.000000
755765.000000
756511.000000
757300.000000
758058.000000
758787.000000
759450.000000
760087.000000
760760.000000
761588.000000
762445.000000
763333.000000
764214.000000
765046.000000
765803.000000
766547.000000
767295.000000
768067.000000
768837.000000
769582.000000
770388.000000
771262.000000
772107.000000
772896.000000
773653.000000
774414.000000
775198.000000
775952.000000
776697.000000
777472.000000
778279.000000
779109.000000
779909.000000
780694.000000
781461.000000
782250.000000
782998.000000
783709.000000
784421.000000
785178.000000
786034.000000
786848.000000
787610.000000
788377.000000
789156.000000
789944.000000
790759.000000
791519.000000
792245.000000
792978.000000
793711.000000
794528.000000
795383.000000
796206.000000
796984.000000
797662.000000
798301.000000
798944.000000
799611.000000
800330.000000
801128.000000
801998.000000
802892.000000
803716.000000
804502.000000
805241.000000
805981.000000
806700.000000
807436.000000
808218.000000
809041.000000
809837.000000
810635.000000
811457.000000
812284.000000
813085.000000
813881.000000
814697.000000
815564.000000
816399.000000
817212.000000
818028.000000
818888.000000
819730.000000
820545.000000
821368.000000
822222.000000
823065.000000
823873.000000
824666.000000
825514.000000
826355.000000
827175.000000
828014.000000
828910.000000
829780.000000
830562.000000
831337.000000
832134.000000
833057.000000
833970.000000
834925.000000
835893.000000
836805.000000
837666.000000
838486.000000
839276.000000
840012.000000
840743.000000
841559.000000
842605.000000
843584.000000
844501.000000
845416.000000
846310.000000
847154.000000
847946.000000
848732.000000
849525.000000
850336.000000
851107.000000
851889.000000
852655.000000
853428.000000
854174.000000
854921.000000
855711.000000
856636.000000
857566.000000
858480.000000
859411.000000
860341.000000
861214.000000
862047.000000
862888.000000
863789.000000
864721.000000
865635.000000
866559.000000
867492.000000
868412.000000
869276.000000
870132.000000
871001.000000
871871.000000
872691.000000
873505.000000
874328.000000
875188.000000
876004.000000
876834.000000
877651.000000
878518.000000
879314.000000
880053.000000
880811.000000
881768.000000
882731.000000
883659.000000
884600.000000
885521.000000
886400.000000
887192.000000
887924.000000
888674.000000
889505.000000
890462.000000
891359.000000
892235.000000
893080.000000
893958.000000
894802.000000
895646.000000
896504.000000
897342.000000
898133.000000
898941.000000
899798.000000
900667.000000
901499.000000
902311.000000
903138.000000
903960.000000
904790.000000
905594.000000
906378.000000
907192.000000
908010.000000
908818.000000
909674.000000
910606.000000
911527.000000
912416.000000
913275.000000
914134.000000
914974.000000
915774.000000
916610.000000
917485.000000
918417.000000
919311.000000
920213.000000
921143.000000
922043.000000
922876.000000
923680.000000
924505.000000
925390.000000
926260.000000
927109.000000
927978.000000
928873.000000
929741.000000
930551.000000
931354.000000
932196.000000
933100.000000
933973.000000
934780.000000
935576.000000
936434.000000
937306.000000
938132.000000
938912.000000
939687.000000
940502.000000
941300.000000
942083.000000
942983.000000
943978.000000
944947.000000
945873.000000
946798.000000
947738.000000
948659.000000
949514.000000
950341.000000
951172.000000
952045.000000
952968.000000
953915.000000
954881.000000
955794.000000
956664.000000
957509.000000
958358.000000
959148.000000
959911.000000
960721.000000
961650.000000
962603.000000
963491.000000
964335.000000
965164.000000
965949.000000
966698.000000
967445.000000
968256.000000
969174.000000
970030.000000
970839.000000
971601.000000
972351.000000
973052.000000
973747.000000
974475.000000
975355.000000
976300.000000
977172.000000
978019.000000
978872.000000
979742.000000
980569.000000
981362.000000
982157.000000
982968.000000
983752.000000
984488.000000
985240.000000
985976.000000
986642.000000
987278.000000
987933.000000
988654.000000
989412.000000
990245.000000
991078.000000
991896.000000
992668.000000
993421.000000
994175.000000
994931.000000
995655.000000
996424.000000
997253.000000
998108.000000
999032.000000
999928.000000
1000794.000000
1001629.000000
1002437.000000
1003226.000000
1003993.000000
1004776.000000
1005517.000000
1006250.000000
1007051.000000
1008069.000000
1009032.000000
1009920.000000
1010788.000000
1011615.000000
1012402.000000
1013137.000000
1013871.000000
1014590.000000
1015287.000000
1015929.000000
1016571.000000
1017257.000000
1018052.000000
1018969.000000
1019914.000000
1020795.000000
1021598.000000
1022350.000000
1023073.000000
1023767.000000
1024466.000000
1025191.000000
1025968.000000
1026850.000000
1027692.000000
1028434.000000
1029114.000000
1029800.000000
1030539.000000
1031444.000000
1032421.000000
1033413.000000
1034393.000000
1035344.000000
1036265.000000
1037140.000000
1037944.000000
1038706.000000
1039461.000000
1040251.000000
1041135.000000
1042070.000000
1042998.000000
1043896.000000
1044809.000000
1045704.000000
1046580.000000
1047450.000000
1048306.000000
1049091.000000
1049860.000000
1050657.000000
1051536.000000
1052457.000000
1053391.000000
1054275.000000
1055131.000000
1055976.000000
1056824.000000
1057672.000000
1058460.000000
1059203.000000
1059949.000000
1060708.000000
1061522.000000
1062387.000000
1063245.000000
1064077.000000
1064855.000000
1065591.000000
1066320.000000
1067071.000000
1067853.000000
1068715.000000
1069545.000000
1070331.000000
1071107.000000
1071920.000000
1072804.000000
1073671.000000
1074483.000000
1075265.000000
1076063.000000
1076857.000000
1077638.000000
1078382.000000
1079128.000000
1079929.000000
1080858.000000
1081778.000000
1082655.000000
1083534.000000
1084409.000000
1085246.000000
1086029.000000
1086800.000000
1087609.000000
1088591.000000
1089536.000000
1090426.000000
1091290.000000
1092126.000000
1092908.000000
1093658.000000
1094418.000000
1095316.000000
1096314.000000
1097254.000000
1098162.000000
1099048.000000
1099879.000000
1100659.000000
1101449.000000
1102302.000000
1103127.000000
1103889.000000
1104637.000000
1105359.000000
1106020.000000
1106659.000000
1107328.000000
1108069.000000
1108874.000000
1109742.000000
1110609.000000
1111421.000000
1112211.000000
1112973.000000
1113709.000000
1114421.000000
1115138.000000
1115889.000000
1116851.000000
1117757.000000
1118633.000000
1119479.000000
1120312.000000
1121068.000000
1121780.000000
1122510.000000
1123275.000000
1124078.000000
1124856.000000
1125640.000000
1126437.000000
1127270.000000
1128054.000000
1128799.000000
1129536.000000
1130295.000000
1131052.000000
1131796.000000
1132553.000000
1133312.000000
1134092.000000
1134828.000000
1135550.000000
1136291.000000
1137045.000000
1137780.000000
1138479.000000
1139164.000000
1139857.000000
1140568.000000
1141284.000000
1141991.000000
1142726.000000
1143471.000000
1144281.000000
1145041.000000
1145781.000000
1146533.000000
1147303.000000
1148100.000000
1148858.000000
1149606.000000
1150363.000000
1151145.000000
1151913.000000
1152654.000000
1153419.000000
1154195.000000
1155014.000000
1155802.000000
1156565.000000
1157338.000000
1158154.000000
1158970.000000
1159748.000000
1160544.000000
1161363.000000
1162199.000000
1163001.000000
1163791.000000
1164581.000000
1165401.000000
1166209.000000
1167028.000000
1167874.000000
1168788.000000
1169651.000000
1170457.000000
1171242.000000
1172036.000000
1172835.000000
1173627.000000
1174465.000000
1175370.000000
1176291.000000
1177168.000000
1178030.000000
1178868.000000
1179671.000000
1180435.000000
1181256.000000
1182062.000000
1182879.000000
1183622.000000
1184332.000000
1185067.000000
1185898.000000
1186771.000000
1187623.000000
1188471.000000
1189315.000000
1190124.000000
1190874.000000
1191611.000000
1192347.000000
1193127.000000
1193921.000000
1194684.000000
