ECG (ms)
109.000000
810.000000
1530.000000
2309.000000
3111.000000
3857.000000
4589.000000
5309.000000
6045.000000
6829.000000
7682.000000
8565.000000
9409.000000
10245.000000
11065.000000
11851.000000
12611.000000
13368.000000
14118.000000
14872.000000
15676.000000
16541.000000
17476.000000
18464.000000
19402.000000
20304.000000
21178.000000
22022.000000
22835.000000
23653.000000
24484.000000
25383.000000
26285.000000
27181.000000
28104.000000
29029.000000
29929.000000
30778.000000
31593.000000
32415.000000
33274.000000
34166.000000
35034.000000
35923.000000
36876.000000
37810.000000
38693.000000
39518.000000
40391.000000
41289.000000
42209.000000
43153.000000
44057.000000
45025.000000
45987.000000
46922.000000
47829.000000
48771.000000
49684.000000
50558.000000
51423.000000
52329.000000
53236.000000
54119.000000
55043.000000
55998.000000
56909.000000
57756.000000
58599.000000
59479.000000
60364.000000
61218.000000
62052.000000
62893.000000
63793.000000
64694.000000
65549.000000
66401.000000
67310.000000
68196.000000
69030.000000
69913.000000
70858.000000
71792.000000
72659.000000
73562.000000
74480.000000
75362.000000
76226.000000
77140.000000
78084.000000
78971.000000
79806.000000
80667.000000
81521.000000
82354.000000
83160.000000
83971.000000
84816.000000
85663.000000
86496.000000
87314.000000
88179.000000
89053.000000
89895.000000
90720.000000
91574.000000
92430.000000
93258.000000
94063.000000
94857.000000
95692.000000
96556.000000
97390.000000
98208.000000
99059.000000
99932.000000
100802.000000
101638.000000
102476.000000
103340.000000
104201.000000
105019.000000
105857.000000
106684.000000
107467.000000
108259.000000
109132.000000
110090.000000
111004.000000
111877.000000
112712.000000
113596.000000
114481.000000
115333.000000
116169.000000
117046.000000
117929.000000
118784.000000
119610.000000
120469.000000
121370.000000
122220.000000
123055.000000
123884.000000
124759.000000
125666.000000
126541.000000
127378.000000
128229.000000
129104.000000
129984.000000
130819.000000
131628.000000
132459.000000
133291.000000
134107.000000
134934.000000
135815.000000
136715.000000
137561.000000
138397.000000
139267.000000
140143.000000
140984.000000
141827.000000
142697.000000
143569.000000
144408.000000
145221.000000
146031.000000
146875.000000
147736.000000
148582.000000
149468.000000
150371.000000
151249.000000
152139.000000
153052.000000
153903.000000
154756.000000
155622.000000
156460.000000
157279.000000
158124.000000
159022.000000
159921.000000
160788.000000
161669.000000
162603.000000
163508.000000
164364.000000
165205.000000
166073.000000
166938.000000
167758.000000
168561.000000
169370.000000
170290.000000
171401.000000
172424.000000
173400.000000
174349.000000
175265.000000
176131.000000
176966.000000
177801.000000
178687.000000
179605.000000
180486.000000
181353.000000
182280.000000
183201.000000
184075.000000
184960.000000
185854.000000
186713.000000
187518.000000
188319.000000
189183.000000
190118.000000
191012.000000
191911.000000
192876.000000
193838.000000
194755.000000
195620.000000
196493.000000
197351.000000
198187.000000
199025.000000
199906.000000
200971.000000
201998.000000
202945.000000
203855.000000
204827.000000
205787.000000
206666.000000
207504.000000
208370.000000
209269.000000
210158.000000
211052.000000
212012.000000
213043.000000
214018.000000
214941.000000
215903.000000
216859.000000
217758.000000
218614.000000
219497.000000
220384.000000
221237.000000
222089.000000
223003.000000
224022.000000
225003.000000
225928.000000
226832.000000
227751.000000
228673.000000
229562.000000
230410.000000
231293.000000
232214.000000
233128.000000
234021.000000
234932.000000
235865.000000
236766.000000
237655.000000
238551.000000
239486.000000
240422.000000
241306.000000
242146.000000
242987.000000
243855.000000
244744.000000
245619.000000
246507.000000
247478.000000
248426.000000
249313.000000
250182.000000
251088.000000
251970.000000
252822.000000
253662.000000
254563.000000
255508.000000
256410.000000
257280.000000
258173.000000
259076.000000
259949.000000
260785.000000
261624.000000
262536.000000
263467.000000
264352.000000
265223.000000
266134.000000
267040.000000
267908.000000
268750.000000
269618.000000
270491.000000
271344.000000
272188.000000
273062.000000
274007.000000
274939.000000
275821.000000
276667.000000
277529.000000
278444.000000
279369.000000
280241.000000
281098.000000
282003.000000
282959.000000
283894.000000
284782.000000
285668.000000
286627.000000
287584.000000
288521.000000
289477.000000
290409.000000
291283.000000
292171.000000
293073.000000
293970.000000
294865.000000
295824.000000
296865.000000
297829.000000
298822.000000
299787.000000
300692.000000
301579.000000
302446.000000
303275.000000
304128.000000
305153.000000
306198.000000
307159.000000
308148.000000
309135.000000
310085.000000
310944.000000
311794.000000
312680.000000
313569.000000
314439.000000
315297.000000
316190.000000
317078.000000
317927.000000
318769.000000
319674.000000
320597.000000
321469.000000
322371.000000
323259.000000
324112.000000
324984.000000
325882.000000
326742.000000
327659.000000
328594.000000
329497.000000
330365.000000
331260.000000
332137.000000
332980.000000
333796.000000
334596.000000
335410.000000
336346.000000
337293.000000
338240.000000
339183.000000
340107.000000
340971.000000
341810.000000
342661.000000
343544.000000
344436.000000
345320.000000
346151.000000
346943.000000
347699.000000
348435.000000
349205.000000
350014.000000
350842.000000
351686.000000
352568.000000
353442.000000
354305.000000
355130.000000
355963.000000
356836.000000
357713.000000
358568.000000
359419.000000
360329.000000
361223.000000
362087.000000
362937.000000
363826.000000
364728.000000
365625.000000
366535.000000
367478.000000
368386.000000
369272.000000
370168.000000
371041.000000
371889.000000
372756.000000
373704.000000
374706.000000
375661.000000
376562.000000
377497.000000
378427.000000
379304.000000
380128.000000
380946.000000
381794.000000
382654.000000
383508.000000
384374.000000
385283.000000
386231.000000
387108.000000
387965.000000
388857.000000
389737.000000
390605.000000
391453.000000
392378.000000
393337.000000
394290.000000
395248.000000
396174.000000
397044.000000
397954.000000
398894.000000
399854.000000
400794.000000
401755.000000
402677.000000
403545.000000
404443.000000
405355.000000
406230.000000
407125.000000
408026.000000
408882.000000
409770.000000
410658.000000
411499.000000
412306.000000
413128.000000
413994.000000
414853.000000
415705.000000
416576.000000
417522.000000
418494.000000
419428.000000
420294.000000
421165.000000
422064.000000
422963.000000
423853.000000
424785.000000
425723.000000
426671.000000
427617.000000
428561.000000
429448.000000
430353.000000
431253.000000
432135.000000
433057.000000
434045.000000
434997.000000
435936.000000
436922.000000
437904.000000
438809.000000
439741.000000
440648.000000
441500.000000
442370.000000
443275.000000
444201.000000
445218.000000
446383.000000
447405.000000
448436.000000
449425.000000
450333.000000
451244.000000
452119.000000
452960.000000
453888.000000
454915.000000
455834.000000
456748.000000
457761.000000
458740.000000
459667.000000
460633.000000
461588.000000
462457.000000
463308.000000
464181.000000
465037.000000
465881.000000
466732.000000
467643.000000
468556.000000
469463.000000
470409.000000
471355.000000
472244.000000
473149.000000
474039.000000
474882.000000
475708.000000
476591.000000
477552.000000
478497.000000
479414.000000
480400.000000
481434.000000
482465.000000
483410.000000
484294.000000
485209.000000
486156.000000
487098.000000
488014.000000
488951.000000
489903.000000
490857.000000
491751.000000
492631.000000
493565.000000
494507.000000
495405.000000
496297.000000
497288.000000
498305.000000
499299.000000
500258.000000
501251.000000
502216.000000
503103.000000
504007.000000
504917.000000
505807.000000
506768.000000
507759.000000
508709.000000
509670.000000
510629.000000
511542.000000
512462.000000
513386.000000
514240.000000
515062.000000
515872.000000
516675.000000
517503.000000
518848.000000
519949.000000
520988.000000
521983.000000
522922.000000
523806.000000
524662.000000
525520.000000
526377.000000
527237.000000
528086.000000
528946.000000
529848.000000
530763.000000
531678.000000
532578.000000
533464.000000
534341.000000
535206.000000
536075.000000
536926.000000
537711.000000
538452.000000
539169.000000
539938.000000
540828.000000
541805.000000
542840.000000
543813.000000
544699.000000
545578.000000
546465.000000
547318.000000
548148.000000
549024.000000
549929.000000
550804.000000
551667.000000
552560.000000
553477.000000
554365.000000
555247.000000
556134.000000
556986.000000
557850.000000
558708.000000
559573.000000
560493.000000
561444.000000
562402.000000
563362.000000
564313.000000
565220.000000
566159.000000
567142.000000
568076.000000
568947.000000
569853.000000
570848.000000
571805.000000
572761.000000
573699.000000
574607.000000
575523.000000
576431.000000
577305.000000
578213.000000
579161.000000
580059.000000
580906.000000
581773.000000
582656.000000
583511.000000
584381.000000
585253.000000
586099.000000
586966.000000
587871.000000
588778.000000
589672.000000
590572.000000
591447.000000
592279.000000
593122.000000
594004.000000
594978.000000
595962.000000
597027.000000
598031.000000
598973.000000
599934.000000
600887.000000
601794.000000
602735.000000
603685.000000
604590.000000
605518.000000
606465.000000
607373.000000
608310.000000
609255.000000
610133.000000
610990.000000
611875.000000
612770.000000
613630.000000
614504.000000
615364.000000
616182.000000
617024.000000
617853.000000
618649.000000
619454.000000
620255.000000
621035.000000
621811.000000
622602.000000
623417.000000
624261.000000
625090.000000
625909.000000
626738.000000
627575.000000
628378.000000
629159.000000
629965.000000
630804.000000
631653.000000
632511.000000
633482.000000
634445.000000
635354.000000
636252.000000
637184.000000
638090.000000
638948.000000
639813.000000
640715.000000
641608.000000
642489.000000
643356.000000
644296.000000
645278.000000
646212.000000
647121.000000
648043.000000
648924.000000
649774.000000
650642.000000
651529.000000
652409.000000
653321.000000
654256.000000
655174.000000
656090.000000
657042.000000
657951.000000
658795.000000
659633.000000
660513.000000
661487.000000
662455.000000
663485.000000
664526.000000
665485.000000
666462.000000
667418.000000
668319.000000
669253.000000
670196.000000
671095.000000
671985.000000
672890.000000
673784.000000
674639.000000
675482.000000
676370.000000
677295.000000
678226.000000
679150.000000
680151.000000
681147.000000
682079.000000
683024.000000
683956.000000
684840.000000
685752.000000
686691.000000
687609.000000
688569.000000
689531.000000
690446.000000
691405.000000
692376.000000
693305.000000
694167.000000
695080.000000
696033.000000
696970.000000
697939.000000
698978.000000
699985.000000
700972.000000
701945.000000
702848.000000
703754.000000
704656.000000
705547.000000
706487.000000
707476.000000
708415.000000
709360.000000
710295.000000
711173.000000
712061.000000
712963.000000
713810.000000
714666.000000
715517.000000
716310.000000
717099.000000
717899.000000
718705.000000
719540.000000
720404.000000
721342.000000
722307.000000
723241.000000
724125.000000
724983.000000
725883.000000
726759.000000
727554.000000
728305.000000
729026.000000
729753.000000
730626.000000
731664.000000
732666.000000
733637.000000
734613.000000
735579.000000
736512.000000
737455.000000
738395.000000
739281.000000
740195.000000
741172.000000
742192.000000
743177.000000
744206.000000
745238.000000
746245.000000
747187.000000
748147.000000
749116.000000
750041.000000
750968.000000
751992.000000
753012.000000
753987.000000
754937.000000
755931.000000
756909.000000
757822.000000
758693.000000
759584.000000
760565.000000
761536.000000
762494.000000
763493.000000
764487.000000
765463.000000
766450.000000
767388.000000
768283.000000
769199.000000
770161.000000
771135.000000
772083.000000
773084.000000
774093.000000
775069.000000
775980.000000
776911.000000
777859.000000
778781.000000
779670.000000
780544.000000
781486.000000
782503.000000
783508.000000
784447.000000
785390.000000
786344.000000
787285.000000
788174.000000
789077.000000
790040.000000
790994.000000
791939.000000
792896.000000
793912.000000
794897.000000
795835.000000
796779.000000
797735.000000
798686.000000
799618.000000
800625.000000
801710.000000
802767.000000
803739.000000
804704.000000
805680.000000
806622.000000
807549.000000
808549.000000
809542.000000
810496.000000
811483.000000
812457.000000
813389.000000
814325.000000
815276.000000
816189.000000
817087.000000
818033.000000
819025.000000
819982.000000
820971.000000
821960.000000
822894.000000
823832.000000
824810.000000
825727.000000
826630.000000
827608.000000
828598.000000
829537.000000
830475.000000
831488.000000
832471.000000
833386.000000
834319.000000
835240.000000
836101.000000
836989.000000
837914.000000
838823.000000
839766.000000
840734.000000
841681.000000
842664.000000
843672.000000
844633.000000
845550.000000
846506.000000
847452.000000
848368.000000
849318.000000
850306.000000
851247.000000
852198.000000
853202.000000
854160.000000
855086.000000
856025.000000
856916.000000
857813.000000
858749.000000
859676.000000
860570.000000
861567.000000
862555.000000
863471.000000
864391.000000
865319.000000
866212.000000
867144.000000
868091.000000
868994.000000
869934.000000
870886.000000
871809.000000
872745.000000
873669.000000
874542.000000
875376.000000
876207.000000
877095.000000
878048.000000
878971.000000
879918.000000
880891.000000
881809.000000
882713.000000
883640.000000
884523.000000
885379.000000
886256.000000
887175.000000
888085.000000
888981.000000
889877.000000
890725.000000
891524.000000
892294.000000
893071.000000
893939.000000
894919.000000
895894.000000
896824.000000
897681.000000
898491.000000
899260.000000
899987.000000
900702.000000
901442.000000
902296.000000
903277.000000
904275.000000
905235.000000
906151.000000
907071.000000
908008.000000
908961.000000
909881.000000
910827.000000
911775.000000
912733.000000
913767.000000
914813.000000
915852.000000
916837.000000
917793.000000
918691.000000
919601.000000
920567.000000
921539.000000
922549.000000
923614.000000
924556.000000
925392.000000
926208.000000
927071.000000
928318.000000
929426.000000
930481.000000
931507.000000
932480.000000
933371.000000
934190.000000
934977.000000
935761.000000
936607.000000
937953.000000
939146.000000
940261.000000
941338.000000
942349.000000
943283.000000
944126.000000
944933.000000
945726.000000
946552.000000
947883.000000
949035.000000
950124.000000
951177.000000
952188.000000
953126.000000
953999.000000
954812.000000
955600.000000
956385.000000
957268.000000
958484.000000
959573.000000
960620.000000
961631.000000
962586.000000
963499.000000
964341.000000
965140.000000
965917.000000
966713.000000
967649.000000
968789.000000
969850.000000
970879.000000
971861.000000
972787.000000
973677.000000
974505.000000
975298.000000
976082.000000
976884.000000
978018.000000
979108.000000
980158.000000
981178.000000
982136.000000
983049.000000
983920.000000
984737.000000
985530.000000
986320.000000
987165.000000
988230.000000
989276.000000
990304.000000
991294.000000
992214.000000
993099.000000
993977.000000
994805.000000
995608.000000
996405.000000
997245.000000
998287.000000
999336.000000
1000391.000000
1001388.000000
1002351.000000
1003271.000000
1004139.000000
1004970.000000
1005774.000000
1006589.000000
1007610.000000
1008756.000000
1009842.000000
1010880.000000
1011864.000000
1012784.000000
1013665.000000
1014482.000000
1015276.000000
1016062.000000
1016879.000000
1017950.000000
1019047.000000
1020111.000000
1021127.000000
1022081.000000
1022986.000000
1023852.000000
1024668.000000
1025457.000000
1026243.000000
1027075.000000
1028246.000000
1029294.000000
1030317.000000
1031297.000000
1032225.000000
1033117.000000
1033960.000000
1034760.000000
1035544.000000
1036331.000000
1037207.000000
1038441.000000
1039526.000000
1040562.000000
1041542.000000
1042457.000000
1043333.000000
1044151.000000
1044938.000000
1045726.000000
1046540.000000
1047789.000000
1048887.000000
1049938.000000
1050954.000000
1051903.000000
1052811.000000
1053664.000000
1054461.000000
1055220.000000
1055960.000000
1056736.000000
1057816.000000
1058861.000000
1059888.000000
1060873.000000
1061788.000000
1062669.000000
1063529.000000
1064320.000000
1065088.000000
1065836.000000
1066592.000000
1067425.000000
1068545.000000
1069585.000000
1070589.000000
1071530.000000
1072423.000000
1073275.000000
1074071.000000
1074844.000000
1075586.000000
1076326.000000
1077098.000000
1077918.000000
1078795.000000
1079639.000000
1080483.000000
1081311.000000
1082121.000000
1082935.000000
1083742.000000
1084515.000000
1085273.000000
1086015.000000
1086757.000000
1087519.000000
1088327.000000
1089164.000000
1090006.000000
1090827.000000
1091667.000000
1092511.000000
1093349.000000
1094137.000000
1094908.000000
1095673.000000
1096445.000000
1097353.000000
1098478.000000
1099496.000000
1100476.000000
1101383.000000
1102248.000000
1103104.000000
1103909.000000
1104693.000000
1105474.000000
1106293.000000
1107242.000000
1108331.000000
1109340.000000
1110315.000000
1111239.000000
1112112.000000
1112979.000000
1113796.000000
1114598.000000
1115381.000000
1116164.000000
1117002.000000
1118136.000000
1119173.000000
1120172.000000
1121113.000000
1122002.000000
1122857.000000
1123667.000000
1124442.000000
1125206.000000
1125979.000000
1126830.000000
1128014.000000
1129054.000000
1130056.000000
1130991.000000
1131887.000000
1132759.000000
