ECG (ms)
266.000000
1235.000000
2172.000000
3126.000000
4073.000000
4988.000000
5933.000000
6844.000000
7790.000000
8712.000000
9662.000000
10601.000000
11523.000000
12475.000000
13405.000000
14326.000000
15248.000000
16142.000000
17058.000000
17929.000000
18806.000000
19726.000000
20636.000000
21604.000000
22571.000000
23569.000000
24554.000000
25492.000000
26460.000000
27409.000000
28350.000000
29312.000000
30238.000000
31199.000000
32154.000000
33067.000000
34016.000000
34939.000000
35880.000000
36835.000000
37767.000000
38713.000000
39670.000000
40609.000000
41530.000000
42485.000000
43415.000000
44361.000000
45300.000000
46217.000000
47158.000000
48070.000000
48995.000000
49911.000000
50797.000000
51705.000000
52597.000000
53487.000000
54387.000000
55280.000000
56177.000000
57102.000000
58001.000000
58924.000000
59865.000000
60790.000000
61701.000000
62631.000000
63532.000000
64437.000000
65354.000000
66245.000000
67154.000000
68080.000000
68984.000000
69898.000000
70829.000000
71721.000000
72637.000000
73542.000000
74429.000000
75340.000000
76239.000000
77153.000000
78077.000000
78968.000000
79897.000000
80818.000000
81737.000000
82671.000000
83567.000000
84488.000000
85396.000000
86278.000000
87183.000000
88074.000000
88957.000000
89856.000000
90733.000000
91621.000000
92508.000000
93365.000000
94257.000000
95136.000000
96009.000000
96896.000000
97753.000000
98621.000000
99482.000000
100321.000000
101197.000000
102079.000000
102946.000000
103856.000000
104753.000000
105674.000000
106600.000000
107495.000000
108414.000000
109309.000000
110205.000000
111109.000000
111972.000000
112875.000000
113780.000000
114656.000000
115564.000000
116491.000000
117380.000000
118310.000000
119231.000000
120115.000000
121038.000000
121959.000000
122850.000000
123775.000000
124664.000000
125580.000000
126506.000000
127394.000000
128319.000000
129232.000000
130127.000000
131060.000000
131965.000000
132875.000000
133800.000000
134681.000000
135615.000000
136531.000000
137437.000000
138370.000000
139285.000000
140198.000000
141122.000000
142003.000000
142913.000000
143805.000000
144655.000000
145513.000000
146437.000000
147403.000000
148365.000000
149296.000000
150229.000000
151118.000000
151973.000000
152866.000000
153744.000000
154622.000000
155532.000000
156457.000000
157395.000000
158337.000000
159255.000000
160199.000000
161097.000000
162014.000000
162937.000000
163833.000000
164769.000000
165695.000000
166623.000000
167586.000000
168548.000000
169509.000000
170483.000000
171425.000000
172394.000000
173357.000000
174272.000000
175226.000000
176163.000000
177064.000000
178020.000000
178970.000000
179979.000000
181013.000000
182005.000000
182996.000000
183979.000000
184932.000000
185926.000000
186927.000000
187886.000000
188828.000000
189806.000000
190766.000000
191718.000000
192680.000000
193616.000000
194577.000000
195549.000000
196494.000000
197465.000000
198434.000000
199354.000000
200310.000000
201260.000000
202179.000000
203129.000000
204070.000000
205008.000000
205963.000000
206891.000000
207839.000000
208793.000000
209725.000000
210679.000000
211624.000000
212542.000000
213509.000000
214456.000000
215401.000000
216374.000000
217314.000000
218299.000000
219255.000000
220214.000000
221187.000000
222119.000000
223086.000000
224043.000000
224956.000000
225895.000000
226803.000000
227697.000000
228572.000000
229444.000000
230325.000000
231271.000000
232228.000000
233178.000000
234144.000000
235081.000000
236022.000000
236994.000000
237934.000000
238834.000000
239777.000000
240700.000000
241615.000000
242585.000000
243538.000000
244512.000000
245504.000000
246438.000000
247389.000000
248311.000000
249216.000000
250144.000000
251109.000000
252073.000000
253044.000000
254026.000000
254985.000000
255939.000000
256903.000000
257829.000000
258733.000000
259609.000000
260448.000000
261312.000000
262222.000000
263150.000000
264122.000000
265120.000000
266068.000000
267048.000000
267970.000000
268904.000000
269830.000000
270722.000000
271647.000000
272571.000000
273472.000000
274418.000000
275338.000000
276256.000000
277185.000000
278097.000000
278997.000000
279908.000000
280788.000000
281667.000000
282552.000000
283448.000000
284382.000000
285304.000000
286215.000000
287160.000000
288078.000000
289026.000000
289975.000000
290887.000000
291820.000000
292753.000000
293643.000000
294569.000000
295485.000000
296401.000000
297338.000000
298256.000000
299171.000000
300108.000000
301018.000000
301948.000000
302877.000000
303775.000000
304703.000000
305636.000000
306528.000000
307460.000000
308395.000000
309306.000000
310242.000000
311195.000000
312136.000000
313075.000000
314051.000000
315021.000000
315959.000000
316935.000000
317912.000000
318860.000000
319843.000000
320826.000000
321770.000000
322747.000000
323740.000000
324680.000000
325652.000000
326631.000000
327552.000000
328499.000000
329433.000000
330345.000000
331276.000000
332188.000000
333096.000000
334015.000000
334918.000000
335850.000000
336792.000000
337716.000000
338664.000000
339611.000000
340520.000000
341453.000000
342382.000000
343272.000000
344170.000000
345079.000000
345988.000000
346912.000000
347874.000000
348826.000000
349808.000000
350770.000000
351696.000000
352653.000000
353586.000000
354499.000000
355427.000000
356336.000000
357260.000000
358196.000000
359115.000000
360066.000000
361036.000000
361969.000000
362939.000000
363888.000000
364808.000000
365743.000000
366664.000000
367590.000000
368542.000000
369476.000000
370440.000000
371424.000000
372372.000000
373344.000000
374317.000000
375260.000000
376238.000000
377212.000000
378132.000000
379075.000000
380023.000000
380936.000000
381897.000000
382858.000000
383784.000000
384752.000000
385691.000000
386621.000000
387560.000000
388454.000000
389340.000000
390222.000000
391084.000000
391959.000000
392859.000000
393745.000000
394701.000000
395644.000000
396578.000000
397520.000000
398424.000000
399353.000000
400227.000000
401116.000000
402004.000000
402863.000000
403746.000000
404629.000000
405543.000000
406445.000000
407321.000000
408235.000000
409115.000000
410004.000000
410901.000000
411768.000000
412659.000000
413535.000000
414399.000000
415283.000000
416150.000000
417036.000000
417922.000000
418777.000000
419659.000000
420535.000000
421383.000000
422251.000000
423081.000000
423919.000000
424748.000000
425559.000000
426377.000000
427204.000000
428027.000000
428869.000000
429724.000000
430566.000000
431437.000000
432338.000000
433233.000000
434128.000000
435030.000000
435950.000000
436832.000000
437699.000000
438540.000000
439358.000000
440197.000000
441016.000000
441855.000000
442737.000000
443630.000000
444523.000000
445440.000000
446403.000000
447344.000000
448254.000000
449168.000000
450064.000000
450946.000000
451840.000000
452722.000000
453593.000000
454498.000000
455416.000000
456332.000000
457274.000000
458178.000000
459069.000000
459959.000000
460809.000000
461687.000000
462560.000000
463442.000000
464355.000000
465236.000000
466134.000000
467020.000000
467889.000000
468769.000000
469621.000000
470488.000000
471374.000000
472246.000000
473160.000000
474075.000000
474944.000000
475824.000000
476739.000000
477642.000000
478526.000000
479447.000000
480379.000000
481281.000000
482174.000000
483063.000000
483924.000000
484785.000000
485655.000000
486516.000000
487401.000000
488280.000000
489152.000000
490048.000000
490970.000000
491871.000000
492790.000000
493702.000000
494582.000000
495478.000000
496383.000000
497274.000000
498191.000000
499111.000000
500054.000000
501014.000000
501926.000000
502845.000000
503771.000000
504656.000000
505565.000000
506472.000000
507353.000000
508264.000000
509159.000000
510045.000000
510957.000000
511853.000000
512748.000000
513651.000000
514550.000000
515446.000000
516353.000000
517262.000000
518180.000000
519106.000000
520004.000000
520912.000000
521802.000000
522668.000000
523553.000000
524432.000000
525315.000000
526245.000000
527216.000000
528225.000000
529329.000000
530398.000000
531476.000000
532530.000000
533472.000000
534445.000000
535398.000000
536364.000000
537364.000000
538397.000000
539489.000000
540534.000000
541562.000000
542585.000000
543546.000000
544510.000000
545410.000000
546316.000000
547220.000000
548125.000000
549016.000000
549920.000000
550842.000000
551740.000000
552669.000000
553585.000000
554483.000000
555397.000000
556282.000000
557184.000000
558076.000000
558949.000000
559844.000000
560738.000000
561619.000000
562523.000000
563426.000000
564298.000000
565191.000000
566068.000000
566930.000000
567812.000000
568689.000000
569553.000000
570431.000000
571301.000000
572179.000000
573066.000000
573920.000000
574785.000000
575646.000000
576501.000000
577364.000000
578215.000000
579079.000000
579941.000000
580793.000000
581663.000000
582555.000000
583429.000000
584320.000000
585210.000000
586077.000000
586972.000000
587863.000000
588734.000000
589640.000000
590538.000000
591412.000000
592309.000000
593194.000000
594058.000000
594944.000000
595818.000000
596703.000000
597583.000000
598433.000000
599323.000000
600186.000000
601053.000000
601932.000000
602786.000000
603664.000000
604552.000000
605429.000000
606326.000000
607231.000000
608120.000000
609042.000000
609951.000000
610849.000000
611771.000000
612660.000000
613571.000000
614469.000000
615346.000000
616253.000000
617144.000000
618038.000000
618948.000000
619836.000000
620751.000000
621663.000000
622565.000000
623493.000000
624407.000000
625330.000000
626264.000000
627179.000000
628115.000000
629054.000000
629961.000000
630901.000000
631839.000000
632742.000000
633674.000000
634592.000000
635494.000000
636420.000000
637339.000000
638228.000000
639146.000000
640095.000000
641009.000000
641937.000000
642878.000000
643801.000000
644711.000000
645638.000000
646534.000000
647451.000000
648350.000000
649227.000000
650129.000000
651006.000000
651901.000000
652794.000000
653662.000000
654567.000000
655479.000000
656369.000000
657290.000000
658198.000000
659095.000000
660025.000000
660929.000000
661838.000000
662768.000000
663678.000000
664592.000000
665509.000000
666386.000000
667257.000000
668111.000000
668954.000000
669806.000000
670706.000000
671624.000000
672595.000000
673621.000000
674594.000000
675601.000000
676547.000000
677477.000000
678432.000000
679374.000000
680300.000000
681244.000000
682180.000000
683111.000000
684071.000000
685039.000000
685999.000000
686971.000000
687910.000000
688870.000000
689808.000000
690718.000000
691651.000000
692564.000000
693463.000000
694386.000000
695301.000000
696193.000000
697110.000000
698007.000000
698899.000000
699805.000000
700712.000000
701613.000000
702538.000000
703461.000000
704353.000000
705272.000000
706167.000000
707054.000000
707947.000000
708818.000000
709695.000000
710572.000000
711434.000000
712313.000000
713198.000000
714050.000000
714859.000000
715691.000000
716545.000000
717420.000000
718330.000000
719233.000000
720128.000000
721046.000000
721966.000000
722857.000000
723781.000000
724690.000000
725551.000000
726436.000000
727329.000000
728194.000000
729075.000000
729977.000000
730867.000000
731802.000000
732748.000000
733641.000000
734549.000000
735461.000000
736339.000000
737241.000000
738157.000000
739045.000000
739974.000000
740890.000000
741795.000000
742723.000000
743622.000000
744522.000000
745426.000000
746290.000000
747165.000000
748041.000000
748887.000000
749761.000000
750635.000000
751525.000000
752476.000000
753415.000000
754347.000000
755291.000000
756226.000000
757145.000000
758060.000000
758958.000000
759844.000000
760745.000000
761674.000000
762581.000000
763529.000000
764466.000000
765382.000000
766287.000000
767182.000000
768062.000000
768946.000000
769820.000000
770700.000000
771598.000000
772495.000000
773395.000000
774318.000000
775223.000000
776137.000000
777044.000000
777929.000000
778811.000000
779707.000000
780601.000000
781493.000000
782412.000000
783318.000000
784231.000000
785147.000000
786033.000000
786959.000000
787866.000000
788758.000000
789680.000000
790594.000000
791485.000000
792405.000000
793330.000000
794222.000000
795137.000000
796024.000000
796909.000000
797798.000000
798661.000000
799549.000000
800448.000000
801346.000000
802306.000000
803221.000000
804171.000000
805106.000000
806021.000000
806962.000000
807870.000000
808775.000000
809682.000000
810547.000000
811447.000000
812339.000000
813239.000000
814174.000000
815114.000000
816056.000000
817016.000000
817953.000000
818911.000000
819870.000000
820790.000000
821726.000000
822668.000000
823571.000000
824498.000000
825420.000000
826324.000000
827249.000000
828165.000000
829072.000000
829995.000000
830899.000000
831788.000000
832692.000000
833563.000000
834434.000000
835351.000000
836271.000000
837177.000000
838101.000000
839005.000000
839901.000000
840796.000000
841667.000000
842551.000000
843457.000000
844361.000000
845263.000000
846174.000000
847077.000000
847973.000000
848898.000000
849859.000000
850800.000000
851746.000000
852680.000000
853629.000000
854571.000000
855476.000000
856408.000000
857331.000000
858246.000000
859174.000000
860067.000000
860996.000000
861925.000000
862852.000000
863749.000000
864665.000000
865584.000000
866489.000000
867420.000000
868348.000000
869246.000000
870174.000000
871104.000000
872001.000000
872919.000000
873848.000000
874761.000000
875716.000000
876673.000000
877603.000000
878551.000000
879460.000000
880377.000000
881333.000000
882260.000000
883239.000000
884197.000000
885104.000000
886049.000000
886980.000000
887898.000000
888833.000000
889752.000000
890673.000000
891595.000000
892490.000000
893393.000000
894314.000000
895228.000000
896138.000000
897082.000000
898021.000000
898957.000000
899919.000000
900849.000000
901754.000000
902662.000000
903571.000000
904444.000000
905347.000000
906265.000000
907168.000000
908104.000000
909058.000000
909985.000000
910920.000000
911851.000000
912754.000000
913659.000000
914556.000000
915446.000000
916360.000000
917279.000000
918163.000000
919075.000000
919974.000000
920841.000000
921729.000000
922599.000000
923478.000000
924349.000000
925206.000000
926097.000000
926971.000000
927853.000000
928762.000000
929716.000000
930625.000000
931538.000000
932462.000000
933357.000000
934245.000000
935148.000000
936039.000000
936944.000000
937873.000000
938829.000000
939834.000000
940780.000000
941778.000000
942778.000000
943733.000000
944683.000000
945615.000000
946507.000000
947435.000000
948360.000000
949267.000000
950232.000000
951192.000000
952121.000000
953102.000000
954064.000000
955000.000000
955934.000000
956862.000000
957759.000000
958638.000000
959541.000000
960450.000000
961359.000000
962235.000000
963139.000000
964031.000000
964911.000000
965785.000000
966685.000000
967596.000000
968495.000000
969330.000000
970148.000000
970996.000000
971861.000000
972710.000000
973588.000000
974508.000000
975405.000000
976289.000000
977211.000000
978097.000000
978953.000000
979838.000000
980718.000000
981561.000000
982433.000000
983333.000000
984202.000000
985119.000000
986030.000000
986899.000000
987787.000000
988679.000000
989551.000000
990438.000000
991342.000000
992219.000000
993130.000000
994058.000000
994944.000000
995847.000000
996736.000000
997586.000000
998455.000000
999332.000000
1000185.000000
1001056.000000
1001949.000000
1002801.000000
1003686.000000
1004566.000000
1005417.000000
1006288.000000
1007154.000000
1007993.000000
1008852.000000
1009727.000000
1010584.000000
1011449.000000
1012329.000000
1013228.000000
1014107.000000
1015004.000000
1015885.000000
1016757.000000
1017655.000000
1018544.000000
1019429.000000
1020334.000000
1021261.000000
1022182.000000
1023091.000000
1024038.000000
1024982.000000
1025900.000000
1026775.000000
1027661.000000
1028591.000000
1029547.000000
1030528.000000
1031456.000000
1032416.000000
1033377.000000
1034296.000000
1035245.000000
1036157.000000
1037039.000000
1037949.000000
1038863.000000
1039757.000000
1040683.000000
1041594.000000
1042486.000000
1043413.000000
1044322.000000
1045211.000000
1046117.000000
1047007.000000
1047877.000000
1048779.000000
1049680.000000
1050558.000000
1051487.000000
1052404.000000
1053344.000000
1054321.000000
1055268.000000
1056235.000000
1057178.000000
1058092.000000
1059029.000000
1059949.000000
1060877.000000
1061840.000000
1062789.000000
1063766.000000
1064733.000000
1065705.000000
1066676.000000
1067598.000000
1068524.000000
1069430.000000
1070315.000000
1071224.000000
1072150.000000
1073081.000000
1074078.000000
1075076.000000
1076039.000000
1077030.000000
1078044.000000
1079027.000000
1079977.000000
1080954.000000
1081901.000000
1082817.000000
1083752.000000
1084642.000000
1085556.000000
1086480.000000
1087371.000000
1088267.000000
1089173.000000
1090078.000000
1090993.000000
1091906.000000
1092816.000000
1093708.000000
1094616.000000
1095530.000000
1096414.000000
1097345.000000
1098289.000000
1099263.000000
1100186.000000
1101109.000000
1102032.000000
1102955.000000
1103865.000000
1104778.000000
1105733.000000
1106677.000000
1107568.000000
1108488.000000
1109395.000000
1110270.000000
1111174.000000
1112083.000000
1112981.000000
1113864.000000
1114786.000000
1115717.000000
1116619.000000
1117537.000000
1118439.000000
1119308.000000
1120199.000000
1121105.000000
1121981.000000
1122900.000000
1123850.000000
1124818.000000
1125767.000000
1126707.000000
1127639.000000
1128530.000000
1129434.000000
1130309.000000
1131178.000000
1132063.000000
1132940.000000
1133828.000000
1134727.000000
1135603.000000
1136476.000000
1137363.000000
1138226.000000
1139100.000000
1139985.000000
1140867.000000
1141780.000000
1142713.000000
1143621.000000
1144543.000000
1145463.000000
1146343.000000
1147233.000000
1148099.000000
1148948.000000
1149812.000000
1150667.000000
1151509.000000
1152383.000000
1153236.000000
1154067.000000
1154915.000000
1155759.000000
1156581.000000
1157430.000000
1158296.000000
1159153.000000
1160022.000000
1160887.000000
1161765.000000
1162628.000000
1163477.000000
1164335.000000
1165190.000000
1166070.000000
1166944.000000
1167823.000000
1168715.000000
1169623.000000
1170525.000000
1171436.000000
1172359.000000
1173281.000000
1174165.000000
1175072.000000
1175960.000000
1176834.000000
1177737.000000
1178669.000000
1179591.000000
1180542.000000
1181549.000000
1182497.000000
1183435.000000
1184358.000000
1185240.000000
1186165.000000
1187102.000000
1187999.000000
1188922.000000
1189818.000000
1190710.000000
1191623.000000
1192548.000000
1193440.000000
1194361.000000
1195272.000000
1196158.000000
1197063.000000
1197984.000000
1198882.000000
1199796.000000
1200708.000000
1201594.000000
1202545.000000
1203495.000000
1204410.000000
1205340.000000
1206263.000000
1207161.000000
1208071.000000
1208973.000000
1209867.000000
1210767.000000
1211690.000000
1212597.000000
1213555.000000
1214530.000000
1215480.000000
1216434.000000
1217369.000000
1218307.000000
1219223.000000
1220148.000000
1221066.000000
1222015.000000
1222955.000000
1223989.000000
1225094.000000
1226147.000000
1227207.000000
1228304.000000
1229342.000000
1230289.000000
1231236.000000
1232163.000000
1233048.000000
1233951.000000
1234877.000000
1235770.000000
1236693.000000
1237659.000000
1238590.000000
1239569.000000
1240523.000000
1241457.000000
1242372.000000
1243251.000000
1244148.000000
1245061.000000
1245973.000000
1246956.000000
1247954.000000
1248958.000000
1249968.000000
1250950.000000
1251875.000000
1252791.000000
1253704.000000
1254620.000000
1255567.000000
1256515.000000
1257457.000000
1258416.000000
1259341.000000
1260260.000000
1261187.000000
1262075.000000
1263017.000000
1263941.000000
1264852.000000
1265780.000000
1266704.000000
1267607.000000
1268501.000000
1269401.000000
1270301.000000
1271186.000000
1272099.000000
1273005.000000
1273902.000000
1274794.000000
1275707.000000
1276621.000000
1277533.000000
1278407.000000
1279276.000000
1280176.000000
1281124.000000
1282029.000000
1282949.000000
1283863.000000
1284810.000000
1285716.000000
1286659.000000
1287602.000000
1288564.000000
1289494.000000
1290385.000000
1291277.000000
1292197.000000
1293124.000000
1294024.000000
1294893.000000
1295796.000000
1296709.000000
1297617.000000
1298501.000000
1299420.000000
1300358.000000
1301311.000000
1302222.000000
1303151.000000
1304088.000000
1304985.000000
1305871.000000
1306776.000000
1307688.000000
1308574.000000
1309523.000000
1310468.000000
1311405.000000
1312301.000000
1313165.000000
1314043.000000
1314933.000000
1315858.000000
1316798.000000
1317732.000000
1318665.000000
1319576.000000
1320456.000000
1321346.000000
1322250.000000
1323125.000000
1324035.000000
1324963.000000
1325854.000000
1326784.000000
1327762.000000
1328711.000000
1329648.000000
1330571.000000
1331479.000000
1332387.000000
1333303.000000
1334211.000000
1335091.000000
1335984.000000
1336871.000000
1337731.000000
1338616.000000
1339500.000000
1340349.000000
1341240.000000
1342146.000000
1343025.000000
1343956.000000
1344884.000000
1345782.000000
1346703.000000
1347619.000000
1348510.000000
1349421.000000
1350315.000000
1351173.000000
1352070.000000
1352984.000000
1353852.000000
1354732.000000
1355619.000000
1356499.000000
1357361.000000
1358245.000000
1359148.000000
1360031.000000
1360919.000000
1361802.000000
1362672.000000
1363560.000000
1364432.000000
1365279.000000
1366146.000000
1367009.000000
1367847.000000
1368708.000000
1369570.000000
1370405.000000
1371287.000000
1372181.000000
1373059.000000
1373963.000000
1374870.000000
1375750.000000
1376644.000000
1377523.000000
1378376.000000
1379272.000000
1380197.000000
1381119.000000
1382026.000000
1382946.000000
1383872.000000
1384764.000000
1385687.000000
1386605.000000
1387473.000000
1388361.000000
1389254.000000
1390116.000000
1391005.000000
1391894.000000
1392774.000000
1393694.000000
1394621.000000
1395530.000000
1396454.000000
1397345.000000
1398231.000000
1399119.000000
1399990.000000
1400865.000000
1401774.000000
1402668.000000
1403571.000000
1404486.000000
1405405.000000
1406323.000000
1407231.000000
1408130.000000
1408999.000000
1409872.000000
1410734.000000
1411586.000000
1412463.000000
1413371.000000
1414272.000000
1415232.000000
1416209.000000
1417148.000000
1418088.000000
1419025.000000
1419934.000000
1420860.000000
1421773.000000
1422699.000000
1423628.000000
1424549.000000
1425455.000000
1426385.000000
1427323.000000
1428239.000000
1429198.000000
1430153.000000
1431062.000000
1431972.000000
1432854.000000
1433730.000000
1434633.000000
1435530.000000
1436445.000000
1437383.000000
1438316.000000
1439284.000000
1440292.000000
1441232.000000
1442179.000000
1443116.000000
1444061.000000
1445045.000000
1446020.000000
1446985.000000
1447976.000000
1448900.000000
1449843.000000
1450758.000000
1451648.000000
1452578.000000
1453535.000000
1454453.000000
1455381.000000
1456362.000000
1457313.000000
1458320.000000
1459335.000000
1460278.000000
1461204.000000
1462130.000000
1463044.000000
1463910.000000
1464792.000000
1465672.000000
1466535.000000
1467360.000000
1468211.000000
1469099.000000
1470015.000000
1470923.000000
1471850.000000
1472794.000000
1473699.000000
1474640.000000
1475581.000000
1476484.000000
1477410.000000
1478345.000000
1479261.000000
1480146.000000
1481054.000000
1481959.000000
1482835.000000
1483678.000000
1484538.000000
1485379.000000
1486213.000000
1487044.000000
1487932.000000
1488860.000000
1489777.000000
1490675.000000
1491576.000000
1492496.000000
1493409.000000
1494267.000000
1495104.000000
1495947.000000
1496810.000000
1497652.000000
1498524.000000
1499418.000000
1500354.000000
1501250.000000
1502156.000000
1503065.000000
1503971.000000
1504843.000000
1505700.000000
1506564.000000
1507435.000000
1508323.000000
1509170.000000
1510019.000000
1510884.000000
1511765.000000
1512614.000000
1513462.000000
1514326.000000
1515213.000000
1516069.000000
1516931.000000
1517807.000000
1518677.000000
1519519.000000
1520382.000000
1521252.000000
1522101.000000
1522982.000000
1523892.000000
1524786.000000
1525710.000000
1526642.000000
1527534.000000
1528461.000000
1529398.000000
1530293.000000
1531205.000000
1532081.000000
1532949.000000
1533810.000000
1534653.000000
1535514.000000
1536387.000000
1537247.000000
1538154.000000
1539047.000000
1539931.000000
1540842.000000
1541751.000000
1542607.000000
1543466.000000
1544295.000000
1545099.000000
1545878.000000
1546711.000000
1547593.000000
1548463.000000
1549382.000000
1550271.000000
1551155.000000
1552060.000000
1552955.000000
1553793.000000
1554619.000000
1555466.000000
1556339.000000
1557255.000000
1558137.000000
1559066.000000
1560029.000000
1560972.000000
1561917.000000
1562869.000000
1563838.000000
1564757.000000
1565672.000000
1566580.000000
1567444.000000
1568326.000000
1569224.000000
1570111.000000
1571087.000000
1572105.000000
1573058.000000
1574033.000000
1574967.000000
1575917.000000
1576810.000000
1577709.000000
1578628.000000
1579532.000000
1580423.000000
1581338.000000
1582302.000000
1583254.000000
1584200.000000
1585140.000000
1586062.000000
1586997.000000
1587934.000000
1588842.000000
1589696.000000
1590531.000000
1591378.000000
1592264.000000
1593203.000000
1594196.000000
1595222.000000
1596183.000000
1597157.000000
1598123.000000
1599064.000000
1599980.000000
1600901.000000
1601840.000000
1602737.000000
1603676.000000
1604636.000000
1605582.000000
1606552.000000
1607534.000000
1608487.000000
1609437.000000
1610366.000000
1611289.000000
1612215.000000
1613131.000000
1614061.000000
1614995.000000
1615915.000000
1616910.000000
1617920.000000
1618856.000000
1619818.000000
1620770.000000
1621688.000000
1622657.000000
1623618.000000
1624579.000000
1625570.000000
1626561.000000
1627507.000000
1628475.000000
1629433.000000
1630365.000000
1631295.000000
1632248.000000
1633184.000000
1634153.000000
1635149.000000
1636086.000000
1637050.000000
1638009.000000
1638910.000000
1639830.000000
1640738.000000
1641632.000000
1642560.000000
1643495.000000
1644457.000000
1645368.000000
1646310.000000
1647279.000000
1648231.000000
1649131.000000
1650023.000000
1650910.000000
1651791.000000
1652685.000000
1653605.000000
1654508.000000
1655452.000000
1656427.000000
1657364.000000
1658320.000000
1659248.000000
1660191.000000
1661162.000000
1662117.000000
1663057.000000
1664001.000000
1664923.000000
1665853.000000
1666767.000000
1667657.000000
1668544.000000
1669427.000000
1670291.000000
1671170.000000
1672066.000000
1672949.000000
1673847.000000
1674742.000000
1675639.000000
1676737.000000
1677724.000000
1678603.000000
1679480.000000
1680337.000000
1681192.000000
1682153.000000
1683165.000000
1684115.000000
1685243.000000
1686332.000000
1687409.000000
1688482.000000
1689505.000000
1690486.000000
1691434.000000
1692448.000000
1693449.000000
1694433.000000
1695408.000000
1696344.000000
1697260.000000
1698204.000000
1699149.000000
1700062.000000
1700952.000000
1701874.000000
1702815.000000
1703756.000000
1704668.000000
1705555.000000
1706453.000000
1707379.000000
1708313.000000
1709214.000000
1710102.000000
1711009.000000
1711912.000000
1712771.000000
1713657.000000
1714546.000000
1715436.000000
1716301.000000
1717187.000000
1718101.000000
1719041.000000
1719947.000000
1720873.000000
1721780.000000
1722662.000000
1723561.000000
1724481.000000
1725390.000000
1726308.000000
1727217.000000
1728116.000000
1729020.000000
1729933.000000
1730868.000000
1731753.000000
1732663.000000
1733566.000000
1734443.000000
1735304.000000
1736177.000000
1737071.000000
1737954.000000
1738905.000000
1739878.000000
1740795.000000
1741722.000000
1742629.000000
1743513.000000
1744422.000000
1745318.000000
1746188.000000
1747089.000000
1748013.000000
1748910.000000
1749816.000000
1750711.000000
1751592.000000
1752465.000000
1753379.000000
1754292.000000
1755186.000000
1756096.000000
1756998.000000
1757875.000000
1758788.000000
1759689.000000
1760577.000000
1761503.000000
1762416.000000
1763309.000000
1764238.000000
1765135.000000
1765999.000000
1766867.000000
1767771.000000
1768726.000000
1769669.000000
1770587.000000
1771449.000000
1772296.000000
1773165.000000
1774045.000000
1774902.000000
1775766.000000
1776651.000000
1777535.000000
1778402.000000
1779316.000000
1780244.000000
1781119.000000
1782004.000000
1782884.000000
1783754.000000
1784635.000000
1785534.000000
1786441.000000
1787383.000000
1788366.000000
1789339.000000
1790269.000000
1791205.000000
1792116.000000
1793030.000000
1794008.000000
1795018.000000
1795955.000000
1796927.000000
