ECG (ms)
509.000000
1396.000000
2256.000000
3471.000000
4281.000000
5075.000000
5897.000000
6781.000000
7637.000000
8887.000000
9719.000000
10483.000000
11311.000000
12560.000000
13461.000000
14276.000000
15518.000000
16543.000000
17351.000000
18285.000000
19400.000000
20216.000000
21119.000000
22246.000000
23072.000000
23988.000000
24966.000000
25781.000000
26821.000000
27824.000000
28641.000000
29562.000000
30675.000000
31507.000000
32359.000000
33409.000000
34319.000000
35184.000000
36423.000000
37309.000000
38150.000000
39204.000000
40068.000000
40910.000000
42136.000000
43039.000000
43878.000000
44861.000000
45679.000000
46611.000000
47638.000000
48472.000000
49455.000000
50345.000000
51151.000000
52070.000000
52983.000000
53783.000000
54716.000000
55607.000000
56410.000000
57319.000000
58251.000000
59053.000000
60018.000000
60978.000000
61794.000000
62849.000000
63759.000000
64541.000000
65422.000000
66413.000000
67211.000000
68046.000000
69035.000000
69892.000000
70748.000000
71875.000000
72772.000000
73563.000000
74448.000000
75351.000000
76160.000000
77043.000000
78027.000000
78841.000000
79726.000000
80731.000000
81563.000000
82471.000000
83411.000000
84223.000000
85166.000000
86226.000000
87055.000000
87989.000000
88918.000000
89702.000000
90509.000000
91414.000000
92210.000000
92999.000000
93994.000000
94886.000000
95701.000000
96849.000000
97767.000000
98560.000000
99415.000000
100281.000000
101071.000000
101925.000000
102856.000000
103658.000000
104533.000000
105469.000000
106282.000000
107117.000000
108313.000000
109165.000000
109971.000000
110928.000000
111759.000000
112572.000000
113791.000000
114654.000000
115469.000000
116568.000000
117394.000000
118175.000000
119079.000000
119997.000000
120805.000000
122030.000000
122934.000000
123731.000000
124700.000000
125529.000000
126368.000000
127472.000000
128319.000000
129131.000000
130118.000000
130949.000000
131784.000000
132843.000000
133697.000000
134513.000000
135447.000000
136356.000000
137166.000000
138105.000000
138980.000000
139776.000000
140758.000000
141634.000000
142423.000000
143316.000000
144197.000000
144981.000000
145906.000000
146787.000000
147571.000000
148462.000000
149392.000000
150184.000000
151059.000000
152014.000000
152825.000000
153711.000000
154745.000000
155554.000000
156447.000000
157366.000000
158165.000000
159033.000000
160015.000000
160808.000000
161651.000000
162538.000000
163326.000000
164167.000000
165163.000000
165963.000000
166795.000000
167792.000000
168598.000000
169471.000000
170405.000000
171203.000000
172131.000000
173055.000000
173846.000000
174727.000000
175717.000000
176510.000000
177445.000000
178350.000000
179147.000000
180070.000000
180957.000000
181763.000000
182784.000000
183728.000000
184537.000000
185502.000000
186450.000000
187243.000000
188102.000000
189042.000000
189840.000000
190711.000000
191811.000000
192633.000000
193519.000000
194482.000000
195307.000000
196167.000000
197283.000000
198105.000000
198926.000000
199783.000000
200579.000000
201392.000000
202375.000000
203182.000000
204033.000000
204994.000000
205810.000000
206653.000000
207665.000000
208484.000000
209269.000000
210458.000000
211302.000000
212136.000000
213091.000000
213964.000000
214760.000000
215705.000000
216636.000000
217455.000000
218647.000000
219508.000000
220300.000000
221343.000000
222241.000000
223026.000000
223971.000000
225145.000000
225989.000000
227092.000000
227944.000000
228741.000000
229622.000000
230566.000000
231368.000000
232398.000000
233335.000000
234155.000000
235060.000000
235872.000000
236686.000000
237670.000000
238563.000000
239403.000000
240344.000000
241250.000000
242199.000000
243280.000000
244150.000000
244921.000000
245778.000000
246686.000000
247484.000000
248383.000000
249482.000000
250285.000000
251148.000000
252078.000000
252884.000000
253866.000000
254740.000000
255533.000000
256753.000000
257631.000000
258410.000000
259350.000000
260243.000000
261020.000000
261902.000000
262888.000000
263687.000000
264641.000000
265511.000000
266313.000000
267280.000000
268179.000000
268991.000000
269828.000000
270668.000000
271448.000000
272303.000000
273182.000000
273974.000000
274891.000000
275776.000000
276585.000000
277467.000000
278506.000000
279344.000000
280226.000000
281151.000000
281941.000000
282760.000000
283848.000000
284638.000000
285496.000000
286398.000000
287203.000000
288107.000000
289192.000000
290029.000000
291006.000000
291953.000000
292745.000000
293555.000000
294407.000000
295197.000000
296072.000000
297318.000000
298236.000000
299229.000000
300098.000000
300921.000000
301809.000000
302667.000000
303460.000000
304313.000000
305201.000000
305997.000000
306894.000000
307939.000000
308760.000000
309730.000000
310675.000000
311524.000000
312534.000000
313497.000000
314293.000000
315091.000000
315980.000000
316776.000000
317590.000000
318621.000000
319518.000000
320336.000000
321294.000000
322109.000000
322887.000000
323727.000000
324591.000000
325406.000000
326185.000000
326994.000000
328224.000000
329294.000000
330165.000000
330929.000000
331737.000000
332618.000000
333431.000000
334257.000000
335484.000000
336317.000000
337135.000000
338043.000000
338855.000000
339645.000000
340652.000000
341563.000000
342440.000000
343574.000000
344478.000000
345390.000000
346346.000000
347225.000000
348090.000000
348970.000000
349814.000000
350584.000000
351387.000000
352240.000000
353053.000000
353921.000000
355103.000000
355939.000000
356843.000000
357657.000000
358440.000000
359268.000000
360094.000000
360887.000000
361788.000000
362653.000000
363442.000000
364174.000000
364924.000000
365906.000000
366718.000000
367476.000000
368288.000000
369108.000000
369889.000000
370657.000000
371496.000000
372310.000000
373078.000000
373933.000000
374983.000000
375755.000000
376552.000000
377434.000000
378230.000000
379020.000000
379893.000000
380682.000000
381436.000000
382230.000000
383246.000000
384053.000000
384847.000000
385734.000000
386674.000000
387513.000000
388387.000000
389251.000000
390101.000000
391019.000000
391879.000000
392684.000000
393630.000000
394749.000000
395583.000000
396356.000000
397205.000000
398008.000000
398773.000000
399631.000000
400535.000000
401324.000000
402187.000000
403061.000000
403842.000000
404614.000000
405465.000000
406388.000000
407176.000000
407989.000000
408888.000000
409726.000000
410495.000000
411316.000000
412140.000000
412908.000000
413698.000000
414692.000000
415659.000000
416432.000000
417205.000000
418121.000000
419225.000000
420144.000000
421017.000000
422053.000000
422990.000000
423850.000000
424966.000000
425881.000000
426674.000000
427560.000000
428562.000000
429379.000000
430337.000000
431459.000000
432302.000000
433304.000000
434364.000000
435165.000000
435998.000000
436890.000000
437795.000000
438739.000000
439961.000000
440902.000000
441716.000000
442583.000000
443376.000000
444159.000000
445023.000000
446183.000000
446990.000000
447906.000000
448810.000000
449649.000000
450872.000000
451756.000000
452562.000000
453622.000000
454488.000000
455266.000000
456085.000000
457317.000000
458271.000000
459121.000000
459985.000000
460790.000000
461649.000000
462815.000000
463699.000000
464488.000000
465221.000000
465937.000000
466791.000000
468133.000000
469132.000000
469953.000000
470848.000000
472154.000000
473230.000000
474212.000000
475439.000000
476527.000000
477507.000000
478675.000000
479506.000000
480462.000000
481538.000000
482361.000000
483292.000000
484295.000000
485113.000000
485949.000000
486902.000000
487718.000000
488625.000000
489683.000000
490504.000000
491360.000000
492537.000000
493349.000000
494191.000000
495123.000000
495909.000000
496720.000000
497596.000000
498419.000000
499262.000000
500151.000000
500943.000000
501703.000000
502450.000000
503325.000000
504557.000000
505666.000000
506613.000000
507435.000000
508312.000000
509253.000000
510048.000000
510887.000000
511896.000000
512728.000000
513936.000000
515016.000000
515832.000000
516717.000000
517637.000000
518464.000000
519421.000000
520534.000000
521366.000000
522183.000000
523048.000000
523845.000000
524653.000000
525605.000000
526463.000000
527388.000000
528369.000000
529179.000000
530063.000000
531093.000000
531923.000000
532917.000000
533956.000000
534763.000000
535597.000000
536487.000000
537317.000000
538371.000000
539290.000000
540106.000000
540915.000000
541754.000000
542532.000000
543364.000000
544580.000000
545431.000000
546365.000000
547442.000000
548276.000000
549144.000000
549948.000000
550690.000000
551427.000000
552242.000000
553171.000000
553983.000000
555206.000000
556233.000000
557041.000000
557947.000000
558975.000000
559810.000000
560620.000000
561452.000000
562250.000000
563088.000000
564184.000000
565083.000000
565929.000000
567102.000000
568006.000000
568775.000000
569581.000000
570450.000000
571257.000000
572418.000000
573346.000000
574152.000000
575067.000000
575857.000000
576634.000000
577576.000000
578474.000000
579269.000000
580461.000000
581576.000000
582401.000000
583308.000000
584136.000000
584910.000000
585719.000000
586599.000000
587420.000000
588269.000000
589558.000000
590449.000000
591641.000000
592534.000000
593366.000000
594361.000000
595185.000000
595945.000000
596750.000000
597693.000000
598521.000000
599478.000000
600412.000000
601255.000000
602052.000000
602869.000000
603658.000000
604577.000000
605771.000000
606611.000000
607463.000000
608580.000000
609414.000000
610392.000000
611282.000000
612084.000000
612955.000000
613847.000000
614627.000000
615444.000000
616403.000000
617228.000000
618152.000000
619323.000000
620217.000000
621137.000000
622213.000000
623046.000000
623934.000000
624886.000000
625711.000000
626757.000000
627815.000000
628591.000000
629343.000000
630168.000000
630997.000000
631765.000000
632654.000000
633604.000000
634414.000000
635349.000000
636553.000000
637436.000000
638627.000000
639545.000000
640316.000000
641105.000000
642368.000000
643274.000000
644079.000000
645293.000000
646336.000000
647154.000000
648128.000000
649020.000000
649812.000000
650678.000000
651891.000000
652769.000000
653584.000000
654600.000000
655485.000000
656260.000000
657060.000000
658343.000000
659248.000000
660218.000000
661249.000000
662068.000000
662944.000000
664086.000000
664880.000000
665704.000000
666773.000000
667840.000000
668713.000000
669481.000000
670252.000000
671167.000000
671989.000000
672735.000000
673461.000000
674227.000000
675350.000000
676199.000000
676961.000000
677851.000000
678651.000000
679471.000000
680471.000000
681308.000000
682076.000000
682876.000000
683868.000000
684812.000000
685607.000000
686424.000000
687327.000000
688183.000000
688966.000000
689787.000000
690649.000000
691456.000000
692231.000000
693120.000000
694140.000000
694953.000000
695822.000000
696706.000000
697502.000000
698343.000000
699290.000000
700096.000000
700931.000000
701906.000000
702734.000000
703693.000000
704786.000000
705638.000000
706540.000000
707445.000000
708226.000000
709019.000000
709897.000000
710701.000000
711503.000000
712724.000000
713582.000000
714485.000000
715603.000000
716409.000000
717178.000000
717989.000000
718803.000000
719632.000000
720899.000000
721902.000000
722691.000000
723561.000000
724623.000000
725461.000000
726307.000000
727092.000000
727841.000000
728631.000000
729908.000000
730730.000000
731529.000000
732396.000000
733275.000000
734053.000000
734810.000000
735617.000000
736810.000000
737645.000000
738400.000000
739146.000000
739912.000000
740794.000000
741717.000000
742574.000000
743389.000000
744547.000000
745600.000000
746488.000000
747401.000000
748265.000000
749047.000000
749850.000000
750751.000000
751693.000000
752501.000000
753341.000000
754230.000000
755031.000000
755852.000000
756713.000000
757476.000000
758211.000000
758946.000000
759682.000000
760423.000000
761146.000000
761888.000000
762885.000000
763706.000000
764462.000000
765210.000000
766017.000000
767201.000000
768020.000000
768782.000000
769581.000000
770422.000000
771209.000000
772088.000000
773113.000000
773981.000000
774888.000000
775844.000000
776733.000000
777662.000000
778487.000000
779241.000000
780040.000000
781044.000000
781880.000000
782633.000000
783412.000000
784326.000000
785141.000000
785992.000000
787127.000000
787988.000000
788838.000000
789736.000000
790596.000000
791480.000000
792583.000000
793465.000000
794475.000000
795479.000000
796326.000000
797127.000000
797946.000000
798701.000000
799479.000000
800458.000000
801318.000000
802124.000000
803362.000000
804399.000000
805287.000000
806464.000000
807436.000000
808217.000000
809034.000000
810143.000000
810956.000000
811761.000000
812601.000000
813391.000000
814481.000000
815649.000000
816510.000000
817443.000000
818314.000000
819096.000000
819868.000000
821160.000000
822265.000000
823057.000000
823880.000000
824718.000000
825535.000000
826787.000000
827955.000000
828749.000000
829521.000000
830383.000000
831248.000000
832032.000000
832912.000000
833998.000000
834834.000000
835729.000000
836672.000000
837450.000000
838232.000000
839078.000000
839905.000000
840687.000000
841516.000000
842497.000000
843309.000000
844158.000000
845186.000000
846004.000000
846758.000000
847493.000000
848248.000000
849494.000000
850541.000000
851375.000000
852142.000000
853037.000000
854160.000000
855131.000000
856229.000000
857233.000000
858116.000000
859113.000000
859990.000000
860753.000000
861541.000000
862459.000000
863312.000000
864108.000000
865311.000000
866433.000000
867372.000000
868398.000000
869256.000000
870206.000000
871254.000000
872078.000000
872893.000000
873829.000000
874648.000000
875608.000000
876705.000000
877527.000000
878299.000000
879402.000000
880491.000000
881325.000000
882200.000000
883231.000000
884036.000000
884815.000000
885751.000000
886637.000000
887524.000000
888737.000000
889598.000000
890538.000000
891569.000000
892362.000000
893145.000000
894055.000000
894868.000000
895870.000000
897051.000000
897923.000000
898824.000000
899673.000000
900458.000000
901348.000000
902206.000000
902974.000000
903786.000000
905055.000000
905996.000000
906830.000000
907758.000000
908550.000000
909767.000000
910628.000000
911372.000000
912131.000000
912963.000000
913737.000000
914504.000000
915428.000000
916292.000000
917059.000000
917921.000000
918974.000000
919802.000000
920676.000000
921582.000000
922376.000000
923195.000000
924037.000000
924799.000000
925553.000000
926346.000000
927116.000000
927849.000000
928575.000000
929301.000000
930044.000000
931136.000000
931930.000000
932685.000000
933428.000000
934153.000000
934873.000000
935580.000000
936294.000000
937021.000000
937761.000000
938532.000000
939259.000000
940002.000000
940746.000000
941469.000000
942178.000000
942890.000000
943609.000000
944346.000000
945059.000000
945791.000000
946551.000000
947306.000000
948083.000000
948982.000000
949887.000000
950676.000000
951457.000000
952258.000000
953063.000000
953915.000000
954791.000000
955592.000000
956332.000000
957087.000000
957867.000000
958648.000000
959437.000000
960601.000000
961485.000000
962405.000000
963539.000000
964409.000000
965399.000000
966241.000000
966976.000000
967701.000000
969044.000000
969921.000000
970697.000000
971962.000000
973012.000000
973793.000000
975057.000000
976145.000000
976932.000000
977803.000000
978775.000000
979580.000000
980478.000000
981544.000000
982379.000000
983350.000000
984428.000000
985234.000000
986028.000000
986871.000000
987646.000000
988421.000000
989261.000000
990122.000000
990934.000000
992165.000000
993196.000000
994073.000000
994865.000000
995609.000000
996356.000000
997134.000000
997936.000000
998806.000000
999786.000000
1000633.000000
1001519.000000
1002646.000000
1003483.000000
1004281.000000
1005189.000000
1006262.000000
1007118.000000
1008275.000000
1009367.000000
1010160.000000
1010939.000000
1011766.000000
1012601.000000
1013805.000000
1014803.000000
1015589.000000
1016519.000000
1017607.000000
1018467.000000
1019422.000000
1020330.000000
1021116.000000
1021922.000000
1022857.000000
1023682.000000
1024757.000000
1025915.000000
1026816.000000
1027821.000000
1028661.000000
1029429.000000
1030298.000000
1031422.000000
1032254.000000
1033142.000000
1034258.000000
1035120.000000
1036024.000000
1036957.000000
1037738.000000
1038529.000000
1039381.000000
1040188.000000
1041078.000000
1042325.000000
1043174.000000
1043951.000000
1044819.000000
1045910.000000
1046790.000000
1047726.000000
1048567.000000
1049312.000000
1050033.000000
1050789.000000
1052067.000000
1053046.000000
1053822.000000
1054683.000000
1055671.000000
1056484.000000
1057334.000000
1058441.000000
1059251.000000
1060049.000000
1060879.000000
1061631.000000
1062371.000000
1063101.000000
1063838.000000
1064848.000000
1065800.000000
1066601.000000
1067385.000000
1068226.000000
1069054.000000
1069840.000000
1070697.000000
1071696.000000
1072612.000000
1073618.000000
1074431.000000
1075176.000000
1075936.000000
1076731.000000
1077502.000000
1078304.000000
1079275.000000
1080262.000000
1081055.000000
1081894.000000
1082875.000000
1083676.000000
1084462.000000
1085326.000000
1086207.000000
1086993.000000
1087986.000000
1089055.000000
1089880.000000
1090681.000000
1091889.000000
1092825.000000
1093642.000000
1094506.000000
1095390.000000
1096241.000000
1097116.000000
1097907.000000
1098762.000000
1099986.000000
1100793.000000
1101609.000000
1102444.000000
1103223.000000
1104073.000000
1105332.000000
1106307.000000
1107214.000000
1108169.000000
1108961.000000
1109701.000000
1110458.000000
1111344.000000
1112176.000000
1113409.000000
1114346.000000
1115142.000000
1115979.000000
1116820.000000
1117595.000000
1118416.000000
1119363.000000
1120164.000000
1120994.000000
1121864.000000
1122674.000000
1123562.000000
1124765.000000
1125642.000000
1126405.000000
1127169.000000
1127901.000000
1128626.000000
1129350.000000
1130069.000000
1130903.000000
1131703.000000
1132451.000000
1133233.000000
1134417.000000
1135334.000000
1136111.000000
1136913.000000
1137730.000000
1138500.000000
1139281.000000
1140105.000000
1140971.000000
1141787.000000
1142729.000000
1143713.000000
1144523.000000
1145459.000000
1146385.000000
1147198.000000
1148079.000000
1148912.000000
1149679.000000
1150499.000000
1151444.000000
1152250.000000
1153118.000000
1154230.000000
1155116.000000
1155993.000000
1156771.000000
1157517.000000
1158312.000000
1159501.000000
1160282.000000
1161073.000000
1161929.000000
1162689.000000
1163513.000000
1164774.000000
1165708.000000
1166580.000000
1167432.000000
1168224.000000
1169232.000000
1170049.000000
1170796.000000
1171545.000000
1172396.000000
1173617.000000
1174667.000000
1175730.000000
1176510.000000
1177348.000000
1178372.000000
1179159.000000
1180005.000000
1181219.000000
1182131.000000
1183061.000000
1183948.000000
1184722.000000
1185485.000000
1186275.000000
1187046.000000
1187809.000000
1188673.000000
1189560.000000
1190349.000000
1191132.000000
1192065.000000
1193075.000000
1193957.000000
1194910.000000
