ECG (ms)
314.000000
1005.000000
1686.000000
2359.000000
3046.000000
3726.000000
4424.000000
5145.000000
5887.000000
6644.000000
7379.000000
8122.000000
8856.000000
9571.000000
10278.000000
10980.000000
11671.000000
12355.000000
13039.000000
13722.000000
14410.000000
15100.000000
15796.000000
16494.000000
17187.000000
17890.000000
18592.000000
19292.000000
19999.000000
20705.000000
21413.000000
22110.000000
22818.000000
23519.000000
24215.000000
24918.000000
25616.000000
26321.000000
27029.000000
27734.000000
28454.000000
29168.000000
29888.000000
30604.000000
31315.000000
32024.000000
32730.000000
33429.000000
34127.000000
34823.000000
35519.000000
36207.000000
36904.000000
37605.000000
38301.000000
38984.000000
39682.000000
40384.000000
41090.000000
41792.000000
42493.000000
43183.000000
43870.000000
44537.000000
45210.000000
45875.000000
46538.000000
47202.000000
47859.000000
48540.000000
49219.000000
49911.000000
50611.000000
51308.000000
51999.000000
52708.000000
53415.000000
54123.000000
54826.000000
55524.000000
56208.000000
56870.000000
57527.000000
58181.000000
58838.000000
59507.000000
60186.000000
60878.000000
61590.000000
62305.000000
63020.000000
63700.000000
64397.000000
65088.000000
65787.000000
66493.000000
67201.000000
67915.000000
68625.000000
69327.000000
70031.000000
70733.000000
71425.000000
72123.000000
72820.000000
73507.000000
74204.000000
74897.000000
75591.000000
76279.000000
76965.000000
77650.000000
78334.000000
79017.000000
79699.000000
80377.000000
81053.000000
81730.000000
82437.000000
83155.000000
83900.000000
84659.000000
85400.000000
86144.000000
86891.000000
87629.000000
88356.000000
89078.000000
89784.000000
90481.000000
91172.000000
91851.000000
92534.000000
93231.000000
93926.000000
94625.000000
95375.000000
96159.000000
96958.000000
97774.000000
98590.000000
99376.000000
100140.000000
100901.000000
101654.000000
102394.000000
103133.000000
103849.000000
104559.000000
105280.000000
106006.000000
106745.000000
107500.000000
108261.000000
109003.000000
109747.000000
110484.000000
111214.000000
111934.000000
112668.000000
113411.000000
114169.000000
114915.000000
115660.000000
116400.000000
117131.000000
117861.000000
118602.000000
119346.000000
120086.000000
120836.000000
121593.000000
122351.000000
123112.000000
123853.000000
124600.000000
125343.000000
126071.000000
126810.000000
127542.000000
128281.000000
129018.000000
129763.000000
130508.000000
131245.000000
131983.000000
132710.000000
133446.000000
134177.000000
134904.000000
135632.000000
136357.000000
137086.000000
137804.000000
138534.000000
139276.000000
140022.000000
140776.000000
141521.000000
142253.000000
142993.000000
143730.000000
144462.000000
145175.000000
145895.000000
146597.000000
147300.000000
148010.000000
148727.000000
149443.000000
150159.000000
150872.000000
151584.000000
152282.000000
152970.000000
153663.000000
154363.000000
155068.000000
155776.000000
156506.000000
157238.000000
157969.000000
158693.000000
159436.000000
160186.000000
160930.000000
161674.000000
162409.000000
163152.000000
163866.000000
164593.000000
165314.000000
166037.000000
166784.000000
167528.000000
168280.000000
169043.000000
169801.000000
170549.000000
171306.000000
172055.000000
172787.000000
173517.000000
174234.000000
174941.000000
175632.000000
176331.000000
177014.000000
177694.000000
178388.000000
179077.000000
179771.000000
180471.000000
181179.000000
181881.000000
182592.000000
183299.000000
184003.000000
184704.000000
185400.000000
186079.000000
186757.000000
187431.000000
188102.000000
188778.000000
189457.000000
190140.000000
190831.000000
191530.000000
192236.000000
192949.000000
193663.000000
194362.000000
195060.000000
195748.000000
196426.000000
197106.000000
197796.000000
198492.000000
199187.000000
199881.000000
200585.000000
201282.000000
201988.000000
202696.000000
203403.000000
204110.000000
204806.000000
205489.000000
206161.000000
206833.000000
207503.000000
208179.000000
208866.000000
209561.000000
210276.000000
210990.000000
211708.000000
212413.000000
213133.000000
213869.000000
214613.000000
215347.000000
216098.000000
216854.000000
217608.000000
218353.000000
219092.000000
219813.000000
220526.000000
221247.000000
221970.000000
222685.000000
223420.000000
224168.000000
224906.000000
225652.000000
226386.000000
227108.000000
227834.000000
228553.000000
229273.000000
229996.000000
230712.000000
231430.000000
232145.000000
232862.000000
233570.000000
234286.000000
234997.000000
235710.000000
236405.000000
237113.000000
237821.000000
238527.000000
239241.000000
239973.000000
240729.000000
241478.000000
242236.000000
242992.000000
243732.000000
244476.000000
245226.000000
245970.000000
246699.000000
247434.000000
248170.000000
248890.000000
249614.000000
250327.000000
251061.000000
251819.000000
252607.000000
253380.000000
254121.000000
254866.000000
255604.000000
256331.000000
257045.000000
257774.000000
258496.000000
259219.000000
259939.000000
260653.000000
261397.000000
262151.000000
262921.000000
263677.000000
264467.000000
265255.000000
266007.000000
266745.000000
267492.000000
268222.000000
268955.000000
269696.000000
270437.000000
271181.000000
271920.000000
272648.000000
273356.000000
274067.000000
274776.000000
275488.000000
276195.000000
276899.000000
277603.000000
278301.000000
278995.000000
279683.000000
280388.000000
281119.000000
281884.000000
282693.000000
283523.000000
284352.000000
285165.000000
285956.000000
286709.000000
287476.000000
288242.000000
288999.000000
289760.000000
290523.000000
291270.000000
292003.000000
292750.000000
293472.000000
294214.000000
294953.000000
295693.000000
296431.000000
297164.000000
297898.000000
298635.000000
299358.000000
300072.000000
300781.000000
301486.000000
302183.000000
302875.000000
303569.000000
304265.000000
304970.000000
305696.000000
306443.000000
307191.000000
307967.000000
308743.000000
309525.000000
310323.000000
311139.000000
311923.000000
312699.000000
313484.000000
314251.000000
314997.000000
315743.000000
316469.000000
317226.000000
317982.000000
318737.000000
319472.000000
320227.000000
320985.000000
321750.000000
322509.000000
323243.000000
323989.000000
324727.000000
325473.000000
326207.000000
326934.000000
327666.000000
328407.000000
329149.000000
329882.000000
330636.000000
331394.000000
332150.000000
332894.000000
333641.000000
334388.000000
335133.000000
335874.000000
336611.000000
337362.000000
338108.000000
338863.000000
339606.000000
340327.000000
341026.000000
341736.000000
342455.000000
343181.000000
343902.000000
344623.000000
345371.000000
346138.000000
346914.000000
347678.000000
348451.000000
349225.000000
349980.000000
350736.000000
351493.000000
352250.000000
353006.000000
353764.000000
354508.000000
355248.000000
355995.000000
356743.000000
357493.000000
358233.000000
358978.000000
359731.000000
360483.000000
361234.000000
361995.000000
362743.000000
363463.000000
364200.000000
364933.000000
365669.000000
366409.000000
367179.000000
367943.000000
368700.000000
369445.000000
370192.000000
370942.000000
371685.000000
372426.000000
373143.000000
373874.000000
374598.000000
375322.000000
376051.000000
376759.000000
377477.000000
378209.000000
378942.000000
379684.000000
380433.000000
381179.000000
381915.000000
382636.000000
383367.000000
384094.000000
384828.000000
385564.000000
386281.000000
387018.000000
387746.000000
388460.000000
389173.000000
389901.000000
390634.000000
391366.000000
392085.000000
392800.000000
393527.000000
394255.000000
394986.000000
395712.000000
396418.000000
397121.000000
397829.000000
398535.000000
399233.000000
399946.000000
400634.000000
401338.000000
402040.000000
402774.000000
403519.000000
404261.000000
405001.000000
405745.000000
406491.000000
407221.000000
407936.000000
408651.000000
409363.000000
410071.000000
410786.000000
411505.000000
412224.000000
412938.000000
413641.000000
414339.000000
415008.000000
415687.000000
416365.000000
417053.000000
417749.000000
418448.000000
419146.000000
419849.000000
420548.000000
421243.000000
421938.000000
422632.000000
423313.000000
423987.000000
424672.000000
425362.000000
426062.000000
426771.000000
427492.000000
428212.000000
428913.000000
429613.000000
430319.000000
431021.000000
431713.000000
432396.000000
433077.000000
433756.000000
434434.000000
435117.000000
435792.000000
436479.000000
437174.000000
437899.000000
438665.000000
439470.000000
440278.000000
441057.000000
441845.000000
442597.000000
443347.000000
444094.000000
444832.000000
445567.000000
446301.000000
447037.000000
447765.000000
448481.000000
449206.000000
449929.000000
450658.000000
451395.000000
452125.000000
452859.000000
453598.000000
454345.000000
455075.000000
455815.000000
456573.000000
457343.000000
458111.000000
458877.000000
459632.000000
460383.000000
461126.000000
461865.000000
462586.000000
463324.000000
464055.000000
464780.000000
465508.000000
466254.000000
467001.000000
467749.000000
468502.000000
469261.000000
470019.000000
470779.000000
471543.000000
472286.000000
473020.000000
473751.000000
474479.000000
475192.000000
475916.000000
476647.000000
477373.000000
478096.000000
478802.000000
479508.000000
480197.000000
480885.000000
481581.000000
482281.000000
483002.000000
483735.000000
484496.000000
485303.000000
486128.000000
486937.000000
487722.000000
488512.000000
489300.000000
490051.000000
490792.000000
491543.000000
492293.000000
493026.000000
493783.000000
494538.000000
495297.000000
496051.000000
496815.000000
497562.000000
498301.000000
499055.000000
499820.000000
500577.000000
501337.000000
502088.000000
502840.000000
503601.000000
504364.000000
505113.000000
505847.000000
506601.000000
507350.000000
508107.000000
508857.000000
509601.000000
510339.000000
511064.000000
511785.000000
512492.000000
513201.000000
513913.000000
514630.000000
515358.000000
516062.000000
516790.000000
517529.000000
518277.000000
519038.000000
519793.000000
520541.000000
521280.000000
522010.000000
522732.000000
523458.000000
524184.000000
524925.000000
525672.000000
526419.000000
527171.000000
527923.000000
528671.000000
529398.000000
530137.000000
530868.000000
531596.000000
532313.000000
533033.000000
533743.000000
534469.000000
535213.000000
535979.000000
536753.000000
537528.000000
538290.000000
539037.000000
539773.000000
540495.000000
541193.000000
541904.000000
542611.000000
543333.000000
544069.000000
544803.000000
545534.000000
546061.000000
547088.000000
547879.000000
548672.000000
549428.000000
550172.000000
550916.000000
551650.000000
552379.000000
553107.000000
553857.000000
554623.000000
555375.000000
556103.000000
556835.000000
557593.000000
558329.000000
559087.000000
559845.000000
560599.000000
561336.000000
562072.000000
562807.000000
563541.000000
564274.000000
565001.000000
565714.000000
566423.000000
567137.000000
567862.000000
568609.000000
569359.000000
570121.000000
570889.000000
571657.000000
572400.000000
573153.000000
573907.000000
574653.000000
575386.000000
576129.000000
576864.000000
577599.000000
578334.000000
579064.000000
579808.000000
580548.000000
581300.000000
582059.000000
582814.000000
583555.000000
584281.000000
585020.000000
585766.000000
586488.000000
587254.000000
588031.000000
588815.000000
589596.000000
590346.000000
591100.000000
591842.000000
592569.000000
593302.000000
594028.000000
594753.000000
595465.000000
596188.000000
596911.000000
597645.000000
598384.000000
599078.000000
599801.000000
600516.000000
601243.000000
601973.000000
602714.000000
603450.000000
604181.000000
604904.000000
605617.000000
606327.000000
607028.000000
607729.000000
608429.000000
609136.000000
609831.000000
610556.000000
611257.000000
611987.000000
612733.000000
613479.000000
614214.000000
614915.000000
615635.000000
616338.000000
617036.000000
617730.000000
618420.000000
619106.000000
619784.000000
620470.000000
621151.000000
621840.000000
622544.000000
623256.000000
623991.000000
624749.000000
625479.000000
626236.000000
626997.000000
627761.000000
628513.000000
629249.000000
629979.000000
630687.000000
631404.000000
632116.000000
632831.000000
633556.000000
634259.000000
634986.000000
635703.000000
636436.000000
637174.000000
637905.000000
638622.000000
639350.000000
640087.000000
640827.000000
641544.000000
642285.000000
643018.000000
643750.000000
644472.000000
645209.000000
645959.000000
646692.000000
647427.000000
648165.000000
648879.000000
649614.000000
650349.000000
651092.000000
651824.000000
652563.000000
653312.000000
654067.000000
654824.000000
655568.000000
656316.000000
657068.000000
657811.000000
658548.000000
659292.000000
660025.000000
660781.000000
661533.000000
662285.000000
663017.000000
663758.000000
664502.000000
665243.000000
665982.000000
666712.000000
667458.000000
668210.000000
668946.000000
669706.000000
670466.000000
671233.000000
671972.000000
672715.000000
673454.000000
674183.000000
674904.000000
675638.000000
676366.000000
677105.000000
677842.000000
678564.000000
679293.000000
680022.000000
680753.000000
681487.000000
682213.000000
682939.000000
683677.000000
684431.000000
685195.000000
685944.000000
686707.000000
687473.000000
688242.000000
688986.000000
689734.000000
690474.000000
691207.000000
691917.000000
692642.000000
693375.000000
694118.000000
694866.000000
695598.000000
696324.000000
697036.000000
697742.000000
698432.000000
699107.000000
699795.000000
700468.000000
701150.000000
701850.000000
702578.000000
703346.000000
704140.000000
704967.000000
705824.000000
706714.000000
707568.000000
708381.000000
709152.000000
709916.000000
710667.000000
711404.000000
712157.000000
712909.000000
713674.000000
714445.000000
715193.000000
715956.000000
716723.000000
717470.000000
718215.000000
718981.000000
719747.000000
720490.000000
721243.000000
722000.000000
722745.000000
723496.000000
724260.000000
725022.000000
725782.000000
726539.000000
727288.000000
728046.000000
728782.000000
729510.000000
730243.000000
730975.000000
731709.000000
732446.000000
733202.000000
733963.000000
734732.000000
735491.000000
736264.000000
737037.000000
737789.000000
738528.000000
739270.000000
740016.000000
740758.000000
741480.000000
742214.000000
742958.000000
743693.000000
744415.000000
745152.000000
745885.000000
746603.000000
747337.000000
748077.000000
748824.000000
749558.000000
750302.000000
751018.000000
751749.000000
752471.000000
753192.000000
753912.000000
754631.000000
755340.000000
756044.000000
756743.000000
757427.000000
758114.000000
758801.000000
759489.000000
760188.000000
760913.000000
761684.000000
762491.000000
763308.000000
764104.000000
764879.000000
765644.000000
766408.000000
767140.000000
767877.000000
768577.000000
769283.000000
770004.000000
770713.000000
771440.000000
772176.000000
772956.000000
773757.000000
774599.000000
775412.000000
776216.000000
777025.000000
777821.000000
778593.000000
779347.000000
780108.000000
780834.000000
781571.000000
782302.000000
783044.000000
783779.000000
784512.000000
785243.000000
785975.000000
786698.000000
787411.000000
788088.000000
788783.000000
789463.000000
790144.000000
790837.000000
791554.000000
792300.000000
793092.000000
793908.000000
794704.000000
795479.000000
796231.000000
796964.000000
797687.000000
798401.000000
799099.000000
799802.000000
800513.000000
801253.000000
802025.000000
802776.000000
803552.000000
804326.000000
805114.000000
805909.000000
806703.000000
807492.000000
808253.000000
809010.000000
809761.000000
810500.000000
811230.000000
811953.000000
812667.000000
813379.000000
814087.000000
814779.000000
815470.000000
816177.000000
816904.000000
817645.000000
818415.000000
819195.000000
819977.000000
820751.000000
821517.000000
822264.000000
823006.000000
823737.000000
824438.000000
825138.000000
825844.000000
826557.000000
827277.000000
828007.000000
828744.000000
829494.000000
830243.000000
830981.000000
831714.000000
832450.000000
833180.000000
833919.000000
834671.000000
835451.000000
836244.000000
837017.000000
837774.000000
838503.000000
839245.000000
839983.000000
840715.000000
841442.000000
842160.000000
842902.000000
843663.000000
844436.000000
845200.000000
845973.000000
846756.000000
847560.000000
848359.000000
849142.000000
849902.000000
850641.000000
851369.000000
852100.000000
852795.000000
853489.000000
854190.000000
854907.000000
855631.000000
856363.000000
857106.000000
857840.000000
858566.000000
859254.000000
859957.000000
860657.000000
861356.000000
862059.000000
862759.000000
863463.000000
864166.000000
864875.000000
865595.000000
866317.000000
867051.000000
867788.000000
868515.000000
869238.000000
869961.000000
870680.000000
871406.000000
872144.000000
872872.000000
873618.000000
874352.000000
875146.000000
875958.000000
876751.000000
877529.000000
878310.000000
879077.000000
879837.000000
880594.000000
881328.000000
882054.000000
882775.000000
883503.000000
884230.000000
884980.000000
885727.000000
886496.000000
887270.000000
888034.000000
888786.000000
889522.000000
890265.000000
891008.000000
891759.000000
892477.000000
893194.000000
893928.000000
894673.000000
895454.000000
896238.000000
897015.000000
897776.000000
898514.000000
899259.000000
900000.000000
900734.000000
