ECG (ms)
829.000000
1876.000000
2957.000000
3935.000000
4904.000000
6182.000000
7251.000000
8366.000000
9490.000000
10581.000000
11660.000000
12714.000000
13720.000000
15040.000000
16211.000000
17373.000000
18565.000000
19637.000000
20743.000000
21895.000000
23022.000000
24105.000000
25228.000000
26395.000000
27493.000000
28685.000000
29833.000000
30953.000000
32102.000000
33172.000000
34253.000000
35293.000000
36272.000000
37317.000000
38645.000000
39833.000000
41049.000000
42115.000000
43183.000000
44297.000000
45379.000000
46499.000000
47648.000000
48715.000000
49836.000000
50995.000000
52064.000000
53185.000000
54292.000000
55312.000000
56381.000000
57329.000000
58162.000000
59313.000000
60260.000000
61326.000000
62424.000000
63460.000000
64551.000000
65630.000000
66696.000000
67842.000000
68984.000000
70132.000000
71273.000000
72321.000000
73411.000000
74499.000000
75536.000000
76632.000000
77664.000000
78730.000000
79719.000000
80778.000000
81846.000000
82892.000000
83912.000000
84999.000000
86091.000000
87167.000000
88298.000000
89365.000000
90452.000000
91586.000000
92644.000000
93731.000000
94829.000000
95899.000000
96906.000000
97951.000000
99085.000000
100245.000000
101328.000000
102404.000000
103433.000000
104459.000000
105563.000000
106594.000000
107683.000000
108714.000000
109791.000000
110870.000000
111897.000000
112941.000000
113968.000000
114937.000000
115943.000000
116946.000000
117950.000000
119001.000000
120094.000000
121127.000000
122192.000000
123290.000000
124337.000000
125422.000000
126470.000000
127501.000000
128586.000000
129650.000000
130736.000000
131921.000000
133053.000000
134210.000000
135352.000000
136423.000000
137514.000000
138546.000000
139595.000000
140685.000000
141777.000000
142925.000000
144080.000000
145170.000000
146233.000000
147243.000000
148196.000000
149163.000000
150207.000000
151520.000000
152561.000000
153401.000000
154214.000000
155391.000000
156339.000000
157289.000000
158370.000000
159466.000000
160541.000000
161647.000000
162690.000000
163667.000000
164664.000000
165734.000000
166776.000000
167821.000000
168885.000000
169917.000000
170897.000000
171883.000000
172932.000000
174031.000000
175156.000000
176259.000000
177369.000000
178414.000000
179424.000000
180520.000000
181631.000000
182642.000000
183717.000000
184741.000000
185771.000000
186672.000000
187478.000000
188252.000000
189139.000000
190274.000000
191318.000000
192282.000000
193270.000000
194315.000000
195392.000000
196471.000000
197535.000000
198616.000000
199645.000000
200653.000000
201687.000000
202722.000000
203773.000000
204763.000000
205741.000000
206780.000000
207874.000000
208948.000000
209990.000000
211062.000000
212070.000000
213038.000000
214050.000000
215172.000000
216331.000000
217451.000000
218566.000000
219679.000000
220727.000000
221727.000000
222739.000000
223768.000000
225108.000000
226318.000000
227393.000000
228233.000000
229053.000000
230296.000000
231447.000000
232571.000000
233622.000000
234622.000000
235621.000000
236660.000000
237944.000000
239201.000000
240448.000000
241573.000000
242704.000000
243804.000000
244848.000000
245866.000000
246901.000000
247993.000000
249193.000000
250394.000000
251539.000000
252676.000000
253746.000000
254765.000000
255829.000000
256920.000000
257940.000000
259003.000000
260066.000000
261173.000000
262223.000000
263307.000000
264286.000000
265202.000000
266205.000000
267323.000000
268428.000000
269418.000000
270525.000000
271636.000000
272801.000000
273936.000000
275127.000000
276284.000000
277406.000000
278454.000000
279566.000000
280703.000000
281762.000000
282833.000000
283985.000000
285199.000000
286364.000000
287519.000000
288649.000000
289725.000000
290824.000000
291861.000000
292866.000000
293907.000000
295054.000000
296251.000000
297387.000000
298507.000000
299568.000000
300555.000000
301549.000000
302588.000000
303638.000000
305008.000000
306198.000000
307343.000000
308463.000000
309494.000000
310582.000000
311584.000000
312661.000000
313785.000000
314935.000000
315925.000000
316784.000000
317977.000000
319053.000000
320171.000000
321266.000000
322322.000000
323396.000000
324521.000000
325637.000000
326772.000000
327898.000000
328957.000000
329954.000000
330994.000000
332089.000000
333186.000000
334247.000000
335225.000000
336255.000000
337286.000000
338321.000000
339305.000000
340265.000000
341241.000000
342192.000000
343125.000000
344047.000000
344990.000000
346027.000000
347090.000000
348130.000000
349144.000000
350105.000000
351155.000000
352187.000000
353216.000000
354286.000000
355375.000000
356449.000000
357520.000000
358540.000000
359516.000000
360451.000000
361378.000000
362334.000000
363344.000000
364636.000000
365821.000000
366966.000000
368059.000000
369131.000000
370224.000000
371303.000000
372328.000000
373305.000000
374294.000000
375375.000000
376487.000000
377672.000000
378783.000000
379744.000000
380666.000000
381615.000000
382767.000000
383700.000000
384599.000000
385753.000000
386825.000000
387921.000000
388959.000000
389971.000000
391073.000000
392200.000000
393372.000000
394497.000000
395604.000000
396657.000000
397637.000000
398629.000000
399656.000000
400993.000000
402252.000000
403396.000000
404537.000000
405629.000000
406680.000000
407700.000000
408709.000000
409792.000000
410933.000000
412115.000000
413264.000000
414412.000000
415578.000000
416641.000000
417674.000000
418778.000000
419963.000000
421131.000000
422322.000000
423509.000000
424695.000000
425881.000000
427074.000000
428248.000000
429393.000000
430427.000000
431445.000000
432531.000000
433615.000000
434717.000000
435692.000000
436496.000000
437345.000000
438186.000000
439114.000000
440362.000000
441523.000000
442695.000000
443865.000000
445027.000000
446083.000000
447082.000000
448070.000000
449091.000000
450210.000000
451375.000000
452616.000000
453811.000000
455007.000000
456157.000000
457229.000000
458246.000000
459307.000000
460403.000000
461427.000000
462454.000000
463526.000000
464877.000000
466144.000000
467281.000000
468385.000000
469434.000000
470717.000000
471965.000000
473097.000000
474151.000000
475224.000000
476561.000000
477774.000000
478984.000000
480019.000000
481037.000000
482268.000000
483417.000000
484515.000000
485531.000000
486574.000000
487705.000000
488913.000000
490071.000000
491205.000000
492260.000000
493304.000000
494369.000000
495697.000000
496913.000000
498149.000000
499305.000000
500432.000000
501482.000000
502537.000000
503803.000000
504950.000000
506111.000000
507172.000000
508275.000000
509424.000000
510560.000000
511566.000000
512529.000000
513519.000000
514591.000000
515724.000000
517058.000000
518294.000000
519347.000000
520186.000000
521048.000000
522111.000000
523123.000000
524052.000000
524942.000000
526165.000000
527429.000000
528695.000000
529922.000000
531124.000000
532185.000000
533131.000000
534347.000000
535617.000000
536830.000000
538052.000000
539117.000000
540135.000000
541177.000000
542268.000000
543476.000000
544747.000000
545988.000000
547256.000000
548469.000000
549649.000000
550781.000000
551807.000000
552726.000000
553733.000000
554984.000000
556136.000000
557241.000000
558337.000000
559371.000000
560366.000000
561375.000000
562427.000000
563536.000000
564686.000000
565834.000000
566992.000000
568078.000000
569146.000000
570201.000000
571330.000000
572463.000000
573603.000000
574693.000000
575581.000000
576415.000000
577295.000000
578300.000000
579543.000000
580788.000000
581986.000000
583133.000000
584243.000000
585342.000000
586313.000000
587279.000000
588449.000000
589682.000000
590905.000000
592095.000000
593263.000000
594354.000000
595414.000000
596474.000000
597636.000000
598831.000000
599285.000000
600434.000000
601481.000000
602544.000000
603656.000000
604780.000000
605898.000000
607004.000000
608031.000000
609024.000000
610030.000000
611088.000000
612117.000000
613070.000000
614133.000000
615193.000000
616221.000000
617233.000000
618100.000000
618899.000000
620007.000000
621074.000000
622201.000000
622801.000000
623522.000000
624211.000000
624881.000000
625530.000000
626174.000000
626839.000000
627503.000000
628180.000000
628943.000000
629638.000000
630361.000000
631066.000000
631768.000000
632464.000000
633153.000000
633861.000000
634613.000000
635472.000000
636427.000000
637407.000000
638334.000000
639267.000000
640147.000000
641046.000000
641930.000000
642886.000000
643963.000000
645042.000000
645896.000000
646645.000000
647410.000000
648191.000000
649077.000000
650304.000000
651386.000000
652513.000000
653537.000000
654652.000000
655701.000000
656699.000000
657750.000000
658681.000000
659670.000000
660707.000000
661817.000000
662940.000000
663910.000000
664861.000000
665750.000000
666622.000000
667494.000000
668296.000000
669047.000000
669804.000000
670556.000000
671292.000000
672053.000000
673193.000000
674300.000000
675432.000000
676546.000000
677571.000000
678377.000000
679125.000000
680444.000000
681683.000000
682785.000000
683640.000000
684892.000000
686026.000000
687188.000000
688379.000000
689579.000000
690745.000000
691843.000000
692863.000000
693839.000000
695078.000000
696232.000000
697411.000000
698493.000000
699489.000000
700568.000000
701678.000000
702792.000000
703870.000000
704984.000000
706135.000000
707261.000000
708313.000000
709384.000000
710514.000000
711685.000000
712860.000000
713962.000000
715111.000000
716232.000000
717349.000000
718403.000000
719533.000000
720693.000000
721787.000000
722827.000000
723836.000000
724888.000000
725929.000000
726891.000000
727892.000000
728867.000000
729857.000000
730899.000000
732151.000000
733410.000000
734573.000000
735730.000000
736837.000000
737907.000000
738843.000000
740018.000000
741193.000000
742313.000000
743481.000000
744674.000000
745839.000000
746943.000000
747964.000000
748980.000000
750359.000000
751696.000000
752913.000000
754146.000000
755335.000000
756401.000000
757491.000000
758608.000000
759751.000000
760835.000000
761870.000000
763014.000000
764187.000000
765353.000000
766551.000000
767730.000000
768881.000000
769959.000000
771067.000000
772223.000000
773340.000000
774370.000000
775397.000000
776438.000000
777563.000000
778731.000000
779895.000000
781066.000000
782225.000000
783304.000000
784323.000000
785337.000000
786378.000000
787524.000000
788760.000000
789923.000000
791089.000000
792221.000000
793287.000000
794320.000000
795366.000000
796450.000000
797583.000000
798740.000000
799927.000000
801023.000000
802062.000000
803089.000000
804111.000000
805188.000000
806365.000000
807586.000000
808751.000000
809846.000000
810874.000000
811914.000000
812990.000000
814099.000000
815263.000000
816396.000000
817454.000000
818510.000000
819639.000000
820745.000000
821867.000000
822999.000000
824040.000000
825085.000000
826193.000000
827357.000000
828511.000000
829637.000000
830769.000000
831880.000000
832917.000000
834035.000000
835143.000000
836200.000000
837264.000000
838392.000000
839523.000000
840633.000000
841740.000000
842834.000000
843903.000000
844985.000000
846065.000000
847152.000000
848161.000000
849150.000000
850143.000000
851220.000000
852320.000000
853419.000000
854491.000000
855529.000000
856367.000000
857361.000000
858452.000000
859618.000000
860832.000000
861983.000000
863031.000000
864208.000000
865331.000000
866355.000000
867439.000000
868495.000000
869494.000000
870565.000000
871744.000000
872921.000000
874100.000000
875268.000000
876315.000000
877308.000000
878395.000000
879531.000000
880700.000000
881764.000000
882855.000000
883958.000000
885056.000000
886162.000000
887269.000000
888389.000000
889433.000000
890533.000000
891646.000000
892691.000000
893705.000000
895043.000000
896256.000000
897494.000000
898683.000000
899760.000000
900901.000000
902090.000000
903167.000000
904245.000000
905378.000000
906516.000000
907581.000000
908616.000000
909750.000000
910951.000000
912154.000000
913305.000000
914455.000000
915616.000000
916666.000000
917712.000000
918822.000000
919947.000000
921265.000000
922558.000000
923706.000000
924790.000000
925856.000000
926870.000000
927905.000000
928867.000000
929735.000000
930824.000000
931792.000000
932823.000000
933956.000000
935114.000000
936293.000000
937418.000000
938518.000000
939659.000000
940802.000000
941955.000000
943153.000000
944345.000000
945457.000000
946618.000000
947790.000000
948927.000000
949981.000000
951117.000000
952262.000000
953390.000000
954518.000000
955686.000000
956832.000000
957917.000000
959056.000000
960231.000000
961293.000000
962344.000000
963396.000000
964351.000000
965176.000000
966394.000000
967469.000000
968548.000000
969671.000000
970806.000000
971911.000000
973104.000000
974306.000000
975422.000000
976578.000000
977706.000000
978813.000000
979968.000000
981101.000000
982233.000000
983357.000000
984408.000000
985528.000000
986645.000000
987697.000000
988815.000000
989962.000000
991041.000000
992074.000000
993111.000000
994170.000000
995180.000000
996251.000000
997366.000000
998413.000000
999514.000000
1000564.000000
1001445.000000
1002341.000000
1003228.000000
1004173.000000
1005449.000000
1006597.000000
1007729.000000
1008859.000000
1009981.000000
1011034.000000
1012073.000000
1013143.000000
1014217.000000
1015301.000000
1016450.000000
1017537.000000
1018565.000000
1019616.000000
1020662.000000
1021762.000000
1022906.000000
1024090.000000
1025231.000000
1026295.000000
1027314.000000
1028321.000000
1029392.000000
1030529.000000
1031664.000000
1032803.000000
1033920.000000
1034947.000000
1035962.000000
1037005.000000
1038098.000000
1039258.000000
1040493.000000
1041679.000000
1042906.000000
1044009.000000
1045034.000000
1046090.000000
1047206.000000
1048323.000000
1049443.000000
1050511.000000
1051637.000000
1052773.000000
1053829.000000
1054877.000000
1056011.000000
1057144.000000
1058260.000000
1059411.000000
1060613.000000
1061778.000000
1062942.000000
1064110.000000
1065199.000000
1066257.000000
1067317.000000
1068395.000000
1069436.000000
1070515.000000
1071608.000000
1072614.000000
1073646.000000
1074759.000000
1075891.000000
1076989.000000
1078204.000000
1079361.000000
1080474.000000
1081608.000000
1082682.000000
1083749.000000
1084823.000000
1085856.000000
1086829.000000
1087798.000000
1088865.000000
1090015.000000
1091150.000000
1092172.000000
1093209.000000
1094346.000000
1095513.000000
1096632.000000
1097571.000000
1098366.000000
1099222.000000
1100109.000000
1101045.000000
1102267.000000
1103348.000000
1104409.000000
1105498.000000
1106605.000000
1107667.000000
1108689.000000
1109689.000000
1110781.000000
1111973.000000
1113166.000000
1114317.000000
1115386.000000
1116433.000000
1117537.000000
1118677.000000
1119870.000000
1120986.000000
1122090.000000
1123251.000000
1124404.000000
1125587.000000
1126788.000000
1127964.000000
1129071.000000
1130211.000000
1131331.000000
1132476.000000
1133651.000000
1134774.000000
1135907.000000
1136994.000000
1138006.000000
1139031.000000
1140134.000000
1141241.000000
1142377.000000
1143455.000000
1144548.000000
1145654.000000
1146671.000000
1147695.000000
1148741.000000
1149804.000000
1150862.000000
1151850.000000
1153172.000000
1154283.000000
1155469.000000
1156675.000000
1157856.000000
1158983.000000
1160196.000000
1161304.000000
1162356.000000
1163486.000000
1164658.000000
1165817.000000
1166989.000000
1168153.000000
1169262.000000
1170390.000000
1171500.000000
1172616.000000
1173669.000000
1174804.000000
1176028.000000
1177150.000000
1178192.000000
1179235.000000
1180331.000000
1181431.000000
1182533.000000
1183717.000000
1184856.000000
1185927.000000
1187062.000000
1188248.000000
1189329.000000
1190380.000000
1191487.000000
1192658.000000
1193909.000000
1195076.000000
1196308.000000
1197505.000000
1198620.000000
1199792.000000
1200951.000000
1202048.000000
1203210.000000
1204364.000000
1205466.000000
1206602.000000
1207744.000000
1208836.000000
1209975.000000
1211081.000000
1212097.000000
1213116.000000
1214204.000000
1215289.000000
1216414.000000
1217612.000000
1218750.000000
1219842.000000
1220888.000000
1222017.000000
1223167.000000
1224287.000000
1225315.000000
1226369.000000
1227466.000000
1228545.000000
1229555.000000
1230558.000000
1231587.000000
1232660.000000
1233708.000000
1234605.000000
1235568.000000
1236752.000000
1237780.000000
1238815.000000
1239912.000000
1241014.000000
1242072.000000
1243165.000000
1244243.000000
1245330.000000
1246383.000000
1247420.000000
1248462.000000
1249563.000000
1250682.000000
1251767.000000
1252859.000000
1253923.000000
1254920.000000
1255955.000000
1257067.000000
1258190.000000
1259251.000000
1260342.000000
1261426.000000
1262439.000000
1263436.000000
1264506.000000
1265583.000000
1266690.000000
1267773.000000
1268872.000000
1269965.000000
1271065.000000
1272078.000000
1273088.000000
1274403.000000
1275639.000000
1276801.000000
1277982.000000
1279074.000000
1280125.000000
1281447.000000
1282711.000000
1283891.000000
1285073.000000
1286181.000000
1287215.000000
1288331.000000
1289460.000000
1290536.000000
1291638.000000
1292762.000000
1293800.000000
1294895.000000
1296030.000000
1297081.000000
1298108.000000
1299203.000000
1300351.000000
1301529.000000
1302619.000000
1303733.000000
1304861.000000
1305915.000000
1306931.000000
1307980.000000
1308914.000000
1309790.000000
1310988.000000
1311979.000000
1313021.000000
1314101.000000
1315130.000000
1316193.000000
1317280.000000
1318344.000000
1319384.000000
1320395.000000
1321457.000000
1322573.000000
1323689.000000
1324780.000000
1325860.000000
1326852.000000
1327890.000000
1329023.000000
1330143.000000
1331223.000000
1332343.000000
1333511.000000
1334617.000000
1335751.000000
1336851.000000
1337866.000000
1338904.000000
1340011.000000
1341212.000000
1342308.000000
1343459.000000
1344546.000000
1345580.000000
1346682.000000
1347732.000000
1348824.000000
1349982.000000
1351163.000000
1352245.000000
