ECG (ms)
174.000000
911.000000
1273.000000
1738.000000
2079.000000
2359.000000
2911.000000
3395.000000
3937.000000
4553.000000
5209.000000
5649.000000
6238.000000
6574.000000
6818.000000
7503.000000
7837.000000
8290.000000
8643.000000
9097.000000
9498.000000
9718.000000
10155.000000
10508.000000
10985.000000
11665.000000
12116.000000
12537.000000
13178.000000
13732.000000
14175.000000
14784.000000
15303.000000
15351.000000
15685.000000
15869.000000
16510.000000
16724.000000
17913.000000
18382.000000
19095.000000
20143.000000
20582.000000
20877.000000
21417.000000
22059.000000
22598.000000
23109.000000
23428.000000
23571.000000
24120.000000
24792.000000
24921.000000
25427.000000
26009.000000
26258.000000
26546.000000
27024.000000
27467.000000
27603.000000
28418.000000
29338.000000
29556.000000
29867.000000
30209.000000
30370.000000
30747.000000
30986.000000
31408.000000
31758.000000
32236.000000
32958.000000
33454.000000
34350.000000
34614.000000
34673.000000
35286.000000
35526.000000
35749.000000
36051.000000
36553.000000
36879.000000
37365.000000
37703.000000
38087.000000
38670.000000
38881.000000
39227.000000
39922.000000
40397.000000
40969.000000
41450.000000
41930.000000
42295.000000
42517.000000
42745.000000
43154.000000
43786.000000
43917.000000
44182.000000
44744.000000
45207.000000
45304.000000
45428.000000
45879.000000
46529.000000
46934.000000
47013.000000
47410.000000
47947.000000
48192.000000
48532.000000
48906.000000
49326.000000
49724.000000
50005.000000
50786.000000
51283.000000
51659.000000
51981.000000
52382.000000
52901.000000
53263.000000
53469.000000
53947.000000
54281.000000
54469.000000
54925.000000
55424.000000
56313.000000
56495.000000
57048.000000
57516.000000
58436.000000
58997.000000
59377.000000
59865.000000
60332.000000
60821.000000
61366.000000
61579.000000
61938.000000
62225.000000
62479.000000
63102.000000
63451.000000
64016.000000
64584.000000
65181.000000
65507.000000
66102.000000
66574.000000
66918.000000
67635.000000
68055.000000
68471.000000
69085.000000
69486.000000
69917.000000
70664.000000
71090.000000
71518.000000
71987.000000
72489.000000
72854.000000
73448.000000
74345.000000
74580.000000
74936.000000
75800.000000
76045.000000
77003.000000
77657.000000
77976.000000
78235.000000
78550.000000
79030.000000
79454.000000
80222.000000
80671.000000
81288.000000
81681.000000
82511.000000
82855.000000
83529.000000
84067.000000
84295.000000
84759.000000
85122.000000
85582.000000
86064.000000
86841.000000
87722.000000
88079.000000
88990.000000
89526.000000
90222.000000
90643.000000
91442.000000
92517.000000
92604.000000
92804.000000
93392.000000
93594.000000
94026.000000
95268.000000
95587.000000
96015.000000
96706.000000
97084.000000
97604.000000
98083.000000
98310.000000
98632.000000
98947.000000
99476.000000
99794.000000
100340.000000
100610.000000
100952.000000
101763.000000
102089.000000
102780.000000
103301.000000
103943.000000
104380.000000
105115.000000
106351.000000
106681.000000
107570.000000
108117.000000
108536.000000
109493.000000
109701.000000
110168.000000
110727.000000
111287.000000
112257.000000
113396.000000
114438.000000
114648.000000
115466.000000
115884.000000
116243.000000
116725.000000
117575.000000
118019.000000
118269.000000
118910.000000
119282.000000
120362.000000
121095.000000
121633.000000
121873.000000
122741.000000
123047.000000
123402.000000
123763.000000
124098.000000
124924.000000
125589.000000
126101.000000
126447.000000
127118.000000
127748.000000
128209.000000
129561.000000
130554.000000
131346.000000
131749.000000
132513.000000
133003.000000
134151.000000
135408.000000
136314.000000
136765.000000
137893.000000
139199.000000
139729.000000
141107.000000
141518.000000
141995.000000
142802.000000
144221.000000
145008.000000
146679.000000
148007.000000
150154.000000
151199.000000
151442.000000
152455.000000
153594.000000
153996.000000
155061.000000
157036.000000
157379.000000
158396.000000
158921.000000
159230.000000
160504.000000
161435.000000
163314.000000
163925.000000
164443.000000
164645.000000
165988.000000
166635.000000
166992.000000
167555.000000
167712.000000
168615.000000
169525.000000
170556.000000
170692.000000
170805.000000
171495.000000
172148.000000
172593.000000
173123.000000
174687.000000
175489.000000
175983.000000
176517.000000
177686.000000
178531.000000
178838.000000
179261.000000
179646.000000
179918.000000
180594.000000
181398.000000
181758.000000
182114.000000
182347.000000
182921.000000
183325.000000
183508.000000
183642.000000
184701.000000
185479.000000
185738.000000
186381.000000
186911.000000
187610.000000
188504.000000
188695.000000
189187.000000
190116.000000
191084.000000
191462.000000
191873.000000
192756.000000
193750.000000
194183.000000
194733.000000
195894.000000
197094.000000
198220.000000
199838.000000
201142.000000
202864.000000
204080.000000
204495.000000
204904.000000
205381.000000
205872.000000
207536.000000
207825.000000
208377.000000
209851.000000
210086.000000
210734.000000
211471.000000
212222.000000
213102.000000
214233.000000
215471.000000
215689.000000
217612.000000
218681.000000
219095.000000
220645.000000
221294.000000
221902.000000
222355.000000
223234.000000
224362.000000
225436.000000
226503.000000
226978.000000
228100.000000
228555.000000
228879.000000
229752.000000
230962.000000
231394.000000
231895.000000
232795.000000
233967.000000
234272.000000
235376.000000
236508.000000
236927.000000
237405.000000
237601.000000
237929.000000
239082.000000
239831.000000
240775.000000
241291.000000
241815.000000
242062.000000
243117.000000
243988.000000
244352.000000
245393.000000
245805.000000
246451.000000
246610.000000
247019.000000
247865.000000
248924.000000
249929.000000
251161.000000
252245.000000
253420.000000
253801.000000
254618.000000
256168.000000
256862.000000
257773.000000
258471.000000
259946.000000
261135.000000
261738.000000
263121.000000
263560.000000
264645.000000
265117.000000
265430.000000
265596.000000
265855.000000
266521.000000
267028.000000
267648.000000
268823.000000
269272.000000
270125.000000
270990.000000
271425.000000
271881.000000
272453.000000
272596.000000
273000.000000
274014.000000
275021.000000
275737.000000
276109.000000
276876.000000
277387.000000
278152.000000
279395.000000
280261.000000
280496.000000
281500.000000
281833.000000
282251.000000
282485.000000
283721.000000
284493.000000
284858.000000
285734.000000
285976.000000
287215.000000
287984.000000
288244.000000
288627.000000
289300.000000
289720.000000
289955.000000
290221.000000
291385.000000
292159.000000
292689.000000
293111.000000
293620.000000
293885.000000
294883.000000
295375.000000
296456.000000
297592.000000
298701.000000
299406.000000
299640.000000
300650.000000
301779.000000
302014.000000
303962.000000
304451.000000
305554.000000
306349.000000
306957.000000
307508.000000
308570.000000
309541.000000
310126.000000
310921.000000
311301.000000
311679.000000
312724.000000
313217.000000
313561.000000
313883.000000
314332.000000
314806.000000
315960.000000
316633.000000
317082.000000
317892.000000
318796.000000
319092.000000
319435.000000
319871.000000
320177.000000
320417.000000
320983.000000
321874.000000
322108.000000
322770.000000
323573.000000
324087.000000
324610.000000
325071.000000
325323.000000
325641.000000
326369.000000
326775.000000
328157.000000
328825.000000
329593.000000
330337.000000
331039.000000
331799.000000
332417.000000
333073.000000
333595.000000
334778.000000
335002.000000
335561.000000
336782.000000
338024.000000
339195.000000
339524.000000
340456.000000
341117.000000
341364.000000
342461.000000
342967.000000
343746.000000
344089.000000
345249.000000
345901.000000
346387.000000
346776.000000
347502.000000
348285.000000
348738.000000
348996.000000
349316.000000
350373.000000
350563.000000
350766.000000
350972.000000
351481.000000
351881.000000
352835.000000
353327.000000
354019.000000
354688.000000
355055.000000
356181.000000
356763.000000
357428.000000
357930.000000
358590.000000
359748.000000
360008.000000
360575.000000
360985.000000
361197.000000
361991.000000
362359.000000
362776.000000
363144.000000
363818.000000
364363.000000
364583.000000
365265.000000
366375.000000
366487.000000
367290.000000
367494.000000
368632.000000
369849.000000
370237.000000
370615.000000
371317.000000
371850.000000
372117.000000
372973.000000
374069.000000
375215.000000
375842.000000
376427.000000
377336.000000
377681.000000
378838.000000
380138.000000
381917.000000
382300.000000
383703.000000
384403.000000
384617.000000
385704.000000
385927.000000
386847.000000
388041.000000
388666.000000
389621.000000
390450.000000
390932.000000
391463.000000
391698.000000
391952.000000
393109.000000
393807.000000
394460.000000
394991.000000
396047.000000
396971.000000
397814.000000
397997.000000
398360.000000
399363.000000
399799.000000
400755.000000
401477.000000
402397.000000
402680.000000
403511.000000
403901.000000
404289.000000
404859.000000
405052.000000
405366.000000
405623.000000
405943.000000
406181.000000
406514.000000
406988.000000
407409.000000
408451.000000
408783.000000
409503.000000
410118.000000
410470.000000
410708.000000
411352.000000
411747.000000
412293.000000
412974.000000
413261.000000
413505.000000
413916.000000
414198.000000
414790.000000
415482.000000
415876.000000
416200.000000
416443.000000
416649.000000
417404.000000
417748.000000
418640.000000
419553.000000
420418.000000
420805.000000
421818.000000
423394.000000
424328.000000
425181.000000
425380.000000
426688.000000
427134.000000
427558.000000
427998.000000
428458.000000
429168.000000
429716.000000
429974.000000
431131.000000
432117.000000
432543.000000
433242.000000
433799.000000
434526.000000
435296.000000
436228.000000
437363.000000
437821.000000
438534.000000
439816.000000
440203.000000
441477.000000
441890.000000
442602.000000
442771.000000
443202.000000
444163.000000
445057.000000
445387.000000
446165.000000
446357.000000
446681.000000
447635.000000
448518.000000
448959.000000
449319.000000
449686.000000
450148.000000
450996.000000
451605.000000
453186.000000
453626.000000
453920.000000
454275.000000
454900.000000
455570.000000
456600.000000
456681.000000
457241.000000
457445.000000
458262.000000
458536.000000
459393.000000
460734.000000
461874.000000
462663.000000
464043.000000
465448.000000
465790.000000
466045.000000
466379.000000
467103.000000
467210.000000
468464.000000
468891.000000
469299.000000
469485.000000
470682.000000
471229.000000
471925.000000
472815.000000
472913.000000
473952.000000
474530.000000
474869.000000
475321.000000
475701.000000
476042.000000
476219.000000
477088.000000
477786.000000
477980.000000
478542.000000
478818.000000
479153.000000
479656.000000
479946.000000
480145.000000
480628.000000
481121.000000
481880.000000
482058.000000
483067.000000
484208.000000
484598.000000
484901.000000
485499.000000
486468.000000
486699.000000
487289.000000
487781.000000
488209.000000
488783.000000
489622.000000
490438.000000
491542.000000
492165.000000
492720.000000
493869.000000
494884.000000
495119.000000
495414.000000
495789.000000
496135.000000
496302.000000
496986.000000
497299.000000
498203.000000
499343.000000
499594.000000
499919.000000
500565.000000
501372.000000
501855.000000
502703.000000
503212.000000
503549.000000
504535.000000
504975.000000
505184.000000
505634.000000
505998.000000
507025.000000
507237.000000
507756.000000
508049.000000
508480.000000
508753.000000
509568.000000
510329.000000
511174.000000
512045.000000
513174.000000
514433.000000
514893.000000
515177.000000
515701.000000
516509.000000
517706.000000
517969.000000
519028.000000
520110.000000
521082.000000
522743.000000
523768.000000
524494.000000
524773.000000
525803.000000
526774.000000
527527.000000
528161.000000
529380.000000
530876.000000
531158.000000
532784.000000
533881.000000
534866.000000
535535.000000
535784.000000
536350.000000
536981.000000
537836.000000
538551.000000
539968.000000
540389.000000
540714.000000
541427.000000
541881.000000
542135.000000
542458.000000
543273.000000
543743.000000
544423.000000
545461.000000
545935.000000
546635.000000
547073.000000
547802.000000
548374.000000
549518.000000
550589.000000
551267.000000
552561.000000
552899.000000
554075.000000
554881.000000
555373.000000
556501.000000
557255.000000
557568.000000
558491.000000
559123.000000
560130.000000
561197.000000
561623.000000
561894.000000
563029.000000
563669.000000
564202.000000
565138.000000
566027.000000
566074.000000
566848.000000
567102.000000
567482.000000
567693.000000
568269.000000
568628.000000
569635.000000
570308.000000
570866.000000
571819.000000
572626.000000
573474.000000
574123.000000
574658.000000
574948.000000
576100.000000
577510.000000
578446.000000
579978.000000
580414.000000
580703.000000
581541.000000
581944.000000
582271.000000
582936.000000
584178.000000
585507.000000
586023.000000
586627.000000
588141.000000
588414.000000
588516.000000
589088.000000
589871.000000
590708.000000
591641.000000
591866.000000
592766.000000
593846.000000
594533.000000
595172.000000
595447.000000
595773.000000
596087.000000
596432.000000
597009.000000
597706.000000
598348.000000
598783.000000
599092.000000
599961.000000
600689.000000
600890.000000
601897.000000
602293.000000
602641.000000
603475.000000
604975.000000
606155.000000
607411.000000
609277.000000
609606.000000
611110.000000
611608.000000
613343.000000
615116.000000
615418.000000
616623.000000
617023.000000
618246.000000
619621.000000
621626.000000
623463.000000
625596.000000
626489.000000
626850.000000
627139.000000
628037.000000
629242.000000
630905.000000
632630.000000
633068.000000
633458.000000
634683.000000
635270.000000
635858.000000
636256.000000
637044.000000
637135.000000
638080.000000
638976.000000
639685.000000
639830.000000
640380.000000
640853.000000
641346.000000
642132.000000
642481.000000
643120.000000
643725.000000
644655.000000
644813.000000
645388.000000
645710.000000
646110.000000
646264.000000
647634.000000
648267.000000
648901.000000
649607.000000
650488.000000
651244.000000
652521.000000
652778.000000
653043.000000
653937.000000
654488.000000
655595.000000
655610.000000
656153.000000
656695.000000
657601.000000
658242.000000
658658.000000
659798.000000
660305.000000
661094.000000
662092.000000
662517.000000
662842.000000
663335.000000
664481.000000
664835.000000
665680.000000
667005.000000
667901.000000
668545.000000
668948.000000
669217.000000
669478.000000
670145.000000
670407.000000
670708.000000
671334.000000
671595.000000
672077.000000
672587.000000
672849.000000
673594.000000
674556.000000
674958.000000
675243.000000
675503.000000
675992.000000
676652.000000
677349.000000
677640.000000
677886.000000
678057.000000
678814.000000
679321.000000
679580.000000
680018.000000
680328.000000
681051.000000
681395.000000
681897.000000
682241.000000
682932.000000
683332.000000
683710.000000
684017.000000
685180.000000
685619.000000
686293.000000
686689.000000
687590.000000
688052.000000
688766.000000
689151.000000
689776.000000
691322.000000
692212.000000
692742.000000
693985.000000
694376.000000
695025.000000
695660.000000
696237.000000
697064.000000
697784.000000
698905.000000
699987.000000
700542.000000
701645.000000
703231.000000
704759.000000
705491.000000
705705.000000
706114.000000
706470.000000
706906.000000
707640.000000
708322.000000
708856.000000
709621.000000
710024.000000
710656.000000
710931.000000
711287.000000
712120.000000
712996.000000
713685.000000
713692.000000
714095.000000
714639.000000
715028.000000
715632.000000
715734.000000
716212.000000
716700.000000
717100.000000
718131.000000
718793.000000
719266.000000
719416.000000
719690.000000
720086.000000
720712.000000
721039.000000
721646.000000
722065.000000
722305.000000
722736.000000
723003.000000
724003.000000
724488.000000
725220.000000
726023.000000
726289.000000
726573.000000
726954.000000
727320.000000
728107.000000
728942.000000
729714.000000
730139.000000
730610.000000
731882.000000
732387.000000
732832.000000
732963.000000
733712.000000
734141.000000
735466.000000
736128.000000
736479.000000
736845.000000
737471.000000
738069.000000
738887.000000
739721.000000
739856.000000
740884.000000
741187.000000
741464.000000
742053.000000
743257.000000
743617.000000
744227.000000
744912.000000
745298.000000
745472.000000
746285.000000
746794.000000
747156.000000
747974.000000
748535.000000
748830.000000
749015.000000
749482.000000
750198.000000
750733.000000
751220.000000
751796.000000
752414.000000
752584.000000
753425.000000
753592.000000
753866.000000
754183.000000
754892.000000
755330.000000
755610.000000
756327.000000
756831.000000
757181.000000
757611.000000
758055.000000
758535.000000
759198.000000
760131.000000
760307.000000
760886.000000
761483.000000
761750.000000
762388.000000
763106.000000
764642.000000
765274.000000
765583.000000
765913.000000
766527.000000
767064.000000
767462.000000
767886.000000
768170.000000
768550.000000
768833.000000
769570.000000
770232.000000
771153.000000
771361.000000
772077.000000
772436.000000
773136.000000
773601.000000
774372.000000
775056.000000
775363.000000
775774.000000
776648.000000
777862.000000
778336.000000
779609.000000
780216.000000
780494.000000
781081.000000
781708.000000
782487.000000
783504.000000
783944.000000
784924.000000
785268.000000
786359.000000
787023.000000
787335.000000
787701.000000
788107.000000
788406.000000
789351.000000
789964.000000
790160.000000
790522.000000
791369.000000
791689.000000
792508.000000
792523.000000
793626.000000
794333.000000
794650.000000
795492.000000
795998.000000
796226.000000
796898.000000
797134.000000
798199.000000
798539.000000
798815.000000
799483.000000
799942.000000
800516.000000
800636.000000
801771.000000
802220.000000
802727.000000
803506.000000
804025.000000
804789.000000
805168.000000
805645.000000
805800.000000
806758.000000
807734.000000
807989.000000
808769.000000
809738.000000
809915.000000
810247.000000
811048.000000
811597.000000
812218.000000
813368.000000
813506.000000
814507.000000
814800.000000
815444.000000
815853.000000
816831.000000
817044.000000
817964.000000
818920.000000
819966.000000
820462.000000
820980.000000
821039.000000
821450.000000
822595.000000
823762.000000
824829.000000
825286.000000
826433.000000
827406.000000
828872.000000
829598.000000
830094.000000
830570.000000
832067.000000
832453.000000
832810.000000
833923.000000
834745.000000
835201.000000
835469.000000
836245.000000
837512.000000
837816.000000
838131.000000
838707.000000
839439.000000
839747.000000
840426.000000
840693.000000
841269.000000
842097.000000
842432.000000
842729.000000
843415.000000
844292.000000
844963.000000
845356.000000
846267.000000
847140.000000
847709.000000
848554.000000
849190.000000
849633.000000
850290.000000
851564.000000
852239.000000
853096.000000
853376.000000
854812.000000
854976.000000
855351.000000
856235.000000
857532.000000
859227.000000
859892.000000
860845.000000
861431.000000
861718.000000
862169.000000
862995.000000
863230.000000
863575.000000
864621.000000
865066.000000
865303.000000
866089.000000
866794.000000
867909.000000
869004.000000
869314.000000
870509.000000
870818.000000
871452.000000
872028.000000
872676.000000
873174.000000
873966.000000
874489.000000
874870.000000
875045.000000
875571.000000
876644.000000
877471.000000
878313.000000
878597.000000
879123.000000
879395.000000
880545.000000
881037.000000
881747.000000
882424.000000
882768.000000
883035.000000
883941.000000
885541.000000
886070.000000
886728.000000
887097.000000
887281.000000
887624.000000
887895.000000
888222.000000
888226.000000
888910.000000
889389.000000
889661.000000
890194.000000
890792.000000
891657.000000
892574.000000
892929.000000
893733.000000
893983.000000
894714.000000
896241.000000
896921.000000
897194.000000
897328.000000
897983.000000
898344.000000
899046.000000
900885.000000
901234.000000
902378.000000
903367.000000
903673.000000
905361.000000
905602.000000
905901.000000
907080.000000
907408.000000
908009.000000
908831.000000
909087.000000
909899.000000
910126.000000
910514.000000
