ECG (ms)
475.000000
1120.000000
1778.000000
2452.000000
3104.000000
3742.000000
4413.000000
5121.000000
5841.000000
6540.000000
7212.000000
7886.000000
8571.000000
9226.000000
9855.000000
10498.000000
11170.000000
11852.000000
12496.000000
13111.000000
13736.000000
14404.000000
15014.000000
15615.000000
16225.000000
16851.000000
17509.000000
18215.000000
18961.000000
19670.000000
20358.000000
21026.000000
21687.000000
22361.000000
23031.000000
23688.000000
24347.000000
25060.000000
25791.000000
26491.000000
27195.000000
27906.000000
28632.000000
29322.000000
29986.000000
30646.000000
31323.000000
32008.000000
32680.000000
33326.000000
33997.000000
34706.000000
35442.000000
36143.000000
36806.000000
37473.000000
38186.000000
38992.000000
39700.000000
40360.000000
41076.000000
41807.000000
42521.000000
43188.000000
43852.000000
44510.000000
45186.000000
45846.000000
46468.000000
47084.000000
47711.000000
48371.000000
49072.000000
49746.000000
50397.000000
51093.000000
51837.000000
52557.000000
53215.000000
53848.000000
54493.000000
55171.000000
55834.000000
56467.000000
57099.000000
57746.000000
58398.000000
59062.000000
59701.000000
60315.000000
60915.000000
61520.000000
62139.000000
62789.000000
63448.000000
64092.000000
64721.000000
65328.000000
65925.000000
66515.000000
67100.000000
67696.000000
68302.000000
68950.000000
69614.000000
70258.000000
70935.000000
71677.000000
72389.000000
73076.000000
73746.000000
74411.000000
75057.000000
75694.000000
76340.000000
76989.000000
77623.000000
78255.000000
78910.000000
79538.000000
80160.000000
80793.000000
81435.000000
82069.000000
82683.000000
83324.000000
84019.000000
84775.000000
85504.000000
86195.000000
86866.000000
87523.000000
88167.000000
88820.000000
89483.000000
90161.000000
90824.000000
91454.000000
92085.000000
92700.000000
93291.000000
93884.000000
94521.000000
95177.000000
95818.000000
96471.000000
97147.000000
97848.000000
98512.000000
99166.000000
99815.000000
100456.000000
101104.000000
101751.000000
102422.000000
103075.000000
103721.000000
104375.000000
105079.000000
105776.000000
106471.000000
107131.000000
107786.000000
108420.000000
109040.000000
109657.000000
110279.000000
110924.000000
111564.000000
112194.000000
112838.000000
113454.000000
114066.000000
114671.000000
115276.000000
115879.000000
116498.000000
117141.000000
117826.000000
118478.000000
119140.000000
119802.000000
120478.000000
121127.000000
121774.000000
122435.000000
123130.000000
123812.000000
124463.000000
125121.000000
125811.000000
126514.000000
127173.000000
127820.000000
128475.000000
129127.000000
129773.000000
130417.000000
131052.000000
131674.000000
132299.000000
132925.000000
133564.000000
134200.000000
134828.000000
135486.000000
136166.000000
136812.000000
137450.000000
138098.000000
138739.000000
139369.000000
139978.000000
140579.000000
141173.000000
141764.000000
142355.000000
142953.000000
143574.000000
144216.000000
144858.000000
145497.000000
146138.000000
146774.000000
147407.000000
148043.000000
148676.000000
149305.000000
149918.000000
150527.000000
151124.000000
151722.000000
152324.000000
152923.000000
153525.000000
154144.000000
154783.000000
155432.000000
156132.000000
156792.000000
157457.000000
158135.000000
158826.000000
159494.000000
160130.000000
160757.000000
161372.000000
161975.000000
162589.000000
163228.000000
163873.000000
164498.000000
165127.000000
165778.000000
166469.000000
167121.000000
167758.000000
168403.000000
169057.000000
169695.000000
170320.000000
170951.000000
171579.000000
172194.000000
172792.000000
173382.000000
173966.000000
174546.000000
175139.000000
175716.000000
176296.000000
176892.000000
177541.000000
178213.000000
178883.000000
179519.000000
180161.000000
180829.000000
181519.000000
182188.000000
182835.000000
183475.000000
184141.000000
184816.000000
185462.000000
186084.000000
186715.000000
187374.000000
188071.000000
188744.000000
189391.000000
190060.000000
190745.000000
191448.000000
192129.000000
192777.000000
193428.000000
194102.000000
194826.000000
195528.000000
196230.000000
196975.000000
197769.000000
198523.000000
199208.000000
199878.000000
200537.000000
201196.000000
201834.000000
202478.000000
203137.000000
203838.000000
204517.000000
205194.000000
205875.000000
206553.000000
207216.000000
207892.000000
208590.000000
209251.000000
209895.000000
210539.000000
211179.000000
211815.000000
212445.000000
213080.000000
213722.000000
214350.000000
214970.000000
215605.000000
216304.000000
217035.000000
217743.000000
218397.000000
219066.000000
219735.000000
220426.000000
221098.000000
221760.000000
222439.000000
223129.000000
223828.000000
224492.000000
225130.000000
225767.000000
226436.000000
227160.000000
227888.000000
228576.000000
229224.000000
229881.000000
230575.000000
231279.000000
231965.000000
232608.000000
233256.000000
233911.000000
234595.000000
235259.000000
235901.000000
236552.000000
237211.000000
237873.000000
238500.000000
239121.000000
239748.000000
240383.000000
241009.000000
241628.000000
242272.000000
242953.000000
243666.000000
244341.000000
244971.000000
245615.000000
246273.000000
246945.000000
247598.000000
248227.000000
248869.000000
249514.000000
250146.000000
250763.000000
251368.000000
251970.000000
252584.000000
253234.000000
253869.000000
254486.000000
255123.000000
255781.000000
256451.000000
257092.000000
257715.000000
258364.000000
259020.000000
259690.000000
260336.000000
260966.000000
261614.000000
262285.000000
262992.000000
263658.000000
264287.000000
264921.000000
265567.000000
266229.000000
266872.000000
267512.000000
268166.000000
268856.000000
269544.000000
270184.000000
270823.000000
271469.000000
272135.000000
272795.000000
273458.000000
274123.000000
274775.000000
275415.000000
276056.000000
276703.000000
277335.000000
277955.000000
278559.000000
279144.000000
279720.000000
280290.000000
280863.000000
281452.000000
282059.000000
282686.000000
283292.000000
283900.000000
284525.000000
285171.000000
285822.000000
286445.000000
287073.000000
287711.000000
288358.000000
288983.000000
289601.000000
290226.000000
290861.000000
291512.000000
292153.000000
292778.000000
293423.000000
294096.000000
294802.000000
295482.000000
296147.000000
296845.000000
297562.000000
298268.000000
298943.000000
299596.000000
300263.000000
300951.000000
301616.000000
302245.000000
302872.000000
303514.000000
304199.000000
304894.000000
305551.000000
306203.000000
306871.000000
307569.000000
308285.000000
308962.000000
309641.000000
310324.000000
311021.000000
311732.000000
312402.000000
313051.000000
313699.000000
314339.000000
314984.000000
315332.000000
316296.000000
316986.000000
317706.000000
318391.000000
319047.000000
319710.000000
320400.000000
321098.000000
321756.000000
322397.000000
323046.000000
323699.000000
324350.000000
324990.000000
325632.000000
326284.000000
326941.000000
327584.000000
328213.000000
328835.000000
329464.000000
330095.000000
330710.000000
331328.000000
331947.000000
332601.000000
333283.000000
333950.000000
334627.000000
335324.000000
336045.000000
336724.000000
337395.000000
338087.000000
338781.000000
339441.000000
340090.000000
340757.000000
341448.000000
342145.000000
342812.000000
343474.000000
344131.000000
344807.000000
345477.000000
346159.000000
346862.000000
347564.000000
348254.000000
348922.000000
349601.000000
350280.000000
350996.000000
351686.000000
352347.000000
353010.000000
353682.000000
354351.000000
354996.000000
355629.000000
356269.000000
356971.000000
357756.000000
358487.000000
359160.000000
359834.000000
360507.000000
361196.000000
361862.000000
362499.000000
363160.000000
363849.000000
364555.000000
365235.000000
365905.000000
366608.000000
367318.000000
368002.000000
368650.000000
369279.000000
369919.000000
370579.000000
371335.000000
372036.000000
372697.000000
373364.000000
374029.000000
374696.000000
375326.000000
375936.000000
376560.000000
377224.000000
377901.000000
378545.000000
379191.000000
379870.000000
380613.000000
381365.000000
382078.000000
382755.000000
383398.000000
384048.000000
384733.000000
385421.000000
386104.000000
386767.000000
387441.000000
388131.000000
388877.000000
389610.000000
390283.000000
390973.000000
391690.000000
392414.000000
393135.000000
393795.000000
394464.000000
395154.000000
395864.000000
396558.000000
397216.000000
397869.000000
398529.000000
399216.000000
399891.000000
400539.000000
401179.000000
401841.000000
402534.000000
403234.000000
403908.000000
404572.000000
405273.000000
406003.000000
406712.000000
407377.000000
408047.000000
408735.000000
409476.000000
410181.000000
410851.000000
411527.000000
412229.000000
412960.000000
413665.000000
414334.000000
414994.000000
415679.000000
416379.000000
417066.000000
417712.000000
418353.000000
419013.000000
419704.000000
420380.000000
421031.000000
421707.000000
422427.000000
423155.000000
423847.000000
424507.000000
425179.000000
425867.000000
426559.000000
427228.000000
427871.000000
428512.000000
429178.000000
429892.000000
430605.000000
431279.000000
431946.000000
432616.000000
433310.000000
434027.000000
434694.000000
435342.000000
436012.000000
436712.000000
437405.000000
438072.000000
438728.000000
439414.000000
440159.000000
440935.000000
441669.000000
442389.000000
443115.000000
443862.000000
444571.000000
445237.000000
445885.000000
446546.000000
447236.000000
447966.000000
448648.000000
449299.000000
450000.000000
450732.000000
451476.000000
452166.000000
452828.000000
453491.000000
454171.000000
454856.000000
455502.000000
456190.000000
456932.000000
457718.000000
458439.000000
459145.000000
459843.000000
460558.000000
461254.000000
461931.000000
462619.000000
463335.000000
464092.000000
464814.000000
465538.000000
466273.000000
466987.000000
467669.000000
468371.000000
469099.000000
469842.000000
470546.000000
471248.000000
471954.000000
472692.000000
473399.000000
474062.000000
474732.000000
475406.000000
476116.000000
476829.000000
477504.000000
478206.000000
478877.000000
479568.000000
480262.000000
480946.000000
481597.000000
482255.000000
482933.000000
483640.000000
484312.000000
484968.000000
485650.000000
486371.000000
487086.000000
487743.000000
488383.000000
489043.000000
489717.000000
490376.000000
491015.000000
491677.000000
492390.000000
493130.000000
493805.000000
494457.000000
495179.000000
495943.000000
496662.000000
497326.000000
497997.000000
498673.000000
499374.000000
500041.000000
500695.000000
501374.000000
502106.000000
502831.000000
503527.000000
504239.000000
504970.000000
505662.000000
506313.000000
506960.000000
507632.000000
508354.000000
509052.000000
509713.000000
510387.000000
511103.000000
511805.000000
512475.000000
513124.000000
513806.000000
514546.000000
515293.000000
515999.000000
516683.000000
517406.000000
518112.000000
518809.000000
519482.000000
520154.000000
520820.000000
521496.000000
522170.000000
522850.000000
523571.000000
524293.000000
524989.000000
525660.000000
526332.000000
527019.000000
527698.000000
528352.000000
529000.000000
529671.000000
530408.000000
531113.000000
531825.000000
532536.000000
533256.000000
533940.000000
534602.000000
535285.000000
535987.000000
536690.000000
537373.000000
538023.000000
538697.000000
539429.000000
540198.000000
540909.000000
541589.000000
542299.000000
543046.000000
543774.000000
544445.000000
545115.000000
545748.000000
546373.000000
546984.000000
547585.000000
548196.000000
548845.000000
549493.000000
550127.000000
550779.000000
551446.000000
552095.000000
552723.000000
553365.000000
554045.000000
554737.000000
555422.000000
556092.000000
556752.000000
557423.000000
558109.000000
558823.000000
559493.000000
560143.000000
560786.000000
561455.000000
562125.000000
562831.000000
563565.000000
564309.000000
565025.000000
565748.000000
566481.000000
567265.000000
567979.000000
568666.000000
569378.000000
570133.000000
570880.000000
571568.000000
572245.000000
572965.000000
573755.000000
574504.000000
575199.000000
575885.000000
576576.000000
577252.000000
577923.000000
578578.000000
579243.000000
579893.000000
580551.000000
581225.000000
581927.000000
582620.000000
583301.000000
583938.000000
584579.000000
585223.000000
585901.000000
586611.000000
587319.000000
587998.000000
588640.000000
589289.000000
589962.000000
590633.000000
591315.000000
592041.000000
592784.000000
593461.000000
594139.000000
594836.000000
595520.000000
596209.000000
596879.000000
597535.000000
598210.000000
598921.000000
599623.000000
600295.000000
601015.000000
601810.000000
602657.000000
603400.000000
604078.000000
604767.000000
605467.000000
606173.000000
606844.000000
607521.000000
608239.000000
609021.000000
609754.000000
610457.000000
611175.000000
611888.000000
612545.000000
613189.000000
613849.000000
614570.000000
615274.000000
615949.000000
616666.000000
617414.000000
618147.000000
618837.000000
619543.000000
620268.000000
621004.000000
621698.000000
622370.000000
623054.000000
623761.000000
624467.000000
625127.000000
625791.000000
626482.000000
627218.000000
627945.000000
628635.000000
629348.000000
630084.000000
630772.000000
631423.000000
632101.000000
632801.000000
633529.000000
634224.000000
634888.000000
635577.000000
636300.000000
637028.000000
637721.000000
638396.000000
639061.000000
639728.000000
640385.000000
641035.000000
641691.000000
642357.000000
643010.000000
643651.000000
644269.000000
644898.000000
645541.000000
646213.000000
646886.000000
647551.000000
648241.000000
648972.000000
649671.000000
650373.000000
651069.000000
651759.000000
652422.000000
653085.000000
653755.000000
654432.000000
655092.000000
655761.000000
656482.000000
657175.000000
657828.000000
658493.000000
659189.000000
659896.000000
660579.000000
661258.000000
661957.000000
662657.000000
663380.000000
664089.000000
664753.000000
665437.000000
666126.000000
666791.000000
667460.000000
668120.000000
668765.000000
669440.000000
670140.000000
670877.000000
671590.000000
672285.000000
672995.000000
673686.000000
674363.000000
675009.000000
675639.000000
676258.000000
676867.000000
677459.000000
678057.000000
678674.000000
679297.000000
679922.000000
680583.000000
681307.000000
682019.000000
682674.000000
683321.000000
683986.000000
684688.000000
685418.000000
686087.000000
686757.000000
687443.000000
688149.000000
688817.000000
689462.000000
690129.000000
690832.000000
691556.000000
692251.000000
692979.000000
693739.000000
694508.000000
695222.000000
695907.000000
696591.000000
697278.000000
697941.000000
698593.000000
699304.000000
700036.000000
700742.000000
701400.000000
702053.000000
702758.000000
703525.000000
704285.000000
704967.000000
705609.000000
706243.000000
706909.000000
707606.000000
708326.000000
709020.000000
709681.000000
710358.000000
711082.000000
711847.000000
712548.000000
713237.000000
713997.000000
714826.000000
715632.000000
716382.000000
717076.000000
717751.000000
718441.000000
719138.000000
719807.000000
720450.000000
721066.000000
721682.000000
722433.000000
723302.000000
724150.000000
725023.000000
725886.000000
726650.000000
727371.000000
728118.000000
728899.000000
729663.000000
730407.000000
731117.000000
731840.000000
732609.000000
733424.000000
734245.000000
734980.000000
735680.000000
736471.000000
737315.000000
738166.000000
738966.000000
739683.000000
740379.000000
741149.000000
741967.000000
742798.000000
743584.000000
744318.000000
745100.000000
745907.000000
746680.000000
747411.000000
748111.000000
748800.000000
749525.000000
750302.000000
751100.000000
751833.000000
752527.000000
753275.000000
754094.000000
754931.000000
755745.000000
756481.000000
757174.000000
757874.000000
758597.000000
759351.000000
760137.000000
760893.000000
761583.000000
762289.000000
763031.000000
763772.000000
764471.000000
765127.000000
765787.000000
766480.000000
767202.000000
767896.000000
768562.000000
769224.000000
769912.000000
770596.000000
771237.000000
771875.000000
772518.000000
773179.000000
773864.000000
774538.000000
775178.000000
775878.000000
776691.000000
777497.000000
778248.000000
778921.000000
779618.000000
780394.000000
781178.000000
781968.000000
782678.000000
783356.000000
784044.000000
784764.000000
785520.000000
786243.000000
786925.000000
787591.000000
788290.000000
789082.000000
789876.000000
790614.000000
791292.000000
791957.000000
792660.000000
793379.000000
794116.000000
794816.000000
795501.000000
796195.000000
796931.000000
797679.000000
798403.000000
799140.000000
799899.000000
800619.000000
801324.000000
801991.000000
802641.000000
803303.000000
803985.000000
804691.000000
805374.000000
806021.000000
806695.000000
807536.000000
808276.000000
809017.000000
809678.000000
810329.000000
810998.000000
811672.000000
812360.000000
813011.000000
813664.000000
814340.000000
815064.000000
815780.000000
816444.000000
817092.000000
817774.000000
818505.000000
819248.000000
819954.000000
820617.000000
821303.000000
822038.000000
822844.000000
823680.000000
824402.000000
825064.000000
825743.000000
826463.000000
827206.000000
827914.000000
828578.000000
829224.000000
829895.000000
830621.000000
831325.000000
831987.000000
832660.000000
833322.000000
833940.000000
834564.000000
835235.000000
835887.000000
836550.000000
837260.000000
837996.000000
838756.000000
839481.000000
840147.000000
840813.000000
841481.000000
842163.000000
842866.000000
843549.000000
844214.000000
844907.000000
845636.000000
846339.000000
847008.000000
847674.000000
848356.000000
849080.000000
849807.000000
850498.000000
851233.000000
851992.000000
852700.000000
853371.000000
854033.000000
854688.000000
855345.000000
855967.000000
856589.000000
857221.000000
857873.000000
858555.000000
859218.000000
859909.000000
860601.000000
861286.000000
861960.000000
862639.000000
863294.000000
863925.000000
864547.000000
865189.000000
865850.000000
866555.000000
867238.000000
867928.000000
868613.000000
869344.000000
870085.000000
870767.000000
871453.000000
872139.000000
872835.000000
873524.000000
874189.000000
874862.000000
875564.000000
876275.000000
876957.000000
877635.000000
878313.000000
879018.000000
879721.000000
880399.000000
881061.000000
881749.000000
882481.000000
883221.000000
883924.000000
884592.000000
885257.000000
885949.000000
886679.000000
887424.000000
888098.000000
888739.000000
889391.000000
890064.000000
890764.000000
891462.000000
892125.000000
892819.000000
893573.000000
894325.000000
895015.000000
895723.000000
896438.000000
897170.000000
897864.000000
898539.000000
899227.000000
899987.000000
900747.000000
901418.000000
902093.000000
902769.000000
903453.000000
904125.000000
904790.000000
905472.000000
906214.000000
906960.000000
907639.000000
908295.000000
908957.000000
909643.000000
910380.000000
911074.000000
911740.000000
912416.000000
913122.000000
913850.000000
914537.000000
915219.000000
915945.000000
916710.000000
917426.000000
918140.000000
918867.000000
919599.000000
920300.000000
920991.000000
921686.000000
922435.000000
923156.000000
923831.000000
924494.000000
925173.000000
925897.000000
926592.000000
927260.000000
927933.000000
928637.000000
929381.000000
930085.000000
930750.000000
931418.000000
932093.000000
932761.000000
933405.000000
934045.000000
934706.000000
935412.000000
936107.000000
936769.000000
937440.000000
938149.000000
938867.000000
939554.000000
940204.000000
940880.000000
941579.000000
942279.000000
942933.000000
943574.000000
944224.000000
944890.000000
945593.000000
946280.000000
946937.000000
947603.000000
948286.000000
948975.000000
949660.000000
950312.000000
950950.000000
951605.000000
952318.000000
953116.000000
953835.000000
954501.000000
955187.000000
955913.000000
956629.000000
957319.000000
957979.000000
958645.000000
959337.000000
960076.000000
960808.000000
961491.000000
962172.000000
962871.000000
963535.000000
964203.000000
964863.000000
965544.000000
966208.000000
966842.000000
967479.000000
968133.000000
968799.000000
969455.000000
970116.000000
970791.000000
971465.000000
972127.000000
972779.000000
973411.000000
974021.000000
974619.000000
975212.000000
975807.000000
976445.000000
977062.000000
977693.000000
978375.000000
979072.000000
979728.000000
980366.000000
981014.000000
981657.000000
982313.000000
982953.000000
983580.000000
984224.000000
984893.000000
985567.000000
986194.000000
986800.000000
987394.000000
988001.000000
988650.000000
989325.000000
989950.000000
990545.000000
991144.000000
991768.000000
992429.000000
993068.000000
993719.000000
994371.000000
995032.000000
995683.000000
996311.000000
996923.000000
997543.000000
998178.000000
998861.000000
999577.000000
1000260.000000
1000907.000000
1001561.000000
1002241.000000
1002944.000000
1003631.000000
1004299.000000
1004959.000000
1005586.000000
1006209.000000
1006844.000000
1007498.000000
1008145.000000
1008791.000000
1009430.000000
1010057.000000
1010671.000000
1011274.000000
1011872.000000
1012468.000000
1013071.000000
1013712.000000
1014365.000000
1015012.000000
1015713.000000
1016552.000000
1017331.000000
1018048.000000
1018740.000000
1019413.000000
1020068.000000
1020695.000000
1021322.000000
1021951.000000
1022595.000000
1023261.000000
1023937.000000
1024606.000000
1025250.000000
1025886.000000
1026522.000000
1027143.000000
1027755.000000
1028384.000000
1029031.000000
1029678.000000
1030356.000000
1031102.000000
1031853.000000
1032533.000000
1033196.000000
1033869.000000
1034554.000000
1035255.000000
1035917.000000
1036568.000000
1037234.000000
1037925.000000
1038650.000000
1039324.000000
1039975.000000
1040659.000000
1041390.000000
1042067.000000
1042724.000000
1043388.000000
1044071.000000
1044745.000000
1045389.000000
1046010.000000
1046631.000000
1047275.000000
1047958.000000
1048675.000000
1049400.000000
1050105.000000
1050789.000000
1051449.000000
1052080.000000
1052702.000000
1053333.000000
1053976.000000
1054629.000000
1055255.000000
1055873.000000
1056522.000000
1057238.000000
1057980.000000
1058704.000000
1059406.000000
1060070.000000
1060717.000000
1061353.000000
1061994.000000
1062654.000000
1063310.000000
1063972.000000
1064618.000000
1065241.000000
1065868.000000
1066537.000000
1067255.000000
1068027.000000
1068748.000000
1069420.000000
1070091.000000
1070766.000000
1071454.000000
1072114.000000
1072760.000000
1073387.000000
1074014.000000
1074654.000000
1075281.000000
1075891.000000
1076509.000000
1077169.000000
1077896.000000
1078603.000000
1079313.000000
1079999.000000
1080652.000000
1081311.000000
1081979.000000
1082647.000000
1083311.000000
1083968.000000
1084601.000000
1085212.000000
1085814.000000
1086410.000000
1087020.000000
1087666.000000
1088274.000000
1088906.000000
1089583.000000
1090266.000000
1090965.000000
1091653.000000
1092336.000000
1093002.000000
1093663.000000
1094309.000000
1094955.000000
1095621.000000
1096254.000000
1096869.000000
1097485.000000
1098140.000000
1098876.000000
1099608.000000
1100271.000000
1100966.000000
1101689.000000
1102443.000000
1103137.000000
1103787.000000
1104430.000000
1105073.000000
1105734.000000
1106396.000000
1107036.000000
1107651.000000
1108271.000000
1108922.000000
1109621.000000
1110302.000000
1110957.000000
1111637.000000
1112358.000000
1113145.000000
1113858.000000
1114521.000000
1115205.000000
1115876.000000
1116545.000000
1117183.000000
1117815.000000
1118451.000000
1119103.000000
1119770.000000
1120422.000000
1121093.000000
1121813.000000
1122568.000000
1123266.000000
1123974.000000
1124707.000000
1125462.000000
1126230.000000
1126930.000000
1127596.000000
1128240.000000
1128874.000000
1129488.000000
1130089.000000
1130701.000000
1131358.000000
1132054.000000
1132755.000000
1133449.000000
1134115.000000
1134769.000000
1135423.000000
1136093.000000
1136757.000000
1137395.000000
1138014.000000
1138623.000000
1139234.000000
1139862.000000
1140507.000000
1141169.000000
1141804.000000
1142434.000000
1143088.000000
1143755.000000
1144435.000000
1145107.000000
1145753.000000
1146405.000000
1147078.000000
1147746.000000
1148393.000000
1149022.000000
1149639.000000
1150247.000000
1150859.000000
1151496.000000
1152164.000000
1152790.000000
1153424.000000
1154099.000000
1154769.000000
1155464.000000
1156144.000000
1156815.000000
1157483.000000
1158147.000000
1158813.000000
1159450.000000
1160079.000000
1160704.000000
1161337.000000
1161970.000000
1162595.000000
1163219.000000
1163866.000000
1164559.000000
1165219.000000
1165871.000000
1166543.000000
1167288.000000
1168003.000000
1168705.000000
1169390.000000
1170070.000000
1170757.000000
1171434.000000
1172088.000000
1172745.000000
1173435.000000
1174142.000000
1174820.000000
1175487.000000
1176153.000000
1176836.000000
1177520.000000
1178200.000000
1178864.000000
1179504.000000
1180119.000000
1180725.000000
1181324.000000
1181949.000000
1182597.000000
1183259.000000
1183919.000000
1184624.000000
1185325.000000
1186021.000000
1186684.000000
1187317.000000
1187949.000000
1188589.000000
1189226.000000
1189859.000000
1190497.000000
1191128.000000
1191746.000000
1192354.000000
1192969.000000
1193612.000000
1194267.000000
1194932.000000
1195590.000000
1196230.000000
1196852.000000
1197475.000000
1198126.000000
1198782.000000
1199420.000000
1200045.000000
1200669.000000
1201312.000000
1201945.000000
1202580.000000
1203281.000000
1204017.000000
1204733.000000
1205441.000000
1206151.000000
1206833.000000
1207502.000000
1208153.000000
1208799.000000
1209437.000000
1210093.000000
1210733.000000
1211356.000000
1211999.000000
1212678.000000
1213458.000000
