ECG (ms)
399.000000
1391.000000
2394.000000
3393.000000
4374.000000
5349.000000
6346.000000
7360.000000
8343.000000
9326.000000
10320.000000
11310.000000
12279.000000
13259.000000
14254.000000
15219.000000
16169.000000
17141.000000
18114.000000
19075.000000
20028.000000
21000.000000
21983.000000
22950.000000
23909.000000
24891.000000
25880.000000
26851.000000
27810.000000
28793.000000
29797.000000
30771.000000
31734.000000
32721.000000
33717.000000
34685.000000
35671.000000
36670.000000
37641.000000
38598.000000
39578.000000
40568.000000
41548.000000
42512.000000
43510.000000
44522.000000
45524.000000
46514.000000
47535.000000
48552.000000
49546.000000
50531.000000
51552.000000
52576.000000
53578.000000
54575.000000
55606.000000
56625.000000
57619.000000
58626.000000
59653.000000
60655.000000
61651.000000
62660.000000
63665.000000
64657.000000
65680.000000
66701.000000
67689.000000
68675.000000
69692.000000
70716.000000
71716.000000
72727.000000
73755.000000
74759.000000
75749.000000
76748.000000
77758.000000
78737.000000
79708.000000
80703.000000
81715.000000
82700.000000
83672.000000
84667.000000
85680.000000
86664.000000
87639.000000
88642.000000
89662.000000
90658.000000
91642.000000
92646.000000
93665.000000
94680.000000
95683.000000
96694.000000
97722.000000
98739.000000
99732.000000
100727.000000
101734.000000
102739.000000
103729.000000
104730.000000
105749.000000
106757.000000
107754.000000
108767.000000
109782.000000
110765.000000
111749.000000
112758.000000
113780.000000
114768.000000
115748.000000
116752.000000
117752.000000
118733.000000
119721.000000
120710.000000
121683.000000
122644.000000
123619.000000
124607.000000
125576.000000
126534.000000
127523.000000
128518.000000
129490.000000
130451.000000
131432.000000
132437.000000
133404.000000
134376.000000
135365.000000
136359.000000
137326.000000
138310.000000
139313.000000
140298.000000
141270.000000
142263.000000
143267.000000
144250.000000
145219.000000
146222.000000
147228.000000
148212.000000
149181.000000
150177.000000
151184.000000
152173.000000
153151.000000
154159.000000
155164.000000
156142.000000
157108.000000
158105.000000
159112.000000
160090.000000
161072.000000
162080.000000
163061.000000
164025.000000
165016.000000
165984.000000
166958.000000
167940.000000
168923.000000
169881.000000
170865.000000
171862.000000
172835.000000
173790.000000
174767.000000
175761.000000
176728.000000
177707.000000
178710.000000
179684.000000
180650.000000
181639.000000
182638.000000
183601.000000
184560.000000
185547.000000
186537.000000
187508.000000
188492.000000
189491.000000
190475.000000
191443.000000
192427.000000
193417.000000
194394.000000
195358.000000
196345.000000
197341.000000
198306.000000
199267.000000
200257.000000
201246.000000
202216.000000
203186.000000
204175.000000
205159.000000
206118.000000
207096.000000
208080.000000
209035.000000
209988.000000
210960.000000
211946.000000
212909.000000
213870.000000
214855.000000
215846.000000
216817.000000
217778.000000
218756.000000
219739.000000
220710.000000
221662.000000
222593.000000
223559.000000
224532.000000
225489.000000
226414.000000
227357.000000
228283.000000
229190.000000
230083.000000
230958.000000
231816.000000
232709.000000
233610.000000
234496.000000
235394.000000
236310.000000
237228.000000
238125.000000
239049.000000
239988.000000
240906.000000
241838.000000
242783.000000
243710.000000
244617.000000
245563.000000
246502.000000
247424.000000
248359.000000
249301.000000
250218.000000
251139.000000
252076.000000
253012.000000
253928.000000
254870.000000
255815.000000
256746.000000
257687.000000
258647.000000
259583.000000
260509.000000
261463.000000
262405.000000
263332.000000
264279.000000
265242.000000
266189.000000
267131.000000
268093.000000
269038.000000
269979.000000
270931.000000
271868.000000
272791.000000
273744.000000
274704.000000
275651.000000
276583.000000
277554.000000
278537.000000
279489.000000
280456.000000
281444.000000
282404.000000
283348.000000
284326.000000
285303.000000
286257.000000
287213.000000
288186.000000
289157.000000
290104.000000
291070.000000
292049.000000
293010.000000
293952.000000
294945.000000
295913.000000
296867.000000
297849.000000
298838.000000
299796.000000
300777.000000
301749.000000
302695.000000
303635.000000
304601.000000
305571.000000
306517.000000
307493.000000
308471.000000
309425.000000
310393.000000
311379.000000
312345.000000
313300.000000
314284.000000
315254.000000
316205.000000
317187.000000
318166.000000
319105.000000
320052.000000
321017.000000
321972.000000
322913.000000
323893.000000
324868.000000
325816.000000
326780.000000
327734.000000
328671.000000
329640.000000
330605.000000
331547.000000
332512.000000
333484.000000
334431.000000
335362.000000
336326.000000
337297.000000
338250.000000
339189.000000
340147.000000
341116.000000
342061.000000
343004.000000
343973.000000
344949.000000
345899.000000
346867.000000
347842.000000
348811.000000
349761.000000
350724.000000
351702.000000
352653.000000
353611.000000
354586.000000
355567.000000
356531.000000
357490.000000
358468.000000
359443.000000
360407.000000
361381.000000
362380.000000
363363.000000
364331.000000
365329.000000
366327.000000
367298.000000
368268.000000
369266.000000
370248.000000
371214.000000
372198.000000
373186.000000
374156.000000
375118.000000
376106.000000
377101.000000
378075.000000
379043.000000
380030.000000
381031.000000
382001.000000
382982.000000
383990.000000
384983.000000
385964.000000
386958.000000
387972.000000
388953.000000
389928.000000
390935.000000
391936.000000
392905.000000
393867.000000
394848.000000
395839.000000
396801.000000
397761.000000
398747.000000
399740.000000
400707.000000
401695.000000
402699.000000
403682.000000
404652.000000
405652.000000
406655.000000
407635.000000
408600.000000
409588.000000
410581.000000
411548.000000
412508.000000
413497.000000
414493.000000
415458.000000
416427.000000
417408.000000
418386.000000
419349.000000
420330.000000
421313.000000
422286.000000
423245.000000
424226.000000
425215.000000
426176.000000
427136.000000
428126.000000
429121.000000
430092.000000
431070.000000
432068.000000
433040.000000
434005.000000
434997.000000
435993.000000
436969.000000
437937.000000
438928.000000
439922.000000
440894.000000
441877.000000
442880.000000
443854.000000
444812.000000
445800.000000
446794.000000
447769.000000
448736.000000
449716.000000
450712.000000
451675.000000
452649.000000
453638.000000
454627.000000
455598.000000
456584.000000
457585.000000
458579.000000
459556.000000
460547.000000
461547.000000
462533.000000
463502.000000
464501.000000
465513.000000
466494.000000
467477.000000
468483.000000
469470.000000
470450.000000
471451.000000
472457.000000
473438.000000
474412.000000
475411.000000
476431.000000
477431.000000
478411.000000
479416.000000
480422.000000
481430.000000
482418.000000
483412.000000
484418.000000
485412.000000
486395.000000
487397.000000
488408.000000
489387.000000
490357.000000
491336.000000
492325.000000
493287.000000
494258.000000
495262.000000
496259.000000
497236.000000
498234.000000
499240.000000
500220.000000
501196.000000
502188.000000
503189.000000
504166.000000
505154.000000
506149.000000
507130.000000
508101.000000
509088.000000
510075.000000
511038.000000
511987.000000
512956.000000
513936.000000
514892.000000
515828.000000
516789.000000
517766.000000
518712.000000
519646.000000
520600.000000
521567.000000
522511.000000
523454.000000
524415.000000
525380.000000
526329.000000
527280.000000
528251.000000
529218.000000
530172.000000
531149.000000
532138.000000
533109.000000
534070.000000
535053.000000
536045.000000
537018.000000
537995.000000
538988.000000
539979.000000
540954.000000
541947.000000
542950.000000
543924.000000
544889.000000
545887.000000
546891.000000
547872.000000
548843.000000
549847.000000
550857.000000
551845.000000
552832.000000
553842.000000
554860.000000
555846.000000
556827.000000
557846.000000
558869.000000
559866.000000
560861.000000
561869.000000
562879.000000
563866.000000
564851.000000
565848.000000
566831.000000
567797.000000
568788.000000
569791.000000
570769.000000
571746.000000
572747.000000
573758.000000
574752.000000
575762.000000
576776.000000
577757.000000
578731.000000
579728.000000
580727.000000
581700.000000
582682.000000
583690.000000
584679.000000
585660.000000
586653.000000
587653.000000
588621.000000
589582.000000
590572.000000
591570.000000
592539.000000
593510.000000
594496.000000
595485.000000
596452.000000
597428.000000
598421.000000
599397.000000
600358.000000
601343.000000
602341.000000
603323.000000
604290.000000
605286.000000
606281.000000
607250.000000
608214.000000
609202.000000
610190.000000
611161.000000
612144.000000
613147.000000
614129.000000
615102.000000
616088.000000
617072.000000
618041.000000
619000.000000
619984.000000
620978.000000
621936.000000
622893.000000
623879.000000
624873.000000
625839.000000
626812.000000
627805.000000
628793.000000
629769.000000
630753.000000
631743.000000
632726.000000
633696.000000
634689.000000
635695.000000
636683.000000
637654.000000
638653.000000
639650.000000
640625.000000
641607.000000
642619.000000
643608.000000
644581.000000
645578.000000
646578.000000
647550.000000
648513.000000
649500.000000
650492.000000
651460.000000
652431.000000
653432.000000
654425.000000
655405.000000
656402.000000
657404.000000
658387.000000
659362.000000
660355.000000
661365.000000
662357.000000
663348.000000
664366.000000
665368.000000
666349.000000
667351.000000
668356.000000
669325.000000
670291.000000
671277.000000
672265.000000
673237.000000
674223.000000
675227.000000
676207.000000
677165.000000
678168.000000
679174.000000
680147.000000
681111.000000
682094.000000
683082.000000
684048.000000
685021.000000
686005.000000
686973.000000
687929.000000
688896.000000
689890.000000
690860.000000
691820.000000
692800.000000
693780.000000
694735.000000
695685.000000
696651.000000
697623.000000
698567.000000
699520.000000
700495.000000
701457.000000
702406.000000
703382.000000
704368.000000
705323.000000
706275.000000
707257.000000
708247.000000
709212.000000
710179.000000
711179.000000
712165.000000
713135.000000
714130.000000
715134.000000
716118.000000
717092.000000
718097.000000
719115.000000
720108.000000
721096.000000
722111.000000
723122.000000
724110.000000
725122.000000
726140.000000
727119.000000
728097.000000
729109.000000
730117.000000
731111.000000
732134.000000
733151.000000
734130.000000
735102.000000
736101.000000
737076.000000
738035.000000
739013.000000
739997.000000
740949.000000
741912.000000
742898.000000
743892.000000
744869.000000
745867.000000
746876.000000
747867.000000
748848.000000
749846.000000
750868.000000
751858.000000
752856.000000
753876.000000
754884.000000
755878.000000
756889.000000
757901.000000
758883.000000
759857.000000
760854.000000
761855.000000
762826.000000
763818.000000
764835.000000
765817.000000
766792.000000
767796.000000
768799.000000
769780.000000
770781.000000
771800.000000
772809.000000
773790.000000
774802.000000
775825.000000
776832.000000
777823.000000
778850.000000
779872.000000
780864.000000
781844.000000
782858.000000
783875.000000
784878.000000
785861.000000
786880.000000
787912.000000
788906.000000
789894.000000
790912.000000
791933.000000
792922.000000
793927.000000
794942.000000
795935.000000
796918.000000
797926.000000
798952.000000
799939.000000
800914.000000
801901.000000
802898.000000
803868.000000
804841.000000
805836.000000
806810.000000
807773.000000
808760.000000
809758.000000
810733.000000
811698.000000
812699.000000
813710.000000
814700.000000
815682.000000
816691.000000
817687.000000
818675.000000
819682.000000
820684.000000
821658.000000
822624.000000
823623.000000
824636.000000
825621.000000
826618.000000
827627.000000
828616.000000
829583.000000
830577.000000
831575.000000
832545.000000
833509.000000
834505.000000
835502.000000
836465.000000
837418.000000
838394.000000
839384.000000
840351.000000
841308.000000
842295.000000
843284.000000
844253.000000
845213.000000
846198.000000
847197.000000
848181.000000
849144.000000
850129.000000
851116.000000
852081.000000
853037.000000
854028.000000
854997.000000
855953.000000
856929.000000
857916.000000
858882.000000
859838.000000
860824.000000
861818.000000
862796.000000
863777.000000
864779.000000
865782.000000
866772.000000
867778.000000
868794.000000
869792.000000
870772.000000
871791.000000
872817.000000
873805.000000
874783.000000
875786.000000
876797.000000
877781.000000
878766.000000
879781.000000
880786.000000
881768.000000
882764.000000
883765.000000
884746.000000
885710.000000
886707.000000
887711.000000
888695.000000
889685.000000
890693.000000
891688.000000
892674.000000
893684.000000
894701.000000
895695.000000
896673.000000
897675.000000
898682.000000
899662.000000
