ECG (ms)
655.000000
1432.000000
2214.000000
2983.000000
3744.000000
4496.000000
4924.000000
5910.000000
6669.000000
7422.000000
8159.000000
8585.000000
9530.000000
10016.000000
10981.000000
11468.000000
12352.000000
12825.000000
13772.000000
14522.000000
15287.000000
16054.000000
16805.000000
17558.000000
18324.000000
18757.000000
19771.000000
20557.000000
21321.000000
22080.000000
22588.000000
23552.000000
24302.000000
25050.000000
25533.000000
26514.000000
27259.000000
28006.000000
28769.000000
29532.000000
30311.000000
31090.000000
31865.000000
32637.000000
33400.000000
34169.000000
34929.000000
35693.000000
36459.000000
37213.000000
37963.000000
38715.000000
39460.000000
40201.000000
40936.000000
41677.000000
42426.000000
43172.000000
43914.000000
44656.000000
45393.000000
46126.000000
46853.000000
47576.000000
48310.000000
49044.000000
49780.000000
50505.000000
51230.000000
51704.000000
52673.000000
53421.000000
54166.000000
54904.000000
55630.000000
56367.000000
57103.000000
57840.000000
58596.000000
59362.000000
60127.000000
60890.000000
61650.000000
62398.000000
63134.000000
63868.000000
64347.000000
65335.000000
66091.000000
66843.000000
67597.000000
68106.000000
69057.000000
69812.000000
70322.000000
71292.000000
72027.000000
72765.000000
73518.000000
74281.000000
75062.000000
75865.000000
76662.000000
77434.000000
78191.000000
78950.000000
79705.000000
80136.000000
80954.000000
81682.000000
82104.000000
82898.000000
83536.000000
84194.000000
84867.000000
85523.000000
86460.000000
87261.000000
88047.000000
88822.000000
89579.000000
90328.000000
91073.000000
91818.000000
92291.000000
93273.000000
94015.000000
94515.000000
95481.000000
95952.000000
96924.000000
97691.000000
98450.000000
99204.000000
99966.000000
100733.000000
101512.000000
102292.000000
103071.000000
103827.000000
104581.000000
105332.000000
106092.000000
106870.000000
107651.000000
108436.000000
109210.000000
109959.000000
110705.000000
111457.000000
112204.000000
112940.000000
113666.000000
114395.000000
114875.000000
115814.000000
116554.000000
117292.000000
118020.000000
118748.000000
119477.000000
120214.000000
120959.000000
121691.000000
122425.000000
123171.000000
123918.000000
124669.000000
125414.000000
126165.000000
126907.000000
127339.000000
128309.000000
129062.000000
129542.000000
130497.000000
131231.000000
131958.000000
132689.000000
133430.000000
134190.000000
134958.000000
135721.000000
136487.000000
137255.000000
137746.000000
138787.000000
139568.000000
140341.000000
141093.000000
141588.000000
142591.000000
143123.000000
144099.000000
144848.000000
145281.000000
146269.000000
147030.000000
147530.000000
148522.000000
149014.000000
150005.000000
150772.000000
151540.000000
152318.000000
152817.000000
153842.000000
154345.000000
155312.000000
156106.000000
156579.000000
157575.000000
158058.000000
159035.000000
159521.000000
160506.000000
160984.000000
161988.000000
162761.000000
163540.000000
164021.000000
165040.000000
165542.000000
166580.000000
167372.000000
167808.000000
168798.000000
169285.000000
170294.000000
170804.000000
171815.000000
172588.000000
173350.000000
173846.000000
174890.000000
175698.000000
176506.000000
177301.000000
178069.000000
178578.000000
179627.000000
180131.000000
181195.000000
182005.000000
182791.000000
183581.000000
184359.000000
185121.000000
185885.000000
186392.000000
187422.000000
187930.000000
188946.000000
189453.000000
190464.000000
190968.000000
191979.000000
192756.000000
193525.000000
194039.000000
195056.000000
195563.000000
196512.000000
197293.000000
197804.000000
198808.000000
199322.000000
200346.000000
201125.000000
201899.000000
202673.000000
203454.000000
204245.000000
205026.000000
205477.000000
206491.000000
206981.000000
207893.000000
208406.000000
209375.000000
209870.000000
210856.000000
211376.000000
212368.000000
212855.000000
213815.000000
214576.000000
215346.000000
216127.000000
216900.000000
217663.000000
218427.000000
218925.000000
219959.000000
220747.000000
221527.000000
222298.000000
222801.000000
223815.000000
224332.000000
225355.000000
226144.000000
226916.000000
227431.000000
228449.000000
229237.000000
230025.000000
230809.000000
231576.000000
232364.000000
233163.000000
233952.000000
234732.000000
235514.000000
236032.000000
237046.000000
237821.000000
238632.000000
239434.000000
240236.000000
241038.000000
241829.000000
242597.000000
243356.000000
243865.000000
244857.000000
245625.000000
246390.000000
247161.000000
247920.000000
248421.000000
249429.000000
249944.000000
250971.000000
251489.000000
252497.000000
253278.000000
254047.000000
254800.000000
255553.000000
256048.000000
257065.000000
257595.000000
258590.000000
259358.000000
260125.000000
260902.000000
261681.000000
262446.000000
263208.000000
263702.000000
264717.000000
265246.000000
266270.000000
266787.000000
267819.000000
268610.000000
269403.000000
270186.000000
270963.000000
271734.000000
272512.000000
273295.000000
273739.000000
274625.000000
275379.000000
276050.000000
276492.000000
277340.000000
278063.000000
278733.000000
279396.000000
280264.000000
281169.000000
281944.000000
282443.000000
283477.000000
284259.000000
285030.000000
285800.000000
286573.000000
287344.000000
288117.000000
288879.000000
289397.000000
290403.000000
290923.000000
291962.000000
292745.000000
293519.000000
294271.000000
295026.000000
295789.000000
296561.000000
297340.000000
298123.000000
298888.000000
299653.000000
300437.000000
301231.000000
302021.000000
302797.000000
303552.000000
304284.000000
304744.000000
305667.000000
307085.000000
307834.000000
308589.000000
309360.000000
310143.000000
310909.000000
311362.000000
312391.000000
313202.000000
313635.000000
314595.000000
315248.000000
316180.000000
316998.000000
317835.000000
318673.000000
319490.000000
320305.000000
320777.000000
321857.000000
322703.000000
323523.000000
324323.000000
325126.000000
325931.000000
326750.000000
327559.000000
328355.000000
329146.000000
329949.000000
330754.000000
331561.000000
332365.000000
333157.000000
333685.000000
334732.000000
335212.000000
336074.000000
336850.000000
337523.000000
338236.000000
338947.000000
339643.000000
340698.000000
341578.000000
342424.000000
343270.000000
344097.000000
344904.000000
345709.000000
346164.000000
347236.000000
347727.000000
348772.000000
349604.000000
350416.000000
351219.000000
352010.000000
352811.000000
353623.000000
354428.000000
355229.000000
356037.000000
356864.000000
357710.000000
358561.000000
359407.000000
360255.000000
361087.000000
361904.000000
362713.000000
363519.000000
364328.000000
365141.000000
365950.000000
366388.000000
367395.000000
368196.000000
368991.000000
369785.000000
370587.000000
371392.000000
372201.000000
373025.000000
373847.000000
374647.000000
375454.000000
375895.000000
376913.000000
377731.000000
378537.000000
379328.000000
380113.000000
380902.000000
381695.000000
382146.000000
383169.000000
383969.000000
384759.000000
385272.000000
386304.000000
386793.000000
387747.000000
388258.000000
389278.000000
389800.000000
390838.000000
391640.000000
392470.000000
393307.000000
394144.000000
394976.000000
395796.000000
396609.000000
397431.000000
398248.000000
399062.000000
399861.000000
400301.000000
401103.000000
401820.000000
402474.000000
403137.000000
403830.000000
404539.000000
405036.000000
405804.000000
406524.000000
407251.000000
407974.000000
408472.000000
409319.000000
410047.000000
410999.000000
411971.000000
412792.000000
413595.000000
414377.000000
415154.000000
415929.000000
416708.000000
417493.000000
418273.000000
419047.000000
419808.000000
420571.000000
421325.000000
422090.000000
422877.000000
423662.000000
424451.000000
425225.000000
425989.000000
426742.000000
427487.000000
428249.000000
429016.000000
429778.000000
430533.000000
431285.000000
432051.000000
432488.000000
433336.000000
434103.000000
434750.000000
435407.000000
436103.000000
436759.000000
437441.000000
438440.000000
439265.000000
440065.000000
440859.000000
441639.000000
442423.000000
443203.000000
443995.000000
444793.000000
445577.000000
446354.000000
447121.000000
447898.000000
448679.000000
449456.000000
450223.000000
450983.000000
451749.000000
452527.000000
453320.000000
454107.000000
454889.000000
455655.000000
456431.000000
457205.000000
457980.000000
458754.000000
459514.000000
460271.000000
461036.000000
461830.000000
462641.000000
463431.000000
464210.000000
464977.000000
465735.000000
466261.000000
467266.000000
467741.000000
468687.000000
469442.000000
470185.000000
470706.000000
471674.000000
472152.000000
473106.000000
473607.000000
474508.000000
475255.000000
476004.000000
476778.000000
477561.000000
478342.000000
479120.000000
479889.000000
480655.000000
481427.000000
482209.000000
482981.000000
483750.000000
484511.000000
485267.000000
486024.000000
486781.000000
487560.000000
488345.000000
488790.000000
489794.000000
490577.000000
491337.000000
492080.000000
492506.000000
493481.000000
494245.000000
495001.000000
495443.000000
496414.000000
496896.000000
497825.000000
498301.000000
499316.000000
499842.000000
500875.000000
501664.000000
502438.000000
503225.000000
504013.000000
504802.000000
505588.000000
506365.000000
507160.000000
507595.000000
508587.000000
509355.000000
510110.000000
510870.000000
511634.000000
512076.000000
513068.000000
513835.000000
514267.000000
515273.000000
516049.000000
516837.000000
517625.000000
518403.000000
519179.000000
519631.000000
520680.000000
521496.000000
521941.000000
522957.000000
523741.000000
524504.000000
525265.000000
525701.000000
526564.000000
527332.000000
527976.000000
528640.000000
529342.000000
530079.000000
530804.000000
531523.000000
532225.000000
533130.000000
534138.000000
535593.000000
536406.000000
537222.000000
538031.000000
538834.000000
539629.000000
540423.000000
541240.000000
542058.000000
542869.000000
543678.000000
544117.000000
545166.000000
546003.000000
546801.000000
547583.000000
548354.000000
549119.000000
549898.000000
550716.000000
551537.000000
552349.000000
553150.000000
553926.000000
554700.000000
555480.000000
556268.000000
557061.000000
557856.000000
558654.000000
559440.000000
560217.000000
560985.000000
561453.000000
562476.000000
563269.000000
564062.000000
564514.000000
565506.000000
566287.000000
566725.000000
567723.000000
568211.000000
569162.000000
569947.000000
570750.000000
571561.000000
572371.000000
573193.000000
574031.000000
574885.000000
575742.000000
576589.000000
577436.000000
578252.000000
579068.000000
579886.000000
580707.000000
581519.000000
582323.000000
583128.000000
583931.000000
584730.000000
585519.000000
586311.000000
587112.000000
587909.000000
588692.000000
589468.000000
589988.000000
591014.000000
591499.000000
592474.000000
593267.000000
594045.000000
594807.000000
595246.000000
596231.000000
596755.000000
597741.000000
599185.000000
599685.000000
600594.000000
601081.000000
602069.000000
602554.000000
603523.000000
604306.000000
605078.000000
605851.000000
606644.000000
607446.000000
608240.000000
609032.000000
609805.000000
610584.000000
611376.000000
612174.000000
612969.000000
613749.000000
614527.000000
615316.000000
616106.000000
616902.000000
617700.000000
618483.000000
619273.000000
619710.000000
620709.000000
621188.000000
622168.000000
622692.000000
623683.000000
624170.000000
625087.000000
625724.000000
626148.000000
627157.000000
627689.000000
628715.000000
629509.000000
630317.000000
630766.000000
631787.000000
632294.000000
633220.000000
633997.000000
634439.000000
635417.000000
636185.000000
636626.000000
637588.000000
638099.000000
639107.000000
639623.000000
640549.000000
641320.000000
642101.000000
642905.000000
643723.000000
644546.000000
645322.000000
646128.000000
646966.000000
647795.000000
648597.000000
649382.000000
649894.000000
650963.000000
651472.000000
652436.000000
653259.000000
654061.000000
654586.000000
655664.000000
656193.000000
657255.000000
658772.000000
659615.000000
660452.000000
660902.000000
661745.000000
662492.000000
663162.000000
663830.000000
664547.000000
665273.000000
665970.000000
666414.000000
666942.000000
667672.000000
668448.000000
669298.000000
670308.000000
671193.000000
672039.000000
672875.000000
673720.000000
674572.000000
675015.000000
675995.000000
676469.000000
677415.000000
677939.000000
678970.000000
679461.000000
680440.000000
681222.000000
682007.000000
682803.000000
683601.000000
684400.000000
685193.000000
685982.000000
686783.000000
687595.000000
688400.000000
689194.000000
690004.000000
690805.000000
691604.000000
692416.000000
693224.000000
693991.000000
694730.000000
695459.000000
695925.000000
696873.000000
697615.000000
698358.000000
699100.000000
699861.000000
700635.000000
701419.000000
702204.000000
702992.000000
703763.000000
704536.000000
705308.000000
706095.000000
706877.000000
707642.000000
708150.000000
709138.000000
709676.000000
710659.000000
711435.000000
712208.000000
712976.000000
713747.000000
714517.000000
715291.000000
716069.000000
716864.000000
717667.000000
718484.000000
719287.000000
720082.000000
720870.000000
721650.000000
722429.000000
723208.000000
723996.000000
724794.000000
725586.000000
726370.000000
727148.000000
727580.000000
728426.000000
729083.000000
729504.000000
730534.000000
731013.000000
732008.000000
732799.000000
733582.000000
734358.000000
735142.000000
735578.000000
736592.000000
737074.000000
737931.000000
738693.000000
739351.000000
740010.000000
740685.000000
741403.000000
742115.000000
742843.000000
743630.000000
744659.000000
745536.000000
746381.000000
747197.000000
747632.000000
748638.000000
749421.000000
750192.000000
750969.000000
751402.000000
752406.000000
752887.000000
753867.000000
754377.000000
755420.000000
756222.000000
757030.000000
757846.000000
758663.000000
759479.000000
760318.000000
761156.000000
761984.000000
762788.000000
763581.000000
764374.000000
765180.000000
765703.000000
766785.000000
767622.000000
768450.000000
769264.000000
770071.000000
770859.000000
771671.000000
772489.000000
773317.000000
774151.000000
774975.000000
775789.000000
776243.000000
777261.000000
778059.000000
778841.000000
779626.000000
780433.000000
781259.000000
782094.000000
782921.000000
783752.000000
784590.000000
785415.000000
786217.000000
787031.000000
787854.000000
788672.000000
789487.000000
790296.000000
791094.000000
791885.000000
792662.000000
793194.000000
794253.000000
795067.000000
795876.000000
796659.000000
797429.000000
797863.000000
798874.000000
799668.000000
800450.000000
801220.000000
801990.000000
802781.000000
803589.000000
804409.000000
805232.000000
806054.000000
806884.000000
807723.000000
808541.000000
809355.000000
810150.000000
810953.000000
811430.000000
812496.000000
813326.000000
814130.000000
814917.000000
815709.000000
816149.000000
817058.000000
817815.000000
818476.000000
819132.000000
819823.000000
820558.000000
821258.000000
821955.000000
822854.000000
823305.000000
824322.000000
825152.000000
825966.000000
826772.000000
827576.000000
828366.000000
829150.000000
829650.000000
830697.000000
831222.000000
832303.000000
833120.000000
833930.000000
834378.000000
835391.000000
836203.000000
837028.000000
837837.000000
838640.000000
839437.000000
839964.000000
841069.000000
841586.000000
842661.000000
843512.000000
844341.000000
845152.000000
845591.000000
846578.000000
847085.000000
847821.000000
848603.000000
849282.000000
849994.000000
850726.000000
851463.000000
852178.000000
853267.000000
854164.000000
855002.000000
855807.000000
856325.000000
857374.000000
858192.000000
859001.000000
859805.000000
860603.000000
861423.000000
862233.000000
863045.000000
863845.000000
864647.000000
865452.000000
866272.000000
867096.000000
867909.000000
868699.000000
869202.000000
870219.000000
871654.000000
872198.000000
873176.000000
873708.000000
874722.000000
875523.000000
876350.000000
877177.000000
878006.000000
878450.000000
879452.000000
880141.000000
881117.000000
881948.000000
882792.000000
883242.000000
884262.000000
885117.000000
885929.000000
886727.000000
887524.000000
887975.000000
889025.000000
889873.000000
890708.000000
891530.000000
892366.000000
893204.000000
894032.000000
894851.000000
895667.000000
896495.000000
896947.000000
897974.000000
898463.000000
899405.000000
899930.000000
900933.000000
901461.000000
902517.000000
903048.000000
904113.000000
904916.000000
