ECG (ms)
384.000000
1226.000000
2072.000000
2923.000000
3765.000000
4605.000000
5457.000000
6329.000000
7213.000000
8067.000000
8929.000000
9778.000000
10601.000000
11439.000000
12283.000000
13138.000000
13986.000000
14829.000000
15671.000000
16489.000000
17304.000000
18127.000000
18961.000000
19801.000000
20649.000000
21505.000000
22345.000000
23158.000000
23965.000000
24781.000000
25597.000000
26426.000000
27253.000000
28074.000000
28911.000000
29764.000000
30619.000000
31461.000000
32312.000000
33159.000000
34004.000000
34833.000000
35663.000000
36506.000000
37362.000000
38236.000000
39111.000000
39987.000000
40861.000000
41726.000000
42570.000000
43420.000000
44265.000000
45096.000000
45918.000000
46765.000000
47625.000000
48510.000000
49371.000000
50241.000000
51111.000000
51981.000000
52819.000000
53660.000000
54496.000000
55316.000000
56130.000000
56963.000000
57794.000000
58624.000000
59448.000000
60278.000000
61121.000000
61942.000000
62730.000000
63485.000000
64234.000000
64983.000000
65742.000000
66523.000000
67320.000000
68139.000000
68971.000000
69800.000000
70615.000000
71450.000000
72292.000000
73141.000000
73988.000000
74815.000000
75639.000000
76478.000000
77324.000000
78182.000000
79042.000000
79885.000000
80717.000000
81559.000000
82394.000000
83229.000000
84041.000000
84848.000000
85669.000000
86502.000000
87350.000000
88187.000000
89056.000000
89933.000000
90781.000000
91626.000000
92479.000000
93334.000000
94161.000000
94991.000000
95815.000000
96487.000000
97473.000000
98307.000000
99149.000000
99969.000000
100809.000000
101647.000000
102485.000000
103300.000000
104121.000000
104950.000000
105787.000000
106619.000000
107459.000000
108290.000000
109125.000000
109945.000000
110745.000000
111551.000000
112360.000000
113174.000000
113995.000000
114808.000000
115622.000000
116446.000000
117268.000000
118098.000000
118922.000000
119733.000000
120554.000000
121383.000000
122213.000000
123049.000000
123886.000000
124707.000000
125536.000000
126364.000000
127188.000000
128004.000000
128812.000000
129635.000000
130471.000000
131325.000000
132178.000000
133063.000000
133917.000000
134756.000000
135611.000000
136462.000000
137334.000000
138218.000000
139111.000000
140008.000000
140874.000000
141734.000000
142591.000000
143444.000000
144298.000000
145175.000000
146062.000000
146949.000000
147838.000000
148721.000000
149588.000000
150431.000000
151263.000000
152101.000000
152958.000000
153841.000000
154741.000000
155651.000000
156558.000000
157442.000000
158294.000000
159120.000000
159948.000000
160781.000000
161623.000000
162478.000000
163342.000000
164188.000000
165041.000000
165906.000000
166772.000000
167626.000000
168484.000000
169346.000000
170195.000000
171047.000000
171894.000000
172747.000000
173579.000000
174420.000000
175262.000000
176096.000000
176911.000000
177720.000000
178528.000000
179347.000000
180178.000000
181014.000000
181847.000000
182680.000000
183539.000000
184414.000000
185302.000000
186196.000000
187084.000000
187941.000000
188787.000000
189637.000000
190481.000000
191306.000000
192138.000000
192975.000000
193818.000000
194656.000000
195475.000000
196299.000000
197127.000000
197954.000000
198773.000000
199601.000000
200431.000000
201259.000000
202067.000000
202884.000000
203706.000000
204521.000000
205332.000000
206157.000000
206980.000000
207775.000000
208570.000000
209369.000000
210170.000000
210956.000000
211755.000000
212549.000000
213337.000000
214123.000000
214922.000000
215718.000000
216506.000000
217306.000000
218114.000000
218913.000000
219703.000000
220501.000000
221302.000000
222091.000000
222884.000000
223684.000000
224482.000000
225274.000000
226087.000000
226896.000000
227692.000000
228500.000000
229316.000000
230144.000000
230958.000000
231782.000000
232609.000000
233423.000000
234221.000000
235031.000000
235839.000000
236631.000000
237429.000000
238233.000000
239046.000000
239857.000000
240689.000000
241518.000000
242340.000000
243149.000000
243966.000000
244776.000000
245581.000000
246388.000000
247209.000000
248034.000000
248868.000000
249707.000000
250544.000000
251364.000000
252177.000000
252988.000000
253813.000000
254659.000000
255517.000000
256374.000000
257222.000000
258056.000000
258879.000000
259708.000000
260539.000000
261367.000000
262203.000000
263024.000000
263840.000000
264658.000000
265478.000000
266299.000000
267122.000000
267970.000000
268821.000000
269653.000000
270493.000000
271337.000000
272177.000000
272995.000000
273823.000000
274647.000000
275476.000000
276300.000000
277118.000000
277960.000000
278813.000000
279675.000000
280533.000000
281412.000000
282299.000000
283162.000000
283997.000000
284812.000000
285634.000000
286459.000000
287305.000000
288199.000000
289144.000000
290094.000000
291014.000000
291924.000000
292828.000000
293725.000000
294619.000000
295508.000000
296389.000000
297267.000000
298140.000000
299002.000000
299829.000000
300648.000000
301474.000000
302316.000000
303165.000000
303995.000000
304841.000000
305687.000000
306526.000000
307355.000000
308190.000000
309041.000000
309873.000000
310712.000000
311546.000000
312387.000000
313209.000000
314041.000000
314872.000000
315685.000000
316496.000000
317316.000000
318132.000000
318932.000000
319748.000000
320566.000000
321383.000000
322187.000000
323001.000000
323808.000000
324609.000000
325406.000000
326224.000000
327049.000000
327884.000000
328707.000000
329543.000000
330387.000000
331230.000000
332047.000000
332880.000000
333716.000000
334533.000000
335345.000000
336163.000000
336989.000000
337801.000000
338624.000000
339460.000000
340300.000000
341123.000000
341947.000000
342785.000000
343636.000000
344495.000000
345369.000000
346227.000000
347055.000000
347879.000000
348717.000000
349566.000000
350436.000000
351315.000000
352218.000000
353125.000000
354033.000000
354947.000000
355853.000000
356748.000000
357610.000000
358464.000000
359313.000000
360170.000000
361025.000000
361909.000000
362843.000000
363785.000000
364713.000000
365606.000000
366485.000000
367367.000000
368249.000000
369122.000000
369972.000000
370811.000000
371677.000000
372569.000000
373464.000000
374346.000000
375227.000000
376120.000000
377030.000000
377934.000000
378807.000000
379665.000000
380526.000000
381395.000000
382277.000000
383150.000000
384020.000000
384868.000000
385710.000000
386547.000000
387390.000000
388235.000000
389095.000000
389965.000000
390827.000000
391689.000000
392550.000000
393400.000000
394230.000000
395047.000000
395875.000000
396710.000000
397562.000000
398434.000000
399329.000000
400234.000000
401122.000000
401984.000000
402819.000000
403649.000000
404485.000000
405325.000000
406183.000000
407061.000000
407946.000000
408810.000000
409666.000000
410527.000000
411404.000000
412273.000000
413127.000000
413974.000000
414817.000000
415661.000000
416481.000000
417296.000000
418106.000000
418885.000000
419642.000000
420408.000000
421193.000000
422006.000000
422846.000000
423686.000000
424517.000000
425368.000000
426230.000000
427088.000000
427939.000000
428781.000000
429622.000000
430478.000000
431344.000000
432218.000000
433126.000000
434052.000000
434991.000000
435884.000000
436769.000000
437670.000000
438581.000000
439496.000000
440401.000000
441303.000000
442182.000000
443051.000000
443914.000000
444773.000000
445631.000000
446468.000000
447302.000000
448163.000000
449053.000000
449950.000000
450829.000000
451727.000000
452640.000000
453528.000000
454407.000000
455264.000000
456105.000000
456957.000000
457847.000000
458763.000000
459716.000000
460673.000000
461584.000000
462473.000000
463370.000000
464259.000000
465152.000000
466040.000000
466916.000000
467777.000000
468624.000000
469451.000000
470292.000000
471162.000000
472066.000000
472974.000000
473870.000000
474782.000000
475708.000000
476644.000000
477566.000000
478476.000000
479379.000000
480267.000000
481140.000000
482010.000000
482892.000000
483781.000000
484685.000000
485594.000000
486497.000000
487407.000000
488304.000000
489174.000000
490039.000000
490920.000000
491823.000000
492753.000000
493681.000000
494579.000000
495482.000000
496394.000000
497303.000000
498206.000000
499110.000000
499999.000000
500865.000000
501716.000000
502583.000000
503473.000000
504382.000000
505269.000000
506143.000000
507021.000000
507924.000000
508841.000000
509764.000000
510659.000000
511530.000000
512394.000000
513256.000000
514130.000000
515027.000000
515956.000000
516904.000000
517843.000000
518770.000000
519675.000000
520562.000000
521444.000000
522339.000000
523240.000000
524155.000000
525064.000000
525950.000000
526812.000000
527679.000000
528549.000000
529429.000000
530297.000000
531174.000000
532055.000000
532947.000000
533827.000000
534684.000000
535540.000000
536399.000000
537239.000000
538059.000000
538884.000000
539724.000000
540602.000000
541510.000000
542412.000000
543284.000000
544132.000000
544977.000000
545837.000000
546701.000000
547565.000000
548425.000000
549268.000000
550117.000000
550978.000000
551840.000000
552700.000000
553554.000000
554407.000000
555252.000000
556080.000000
556894.000000
557709.000000
558546.000000
559403.000000
560278.000000
561147.000000
562014.000000
562877.000000
563741.000000
564594.000000
565455.000000
566327.000000
567187.000000
568036.000000
568877.000000
569725.000000
570600.000000
571509.000000
572423.000000
573322.000000
574190.000000
575052.000000
575927.000000
576793.000000
577667.000000
578516.000000
579376.000000
580246.000000
581124.000000
581981.000000
582819.000000
583674.000000
584537.000000
585419.000000
586298.000000
587185.000000
588047.000000
588900.000000
589779.000000
590678.000000
591549.000000
592408.000000
593275.000000
594143.000000
595018.000000
595896.000000
596787.000000
597695.000000
598595.000000
599489.000000
600397.000000
601311.000000
602206.000000
603094.000000
603983.000000
604884.000000
605765.000000
606648.000000
607524.000000
608408.000000
609279.000000
610156.000000
611031.000000
611911.000000
612771.000000
613644.000000
614512.000000
615381.000000
616231.000000
617086.000000
617942.000000
618813.000000
619662.000000
620520.000000
621380.000000
622272.000000
623142.000000
623995.000000
624865.000000
625739.000000
626595.000000
627439.000000
628300.000000
629171.000000
630035.000000
630874.000000
631712.000000
632561.000000
633422.000000
634315.000000
635192.000000
636096.000000
637010.000000
637945.000000
638854.000000
639757.000000
640661.000000
641557.000000
642425.000000
643292.000000
644170.000000
645054.000000
645933.000000
646811.000000
647704.000000
648628.000000
649568.000000
650485.000000
651373.000000
652249.000000
653127.000000
654004.000000
654885.000000
655736.000000
656582.000000
657442.000000
658316.000000
659177.000000
660024.000000
660891.000000
661765.000000
662635.000000
663475.000000
664323.000000
665172.000000
666021.000000
666850.000000
667674.000000
668526.000000
669382.000000
670230.000000
671084.000000
671964.000000
672862.000000
673728.000000
674591.000000
675448.000000
676297.000000
677131.000000
677969.000000
678827.000000
679716.000000
680589.000000
681478.000000
682370.000000
683243.000000
684101.000000
684961.000000
685808.000000
686626.000000
687437.000000
688257.000000
689091.000000
689931.000000
690773.000000
691640.000000
692528.000000
693405.000000
694274.000000
695148.000000
696025.000000
696875.000000
697729.000000
698582.000000
699421.000000
700238.000000
701060.000000
701890.000000
702716.000000
703536.000000
704379.000000
705226.000000
706070.000000
706892.000000
707707.000000
708506.000000
709294.000000
710094.000000
710945.000000
711864.000000
712807.000000
713743.000000
714680.000000
715606.000000
716509.000000
717387.000000
718257.000000
719124.000000
719980.000000
720835.000000
721711.000000
722581.000000
723436.000000
724292.000000
725138.000000
725961.000000
726777.000000
727601.000000
728443.000000
729270.000000
730104.000000
730947.000000
731787.000000
732611.000000
733413.000000
734216.000000
735015.000000
735814.000000
736594.000000
737381.000000
738189.000000
739006.000000
739807.000000
740607.000000
741411.000000
742213.000000
742989.000000
743757.000000
744528.000000
745298.000000
746060.000000
746840.000000
747636.000000
748447.000000
749251.000000
750065.000000
750885.000000
751713.000000
752515.000000
753318.000000
754120.000000
754914.000000
755695.000000
756474.000000
757250.000000
758029.000000
758806.000000
759585.000000
760376.000000
761180.000000
761977.000000
762788.000000
763598.000000
764403.000000
765198.000000
766002.000000
766820.000000
767645.000000
768474.000000
769286.000000
770085.000000
770898.000000
771711.000000
772530.000000
773342.000000
774173.000000
774982.000000
775786.000000
776607.000000
777435.000000
778257.000000
779064.000000
779873.000000
780682.000000
781494.000000
782298.000000
783090.000000
783896.000000
784689.000000
785472.000000
786239.000000
786976.000000
787703.000000
788419.000000
789116.000000
789831.000000
790605.000000
791373.000000
792155.000000
792962.000000
793805.000000
794672.000000
795557.000000
796436.000000
797313.000000
798156.000000
798979.000000
799814.000000
800668.000000
801561.000000
802460.000000
803352.000000
804254.000000
805166.000000
806098.000000
807027.000000
807959.000000
808878.000000
809784.000000
810681.000000
811574.000000
812470.000000
813353.000000
814233.000000
815129.000000
816062.000000
816995.000000
817930.000000
818867.000000
819788.000000
820693.000000
821568.000000
822428.000000
823314.000000
824211.000000
825125.000000
826051.000000
826957.000000
827847.000000
828751.000000
829671.000000
830595.000000
831503.000000
832373.000000
833232.000000
834098.000000
834968.000000
835845.000000
836730.000000
837587.000000
838448.000000
839329.000000
840208.000000
841087.000000
841945.000000
842814.000000
843687.000000
844561.000000
845436.000000
846305.000000
847157.000000
848028.000000
848903.000000
849799.000000
850698.000000
851596.000000
852488.000000
853371.000000
854223.000000
855056.000000
855879.000000
856723.000000
857611.000000
858524.000000
859443.000000
860382.000000
861331.000000
862254.000000
863198.000000
864140.000000
865045.000000
865950.000000
866854.000000
867758.000000
868632.000000
869521.000000
870415.000000
871300.000000
872169.000000
873050.000000
873936.000000
874804.000000
875665.000000
876538.000000
877407.000000
878258.000000
879118.000000
879989.000000
880865.000000
881712.000000
882562.000000
883413.000000
884255.000000
885085.000000
885930.000000
886766.000000
887612.000000
888439.000000
889244.000000
890052.000000
890907.000000
891802.000000
892710.000000
893604.000000
894498.000000
895356.000000
896210.000000
897063.000000
897908.000000
898752.000000
899580.000000
900428.000000
901284.000000
902147.000000
903001.000000
