ECG (ms)
590.000000
1332.000000
2156.000000
3106.000000
4026.000000
4827.000000
5586.000000
6334.000000
7300.000000
8264.000000
9175.000000
10027.000000
10839.000000
11612.000000
12328.000000
12998.000000
13664.000000
14413.000000
15659.000000
16721.000000
17735.000000
18737.000000
19696.000000
20480.000000
21235.000000
21970.000000
22683.000000
23401.000000
24157.000000
25051.000000
25963.000000
26824.000000
27673.000000
28479.000000
29274.000000
30038.000000
30842.000000
31659.000000
32484.000000
33280.000000
34153.000000
35044.000000
35933.000000
36777.000000
37565.000000
38354.000000
39142.000000
39961.000000
40827.000000
41682.000000
42498.000000
43341.000000
44216.000000
45093.000000
45891.000000
46689.000000
47477.000000
48299.000000
49123.000000
49897.000000
50691.000000
51515.000000
52382.000000
53193.000000
54023.000000
54872.000000
55684.000000
56408.000000
57092.000000
57736.000000
58409.000000
59149.000000
59863.000000
60561.000000
61268.000000
62049.000000
63042.000000
63985.000000
64873.000000
65714.000000
66447.000000
67138.000000
67792.000000
68444.000000
69153.000000
70115.000000
71009.000000
71907.000000
72802.000000
73667.000000
74474.000000
75172.000000
75835.000000
76506.000000
77237.000000
78177.000000
79104.000000
80013.000000
80903.000000
81789.000000
82645.000000
83399.000000
84076.000000
84728.000000
85381.000000
86095.000000
87081.000000
87986.000000
88921.000000
89856.000000
90782.000000
91654.000000
92366.000000
93034.000000
93685.000000
94350.000000
95187.000000
96278.000000
97241.000000
98205.000000
99159.000000
100086.000000
100841.000000
101536.000000
102205.000000
102889.000000
103705.000000
104807.000000
105795.000000
106770.000000
107728.000000
108667.000000
109543.000000
110286.000000
110984.000000
111656.000000
112343.000000
113376.000000
114343.000000
115331.000000
116334.000000
117321.000000
118289.000000
119227.000000
120126.000000
120911.000000
121630.000000
122343.000000
123131.000000
124191.000000
125186.000000
126144.000000
127094.000000
128022.000000
128924.000000
129791.000000
130578.000000
131290.000000
131987.000000
132743.000000
133752.000000
134702.000000
135626.000000
136540.000000
137440.000000
138308.000000
139054.000000
139759.000000
140424.000000
141088.000000
141844.000000
142866.000000
143786.000000
144709.000000
145632.000000
146512.000000
147304.000000
147985.000000
148643.000000
149311.000000
150102.000000
151103.000000
151993.000000
152889.000000
153786.000000
154669.000000
155485.000000
156207.000000
156887.000000
157552.000000
158256.000000
159271.000000
160173.000000
161085.000000
161994.000000
162881.000000
163719.000000
164477.000000
165148.000000
165797.000000
166481.000000
167440.000000
168305.000000
169166.000000
170032.000000
170873.000000
171680.000000
172482.000000
173222.000000
173984.000000
174864.000000
175769.000000
176627.000000
177439.000000
178190.000000
178904.000000
179605.000000
180281.000000
180944.000000
181609.000000
182313.000000
183089.000000
183995.000000
184921.000000
185811.000000
186706.000000
187579.000000
188435.000000
189227.000000
189966.000000
190691.000000
191395.000000
192088.000000
192790.000000
193518.000000
194493.000000
195368.000000
196265.000000
197168.000000
198059.000000
198920.000000
199730.000000
200439.000000
201131.000000
201791.000000
202432.000000
203057.000000
203692.000000
204379.000000
205271.000000
206145.000000
206983.000000
207811.000000
208612.000000
209333.000000
210006.000000
210660.000000
211307.000000
211917.000000
212562.000000
213276.000000
214059.000000
214855.000000
215622.000000
216359.000000
217078.000000
217797.000000
218500.000000
219184.000000
219838.000000
220486.000000
221136.000000
221805.000000
222624.000000
223528.000000
224402.000000
225253.000000
226059.000000
226819.000000
227573.000000
228310.000000
229025.000000
229726.000000
230412.000000
231084.000000
231751.000000
232446.000000
233177.000000
234055.000000
235026.000000
235976.000000
236853.000000
237670.000000
238420.000000
239119.000000
239792.000000
240450.000000
241095.000000
241735.000000
242389.000000
243109.000000
244132.000000
245058.000000
245996.000000
246932.000000
247813.000000
248546.000000
249235.000000
249897.000000
250546.000000
251191.000000
251854.000000
252611.000000
253618.000000
254510.000000
255451.000000
256418.000000
257357.000000
258205.000000
258888.000000
259550.000000
260204.000000
260852.000000
261529.000000
262268.000000
263300.000000
264199.000000
265135.000000
266059.000000
266977.000000
267865.000000
268691.000000
269429.000000
270131.000000
270814.000000
271493.000000
272204.000000
273183.000000
274078.000000
275017.000000
275975.000000
276921.000000
277852.000000
278726.000000
279504.000000
280268.000000
281025.000000
281749.000000
282494.000000
283448.000000
284434.000000
285364.000000
286268.000000
287174.000000
288025.000000
288861.000000
289658.000000
290443.000000
291217.000000
292005.000000
292809.000000
293637.000000
294486.000000
295337.000000
296146.000000
296936.000000
297711.000000
298497.000000
299250.000000
299979.000000
300723.000000
301505.000000
302489.000000
303308.000000
304057.000000
304799.000000
305583.000000
306410.000000
307258.000000
308006.000000
308747.000000
309487.000000
310266.000000
311098.000000
311890.000000
312657.000000
313430.000000
314229.000000
315013.000000
315777.000000
316485.000000
317176.000000
317875.000000
318636.000000
319475.000000
320274.000000
321007.000000
321767.000000
322553.000000
323345.000000
324122.000000
324864.000000
325609.000000
326387.000000
327275.000000
328128.000000
328892.000000
329610.000000
330285.000000
330976.000000
331678.000000
332394.000000
333073.000000
333743.000000
334407.000000
335108.000000
335931.000000
336906.000000
337825.000000
338702.000000
339499.000000
340211.000000
340887.000000
341540.000000
342184.000000
342860.000000
343737.000000
344663.000000
345581.000000
346519.000000
347461.000000
348374.000000
349174.000000
349863.000000
350526.000000
351180.000000
351858.000000
352590.000000
353474.000000
354387.000000
355221.000000
355983.000000
356743.000000
357489.000000
358214.000000
358887.000000
359595.000000
360345.000000
361104.000000
361841.000000
362596.000000
363446.000000
364355.000000
365207.000000
366017.000000
366756.000000
367484.000000
368215.000000
369002.000000
369868.000000
370785.000000
371598.000000
372389.000000
373182.000000
373971.000000
374765.000000
375498.000000
376233.000000
376987.000000
377900.000000
378783.000000
379579.000000
380401.000000
381234.000000
382066.000000
382855.000000
383615.000000
384396.000000
385243.000000
386162.000000
386974.000000
387798.000000
388624.000000
389515.000000
390439.000000
391237.000000
392034.000000
392879.000000
393878.000000
394834.000000
395745.000000
396684.000000
397637.000000
398559.000000
399424.000000
400291.000000
401167.000000
402065.000000
402936.000000
403782.000000
404656.000000
405543.000000
406441.000000
407296.000000
408105.000000
408878.000000
409631.000000
410462.000000
411384.000000
412287.000000
413083.000000
413806.000000
414503.000000
415195.000000
415963.000000
416744.000000
417516.000000
418232.000000
418935.000000
419639.000000
420347.000000
421063.000000
421766.000000
422481.000000
423218.000000
424003.000000
424786.000000
425512.000000
426185.000000
426870.000000
427570.000000
428258.000000
428937.000000
429610.000000
430292.000000
431022.000000
431823.000000
432705.000000
433575.000000
434350.000000
435059.000000
435760.000000
436459.000000
437204.000000
437984.000000
438772.000000
439536.000000
440260.000000
441027.000000
441880.000000
442781.000000
443669.000000
444464.000000
445204.000000
445943.000000
446697.000000
447604.000000
448485.000000
449354.000000
450315.000000
451259.000000
452154.000000
452961.000000
453767.000000
454632.000000
455545.000000
456434.000000
457255.000000
458100.000000
458999.000000
459926.000000
460838.000000
461673.000000
462484.000000
463304.000000
464186.000000
465090.000000
465941.000000
466836.000000
467775.000000
468731.000000
469636.000000
470449.000000
471270.000000
472124.000000
473019.000000
473880.000000
474680.000000
475604.000000
476582.000000
477556.000000
478475.000000
479312.000000
480123.000000
480947.000000
481788.000000
482643.000000
483402.000000
484184.000000
485191.000000
486182.000000
487095.000000
487978.000000
488887.000000
489796.000000
490681.000000
491512.000000
492276.000000
493053.000000
493930.000000
494898.000000
495808.000000
496713.000000
497661.000000
498597.000000
499495.000000
500389.000000
501280.000000
502168.000000
503002.000000
503721.000000
504446.000000
505194.000000
506225.000000
507120.000000
507993.000000
508900.000000
509832.000000
510768.000000
511654.000000
512505.000000
513331.000000
514092.000000
514852.000000
515533.000000
516232.000000
517047.000000
518131.000000
519101.000000
520023.000000
520903.000000
521753.000000
522546.000000
523388.000000
524213.000000
524969.000000
525693.000000
526418.000000
527263.000000
528313.000000
529250.000000
530133.000000
530988.000000
531884.000000
532800.000000
533715.000000
534620.000000
535467.000000
536278.000000
537039.000000
537830.000000
538715.000000
539630.000000
540467.000000
541245.000000
542048.000000
542888.000000
543782.000000
544638.000000
545408.000000
546182.000000
546986.000000
547844.000000
548670.000000
549445.000000
550207.000000
551094.000000
552040.000000
552947.000000
553792.000000
554574.000000
555360.000000
556170.000000
556970.000000
557736.000000
558458.000000
559170.000000
559962.000000
560999.000000
561922.000000
562819.000000
563688.000000
564580.000000
565468.000000
566322.000000
567090.000000
567837.000000
568567.000000
569289.000000
569947.000000
570616.000000
571321.000000
572071.000000
573125.000000
574076.000000
575008.000000
575898.000000
576755.000000
577556.000000
578334.000000
579115.000000
579930.000000
580719.000000
581512.000000
582386.000000
583282.000000
584206.000000
585075.000000
585899.000000
586726.000000
587548.000000
588387.000000
589187.000000
589963.000000
590766.000000
591634.000000
592558.000000
593440.000000
594220.000000
594981.000000
595774.000000
596608.000000
597502.000000
598385.000000
599187.000000
600007.000000
600853.000000
601709.000000
602571.000000
603375.000000
604188.000000
604987.000000
605788.000000
606576.000000
607319.000000
608093.000000
609172.000000
610130.000000
611009.000000
611881.000000
612782.000000
613626.000000
614431.000000
615159.000000
615860.000000
616551.000000
617300.000000
618430.000000
619462.000000
620503.000000
621504.000000
622458.000000
623261.000000
623958.000000
624631.000000
625319.000000
626366.000000
627305.000000
628266.000000
629213.000000
630126.000000
630980.000000
631753.000000
632574.000000
633460.000000
634375.000000
635241.000000
636054.000000
636819.000000
637600.000000
638397.000000
639317.000000
640195.000000
641053.000000
641948.000000
642854.000000
643732.000000
644562.000000
645295.000000
645999.000000
646704.000000
647442.000000
648279.000000
649147.000000
649943.000000
650757.000000
651612.000000
652486.000000
653302.000000
654040.000000
654761.000000
655463.000000
656186.000000
656957.000000
657767.000000
658524.000000
659282.000000
660048.000000
660898.000000
661782.000000
662602.000000
663356.000000
664108.000000
664869.000000
665665.000000
666521.000000
667411.000000
668226.000000
669049.000000
669908.000000
670763.000000
671599.000000
672391.000000
673139.000000
673895.000000
674668.000000
675468.000000
676284.000000
677035.000000
677788.000000
678549.000000
679388.000000
680245.000000
680997.000000
681746.000000
682506.000000
683294.000000
684108.000000
684914.000000
685644.000000
686335.000000
687005.000000
687687.000000
688405.000000
689416.000000
690322.000000
691164.000000
691918.000000
692577.000000
693241.000000
693967.000000
694813.000000
695672.000000
696457.000000
697272.000000
698110.000000
698940.000000
699764.000000
700516.000000
701267.000000
702027.000000
702871.000000
703782.000000
704620.000000
705368.000000
706141.000000
706966.000000
707904.000000
708813.000000
709628.000000
710436.000000
711262.000000
712084.000000
712895.000000
713645.000000
714428.000000
715247.000000
716129.000000
716970.000000
717734.000000
718523.000000
719364.000000
720225.000000
721021.000000
721785.000000
722563.000000
723416.000000
724329.000000
725175.000000
725949.000000
726717.000000
727498.000000
728331.000000
729146.000000
729923.000000
730690.000000
731459.000000
732218.000000
732932.000000
733615.000000
734273.000000
734983.000000
735844.000000
736788.000000
737668.000000
738514.000000
739275.000000
740006.000000
740696.000000
741391.000000
742083.000000
742761.000000
743424.000000
744139.000000
744995.000000
745955.000000
746846.000000
747648.000000
748411.000000
749156.000000
749884.000000
750626.000000
751351.000000
752040.000000
752701.000000
753348.000000
754038.000000
755033.000000
755942.000000
756849.000000
757724.000000
758587.000000
759383.000000
760116.000000
760843.000000
761582.000000
762282.000000
762990.000000
763721.000000
764512.000000
765337.000000
766104.000000
766839.000000
767579.000000
768330.000000
769092.000000
769818.000000
770506.000000
771168.000000
771846.000000
772581.000000
773464.000000
774395.000000
775209.000000
775948.000000
776671.000000
777430.000000
778307.000000
779167.000000
779974.000000
780739.000000
781516.000000
782339.000000
783186.000000
784012.000000
784761.000000
785439.000000
786093.000000
786753.000000
787448.000000
788466.000000
789406.000000
790349.000000
791285.000000
792149.000000
792996.000000
793840.000000
794645.000000
795404.000000
796141.000000
796893.000000
797865.000000
798901.000000
799898.000000
800834.000000
801746.000000
802657.000000
803518.000000
804346.000000
805125.000000
805881.000000
806647.000000
807473.000000
808381.000000
809238.000000
810028.000000
810863.000000
811725.000000
812609.000000
813419.000000
814205.000000
814976.000000
815746.000000
816590.000000
817433.000000
818209.000000
819012.000000
819899.000000
820838.000000
821750.000000
822526.000000
823278.000000
824037.000000
824833.000000
825774.000000
826709.000000
827549.000000
828409.000000
829267.000000
830143.000000
830970.000000
831792.000000
832701.000000
833628.000000
834532.000000
835324.000000
836082.000000
836864.000000
837645.000000
838451.000000
839266.000000
840002.000000
840703.000000
841396.000000
842161.000000
843222.000000
844161.000000
845025.000000
845754.000000
846458.000000
847159.000000
847822.000000
848475.000000
849181.000000
849993.000000
850855.000000
851618.000000
852346.000000
853137.000000
854101.000000
855028.000000
855931.000000
856776.000000
857514.000000
858193.000000
858850.000000
859539.000000
860590.000000
861543.000000
862442.000000
863315.000000
864241.000000
865187.000000
866111.000000
866982.000000
867784.000000
868488.000000
869190.000000
869952.000000
870981.000000
871893.000000
872740.000000
873536.000000
874254.000000
875044.000000
875983.000000
876866.000000
877758.000000
878631.000000
879399.000000
880144.000000
880876.000000
881633.000000
882459.000000
883387.000000
884225.000000
884974.000000
885702.000000
886436.000000
887294.000000
888283.000000
889196.000000
890092.000000
890907.000000
891659.000000
892362.000000
893071.000000
893856.000000
894856.000000
895738.000000
896614.000000
897493.000000
898370.000000
899216.000000
899981.000000
900656.000000
901324.000000
902042.000000
902918.000000
903829.000000
904715.000000
905590.000000
906485.000000
907366.000000
908211.000000
909000.000000
909725.000000
910433.000000
911140.000000
911892.000000
912789.000000
913753.000000
914655.000000
915504.000000
916269.000000
917000.000000
917747.000000
918511.000000
