ECG (ms)
464.000000
1268.000000
2068.000000
2885.000000
3674.000000
4426.000000
5193.000000
5972.000000
6760.000000
7583.000000
8386.000000
9186.000000
9981.000000
10782.000000
11564.000000
12346.000000
13128.000000
13911.000000
14694.000000
15486.000000
16295.000000
17092.000000
17895.000000
18684.000000
19469.000000
20257.000000
21080.000000
21884.000000
22690.000000
23489.000000
24298.000000
25081.000000
25859.000000
26635.000000
27425.000000
28204.000000
28995.000000
29795.000000
30600.000000
31390.000000
32183.000000
33005.000000
33806.000000
34602.000000
35395.000000
36183.000000
36967.000000
37750.000000
38542.000000
39330.000000
40118.000000
40909.000000
41700.000000
42494.000000
43288.000000
44092.000000
44880.000000
45668.000000
46453.000000
47237.000000
48009.000000
48782.000000
49566.000000
50338.000000
51111.000000
51881.000000
52651.000000
53431.000000
54215.000000
55016.000000
55802.000000
56589.000000
57388.000000
58196.000000
58983.000000
59765.000000
60554.000000
61328.000000
62104.000000
62876.000000
63666.000000
64451.000000
65254.000000
66064.000000
66872.000000
67685.000000
68503.000000
69311.000000
70096.000000
70874.000000
71656.000000
72424.000000
73187.000000
73950.000000
74725.000000
75489.000000
76263.000000
77058.000000
77839.000000
78621.000000
79395.000000
80168.000000
80926.000000
81669.000000
82396.000000
83116.000000
83880.000000
84662.000000
85463.000000
86295.000000
87112.000000
87908.000000
88693.000000
89485.000000
90259.000000
91031.000000
91799.000000
92592.000000
93383.000000
94177.000000
94967.000000
95787.000000
96592.000000
97393.000000
98200.000000
99013.000000
99805.000000
100601.000000
101397.000000
102204.000000
102989.000000
103774.000000
104561.000000
105364.000000
106144.000000
106926.000000
107715.000000
108516.000000
109297.000000
110086.000000
110881.000000
111670.000000
112455.000000
113245.000000
114044.000000
114825.000000
115601.000000
116375.000000
117166.000000
117940.000000
118717.000000
119512.000000
120310.000000
121101.000000
121885.000000
122687.000000
123477.000000
124265.000000
125052.000000
125850.000000
126635.000000
127421.000000
128217.000000
129017.000000
129822.000000
130633.000000
131451.000000
132251.000000
133051.000000
133869.000000
134674.000000
135471.000000
136271.000000
137087.000000
137882.000000
138673.000000
139482.000000
140292.000000
141084.000000
141880.000000
142693.000000
143493.000000
144286.000000
145072.000000
145861.000000
146638.000000
147419.000000
148211.000000
149017.000000
149822.000000
150636.000000
151468.000000
152271.000000
153063.000000
153857.000000
154635.000000
155417.000000
156203.000000
157006.000000
157805.000000
158608.000000
159436.000000
160250.000000
161057.000000
161858.000000
162662.000000
163445.000000
164226.000000
165014.000000
165813.000000
166603.000000
167409.000000
168234.000000
169065.000000
169872.000000
170679.000000
171502.000000
172299.000000
173100.000000
173902.000000
174704.000000
175494.000000
176291.000000
177103.000000
177913.000000
178719.000000
179537.000000
180359.000000
181158.000000
181956.000000
182754.000000
183541.000000
184322.000000
185105.000000
185900.000000
186683.000000
187472.000000
188266.000000
189079.000000
189876.000000
190672.000000
191490.000000
192298.000000
193090.000000
193875.000000
194677.000000
195487.000000
196287.000000
197095.000000
197921.000000
198758.000000
199560.000000
200358.000000
201152.000000
201968.000000
202774.000000
203579.000000
204391.000000
205234.000000
206064.000000
206891.000000
207722.000000
208565.000000
209375.000000
210168.000000
210951.000000
211748.000000
212535.000000
213319.000000
214108.000000
214926.000000
215739.000000
216556.000000
217396.000000
218242.000000
219060.000000
219884.000000
220716.000000
221539.000000
222333.000000
223129.000000
223937.000000
224733.000000
225529.000000
226330.000000
227150.000000
227947.000000
228758.000000
229583.000000
230389.000000
231200.000000
232017.000000
232847.000000
233659.000000
234479.000000
235308.000000
236133.000000
236945.000000
237758.000000
238588.000000
239400.000000
240220.000000
241049.000000
241885.000000
242710.000000
243535.000000
244354.000000
245137.000000
245883.000000
246629.000000
247414.000000
248226.000000
249016.000000
249807.000000
250609.000000
251425.000000
252235.000000
253041.000000
253852.000000
254681.000000
255487.000000
256296.000000
257121.000000
257954.000000
258755.000000
259552.000000
260353.000000
261139.000000
261928.000000
262723.000000
263542.000000
264349.000000
265166.000000
266007.000000
266830.000000
267651.000000
268461.000000
269272.000000
270065.000000
270853.000000
271661.000000
272454.000000
273246.000000
274040.000000
274847.000000
275638.000000
276436.000000
277247.000000
278048.000000
278860.000000
279678.000000
280511.000000
281318.000000
282127.000000
282939.000000
283740.000000
284525.000000
285314.000000
286115.000000
286914.000000
287717.000000
288516.000000
289322.000000
290117.000000
290912.000000
291728.000000
292535.000000
293346.000000
294163.000000
294994.000000
295788.000000
296584.000000
297393.000000
298185.000000
298950.000000
299723.000000
300522.000000
301339.000000
302138.000000
302949.000000
303767.000000
304569.000000
305369.000000
306166.000000
306973.000000
307763.000000
308561.000000
309391.000000
310232.000000
311037.000000
311841.000000
312644.000000
313430.000000
314223.000000
315015.000000
315826.000000
316628.000000
317435.000000
318248.000000
319061.000000
319861.000000
320655.000000
321456.000000
322234.000000
323010.000000
323793.000000
324626.000000
325458.000000
326300.000000
327146.000000
327976.000000
328790.000000
329600.000000
330423.000000
331223.000000
332021.000000
332824.000000
333619.000000
334419.000000
335221.000000
336036.000000
336834.000000
337630.000000
338427.000000
339226.000000
340022.000000
340816.000000
341627.000000
342428.000000
343227.000000
344031.000000
344835.000000
345618.000000
346408.000000
347213.000000
348016.000000
348804.000000
349608.000000
350441.000000
351300.000000
352149.000000
352978.000000
353802.000000
354627.000000
355423.000000
356222.000000
357030.000000
357839.000000
358633.000000
359429.000000
360233.000000
361038.000000
361852.000000
362676.000000
363516.000000
364334.000000
365149.000000
365960.000000
366778.000000
367571.000000
368366.000000
369165.000000
369976.000000
370777.000000
371584.000000
372405.000000
373269.000000
374100.000000
374925.000000
375741.000000
376557.000000
377355.000000
378164.000000
378992.000000
379813.000000
380625.000000
381440.000000
382240.000000
383001.000000
383770.000000
384550.000000
385351.000000
386178.000000
387023.000000
387851.000000
388665.000000
389480.000000
390289.000000
391078.000000
391874.000000
392682.000000
393471.000000
394265.000000
395062.000000
395884.000000
396693.000000
397516.000000
398372.000000
399208.000000
400026.000000
400861.000000
401705.000000
402523.000000
403341.000000
404163.000000
404999.000000
405817.000000
406628.000000
407456.000000
408283.000000
409089.000000
409898.000000
410725.000000
411575.000000
412385.000000
413194.000000
414006.000000
414841.000000
415644.000000
416462.000000
417304.000000
418121.000000
418942.000000
419770.000000
420589.000000
421388.000000
422192.000000
423019.000000
423827.000000
424641.000000
425471.000000
426296.000000
427124.000000
427958.000000
428790.000000
429607.000000
430431.000000
431247.000000
432062.000000
432867.000000
433688.000000
434545.000000
435380.000000
436205.000000
437025.000000
437862.000000
438697.000000
439524.000000
440354.000000
441228.000000
442061.000000
442888.000000
443720.000000
444564.000000
445370.000000
446173.000000
446990.000000
447841.000000
448659.000000
449477.000000
450310.000000
451153.000000
451977.000000
452820.000000
453681.000000
454503.000000
455329.000000
456147.000000
456951.000000
457740.000000
458529.000000
459332.000000
460130.000000
460931.000000
461732.000000
462559.000000
463363.000000
464172.000000
464993.000000
465801.000000
466603.000000
467406.000000
468218.000000
469003.000000
469788.000000
470586.000000
471382.000000
472167.000000
472965.000000
473790.000000
474589.000000
475376.000000
476165.000000
476950.000000
477717.000000
478488.000000
479284.000000
480071.000000
480864.000000
481657.000000
482458.000000
483238.000000
484024.000000
484826.000000
485620.000000
486422.000000
487226.000000
488031.000000
488814.000000
489603.000000
490411.000000
491213.000000
492017.000000
492827.000000
493652.000000
494446.000000
495246.000000
496052.000000
496868.000000
497666.000000
498472.000000
499295.000000
500114.000000
500937.000000
501765.000000
502613.000000
503427.000000
504241.000000
505057.000000
505878.000000
506685.000000
507500.000000
508322.000000
509177.000000
509997.000000
510822.000000
511644.000000
512476.000000
513280.000000
514094.000000
514919.000000
515763.000000
516583.000000
517409.000000
518244.000000
519080.000000
519890.000000
520710.000000
521548.000000
522361.000000
523172.000000
523992.000000
524841.000000
525665.000000
526506.000000
527360.000000
528209.000000
529023.000000
529839.000000
530669.000000
531475.000000
532284.000000
533106.000000
533945.000000
534769.000000
535602.000000
536460.000000
537300.000000
538142.000000
538990.000000
539839.000000
540657.000000
541479.000000
542307.000000
543119.000000
543938.000000
544771.000000
545644.000000
546490.000000
547351.000000
548213.000000
549044.000000
549874.000000
550708.000000
551545.000000
552352.000000
553169.000000
554020.000000
554911.000000
555759.000000
556605.000000
557472.000000
558363.000000
559221.000000
560063.000000
560912.000000
561765.000000
562597.000000
563433.000000
564275.000000
565128.000000
565947.000000
566794.000000
567646.000000
568494.000000
569341.000000
570197.000000
571079.000000
571922.000000
572762.000000
573612.000000
574466.000000
575296.000000
576142.000000
576995.000000
577838.000000
578663.000000
579499.000000
580363.000000
581212.000000
582069.000000
582922.000000
583800.000000
584649.000000
585505.000000
586368.000000
587211.000000
588021.000000
588831.000000
589673.000000
590564.000000
591419.000000
592286.000000
593164.000000
594009.000000
594841.000000
595667.000000
596483.000000
597290.000000
598097.000000
598930.000000
599745.000000
