ECG (ms)
1797.000000
2746.000000
3706.000000
4638.000000
5516.000000
6426.000000
7472.000000
8540.000000
9569.000000
10573.000000
11573.000000
12538.000000
13465.000000
14355.000000
16233.000000
17126.000000
18076.000000
19054.000000
20046.000000
21046.000000
22022.000000
23004.000000
23993.000000
24987.000000
25998.000000
26970.000000
27910.000000
28873.000000
29865.000000
30874.000000
31877.000000
32869.000000
33853.000000
34825.000000
35760.000000
37686.000000
38645.000000
39595.000000
40544.000000
41471.000000
42365.000000
43255.000000
44159.000000
45092.000000
46063.000000
47022.000000
47982.000000
48952.000000
49889.000000
50804.000000
51718.000000
53630.000000
54559.000000
55510.000000
56457.000000
57375.000000
58259.000000
59135.000000
60042.000000
60997.000000
61968.000000
62942.000000
63913.000000
64843.000000
65756.000000
66665.000000
68594.000000
69546.000000
70508.000000
71464.000000
72419.000000
73341.000000
74243.000000
75157.000000
76104.000000
77079.000000
78098.000000
79145.000000
80176.000000
81201.000000
82199.000000
83118.000000
84006.000000
84873.000000
85745.000000
86644.000000
87571.000000
88524.000000
89498.000000
90480.000000
91475.000000
92430.000000
93322.000000
94200.000000
95108.000000
96074.000000
97060.000000
98057.000000
99053.000000
100050.000000
101033.000000
101980.000000
103857.000000
104795.000000
105717.000000
106655.000000
107574.000000
108505.000000
109450.000000
110390.000000
111323.000000
112230.000000
113128.000000
114050.000000
114984.000000
115925.000000
116864.000000
117804.000000
118729.000000
119653.000000
120544.000000
122297.000000
123116.000000
123965.000000
124837.000000
125685.000000
126518.000000
127350.000000
128173.000000
128953.000000
129886.000000
130869.000000
131779.000000
132686.000000
133605.000000
134549.000000
135503.000000
136482.000000
137476.000000
138474.000000
139468.000000
140424.000000
141334.000000
142246.000000
143197.000000
144145.000000
145109.000000
146099.000000
147093.000000
148043.000000
149015.000000
149998.000000
150966.000000
151938.000000
152918.000000
153881.000000
154802.000000
155711.000000
156642.000000
157592.000000
158549.000000
159510.000000
160427.000000
161339.000000
162258.000000
163196.000000
164115.000000
165044.000000
165971.000000
166908.000000
167855.000000
168759.000000
169648.000000
170547.000000
172499.000000
173467.000000
174419.000000
175365.000000
176261.000000
177139.000000
178046.000000
178995.000000
179971.000000
180961.000000
181951.000000
182895.000000
183785.000000
184650.000000
185526.000000
186434.000000
187369.000000
188330.000000
189288.000000
190237.000000
191174.000000
192080.000000
192954.000000
193811.000000
194680.000000
195581.000000
196515.000000
197464.000000
198415.000000
199364.000000
200295.000000
201171.000000
202041.000000
202941.000000
203875.000000
204816.000000
205775.000000
206730.000000
207639.000000
208512.000000
209395.000000
210287.000000
211190.000000
212098.000000
213030.000000
213949.000000
214837.000000
215720.000000
216607.000000
218465.000000
219394.000000
220330.000000
221243.000000
222119.000000
222987.000000
223847.000000
224702.000000
225551.000000
226413.000000
227250.000000
228054.000000
228861.000000
229728.000000
230578.000000
231471.000000
232418.000000
233365.000000
234368.000000
235352.000000
236299.000000
237213.000000
238143.000000
239086.000000
240031.000000
240980.000000
241869.000000
242748.000000
243668.000000
244598.000000
245536.000000
246504.000000
247467.000000
248398.000000
249302.000000
250211.000000
251158.000000
252113.000000
253074.000000
254037.000000
254988.000000
255943.000000
256839.000000
257708.000000
258588.000000
259512.000000
260448.000000
261420.000000
262375.000000
263301.000000
264244.000000
265210.000000
266196.000000
267188.000000
268143.000000
269067.000000
269985.000000
270928.000000
271886.000000
272860.000000
273850.000000
274857.000000
275808.000000
276740.000000
278680.000000
279651.000000
280628.000000
281590.000000
282509.000000
283426.000000
284339.000000
285282.000000
286259.000000
287234.000000
288213.000000
289189.000000
290149.000000
291072.000000
291959.000000
293832.000000
294727.000000
295620.000000
296503.000000
297388.000000
298259.000000
299124.000000
300011.000000
300933.000000
301877.000000
302830.000000
303782.000000
304729.000000
305640.000000
306509.000000
307381.000000
308274.000000
309159.000000
310047.000000
310910.000000
311766.000000
312655.000000
313542.000000
314434.000000
315332.000000
316221.000000
317092.000000
317934.000000
318768.000000
319630.000000
320504.000000
321385.000000
322281.000000
323203.000000
324127.000000
325023.000000
325878.000000
326719.000000
327574.000000
328451.000000
329335.000000
330253.000000
331196.000000
332164.000000
333132.000000
334076.000000
335053.000000
336039.000000
337037.000000
338028.000000
338994.000000
339896.000000
340809.000000
341733.000000
342665.000000
343611.000000
344577.000000
345499.000000
346392.000000
347302.000000
348212.000000
349149.000000
350102.000000
351048.000000
351945.000000
352829.000000
353755.000000
355663.000000
356580.000000
357421.000000
358222.000000
359024.000000
359899.000000
360859.000000
361831.000000
362832.000000
363818.000000
364766.000000
365693.000000
366645.000000
368585.000000
369517.000000
370434.000000
371303.000000
372132.000000
372963.000000
373820.000000
374718.000000
375634.000000
376575.000000
377517.000000
378447.000000
379412.000000
380384.000000
381347.000000
382256.000000
383124.000000
383991.000000
384874.000000
385783.000000
386699.000000
387625.000000
388534.000000
389419.000000
390282.000000
391150.000000
392052.000000
392986.000000
393932.000000
394888.000000
395802.000000
396702.000000
397608.000000
399536.000000
400475.000000
401363.000000
402240.000000
403147.000000
404092.000000
405067.000000
406055.000000
407044.000000
407995.000000
408915.000000
409851.000000
410791.000000
411737.000000
412689.000000
413606.000000
414502.000000
416382.000000
417300.000000
418198.000000
419042.000000
419874.000000
420728.000000
421635.000000
422568.000000
423523.000000
424468.000000
425386.000000
426313.000000
427249.000000
428192.000000
429126.000000
430039.000000
430897.000000
431755.000000
432627.000000
433544.000000
434486.000000
435445.000000
436379.000000
437286.000000
438177.000000
439082.000000
439925.000000
440742.000000
441541.000000
442416.000000
443290.000000
444144.000000
444980.000000
445825.000000
446643.000000
447464.000000
448305.000000
449141.000000
449943.000000
450764.000000
451595.000000
452415.000000
453254.000000
454138.000000
455043.000000
455966.000000
456891.000000
457780.000000
458653.000000
459535.000000
460459.000000
461412.000000
462377.000000
463365.000000
464341.000000
465267.000000
466209.000000
467175.000000
468160.000000
469171.000000
470180.000000
471177.000000
472161.000000
473120.000000
474064.000000
475056.000000
476042.000000
477033.000000
478036.000000
479022.000000
479964.000000
480905.000000
481846.000000
482825.000000
483824.000000
484836.000000
485839.000000
486818.000000
487752.000000
488631.000000
489492.000000
490345.000000
491150.000000
491904.000000
492647.000000
493371.000000
494107.000000
494924.000000
495850.000000
496836.000000
497784.000000
498727.000000
499647.000000
500567.000000
501544.000000
502527.000000
503503.000000
504477.000000
505421.000000
506377.000000
507354.000000
508351.000000
509332.000000
510326.000000
511339.000000
512345.000000
513346.000000
514305.000000
516258.000000
517240.000000
518207.000000
519166.000000
520098.000000
520998.000000
521911.000000
522841.000000
523782.000000
524743.000000
525726.000000
526715.000000
527660.000000
528602.000000
529567.000000
531505.000000
532438.000000
533336.000000
534227.000000
535129.000000
536031.000000
536964.000000
537922.000000
538879.000000
539833.000000
540817.000000
541810.000000
542802.000000
543758.000000
544686.000000
545611.000000
547534.000000
548521.000000
549511.000000
550479.000000
551419.000000
552343.000000
553289.000000
554279.000000
555251.000000
556241.000000
557237.000000
558227.000000
559198.000000
560122.000000
561038.000000
561981.000000
562925.000000
563880.000000
564829.000000
565787.000000
566760.000000
567717.000000
568643.000000
569548.000000
570473.000000
571426.000000
572394.000000
573355.000000
574304.000000
575248.000000
576243.000000
577201.000000
578168.000000
579096.000000
579988.000000
580884.000000
581814.000000
582711.000000
583586.000000
584434.000000
585290.000000
586115.000000
586941.000000
587835.000000
588720.000000
589588.000000
590493.000000
591428.000000
592378.000000
593355.000000
594329.000000
595273.000000
596246.000000
597236.000000
599266.000000
600266.000000
601212.000000
602149.000000
603140.000000
604153.000000
605184.000000
606223.000000
607245.000000
608206.000000
609158.000000
610135.000000
612153.000000
613136.000000
614125.000000
615077.000000
616062.000000
617090.000000
618128.000000
619165.000000
620170.000000
621160.000000
622152.000000
623133.000000
624111.000000
625082.000000
626048.000000
627022.000000
627969.000000
628887.000000
629769.000000
630662.000000
631606.000000
632556.000000
633518.000000
634473.000000
635375.000000
636239.000000
637111.000000
638016.000000
638927.000000
639851.000000
640800.000000
641754.000000
642719.000000
643645.000000
644531.000000
645441.000000
646372.000000
647328.000000
648324.000000
649332.000000
650339.000000
651312.000000
652246.000000
653188.000000
654149.000000
655103.000000
656056.000000
656975.000000
657858.000000
658719.000000
659587.000000
660441.000000
661243.000000
662030.000000
662886.000000
663759.000000
664620.000000
665458.000000
666295.000000
667122.000000
667898.000000
668659.000000
669398.000000
670133.000000
670948.000000
671845.000000
672749.000000
673624.000000
674550.000000
675488.000000
676468.000000
678340.000000
679249.000000
680186.000000
681119.000000
682064.000000
683004.000000
683907.000000
684788.000000
685684.000000
686606.000000
687536.000000
688471.000000
689388.000000
690300.000000
691244.000000
692228.000000
693222.000000
694183.000000
695120.000000
696062.000000
697049.000000
698058.000000
699053.000000
700010.000000
700963.000000
701947.000000
702938.000000
703943.000000
704943.000000
705935.000000
706920.000000
707870.000000
708813.000000
709768.000000
710728.000000
711708.000000
712700.000000
713681.000000
714658.000000
715610.000000
716562.000000
718512.000000
719453.000000
720385.000000
721324.000000
722279.000000
723250.000000
724228.000000
725208.000000
726185.000000
727129.000000
728019.000000
728899.000000
730704.000000
731584.000000
732452.000000
733293.000000
734145.000000
735037.000000
735962.000000
736929.000000
737890.000000
738838.000000
739758.000000
740701.000000
741655.000000
742615.000000
743575.000000
744470.000000
745354.000000
747249.000000
748166.000000
749087.000000
750011.000000
750945.000000
751915.000000
752899.000000
753845.000000
754780.000000
755742.000000
756701.000000
757666.000000
758644.000000
759615.000000
760581.000000
761515.000000
762396.000000
763251.000000
764138.000000
765065.000000
766014.000000
767006.000000
768022.000000
769046.000000
770037.000000
771002.000000
771967.000000
772913.000000
773823.000000
774703.000000
775591.000000
776506.000000
777436.000000
778371.000000
779225.000000
780065.000000
780929.000000
781844.000000
782773.000000
783707.000000
784616.000000
785481.000000
786345.000000
787241.000000
788159.000000
789107.000000
790066.000000
791022.000000
791940.000000
792818.000000
793718.000000
794579.000000
795382.000000
796178.000000
797064.000000
797901.000000
798711.000000
799535.000000
800421.000000
801300.000000
802146.000000
802961.000000
803795.000000
804603.000000
805383.000000
806129.000000
806885.000000
807728.000000
808608.000000
809579.000000
810510.000000
811408.000000
812264.000000
813100.000000
813952.000000
814857.000000
815786.000000
816725.000000
817654.000000
818558.000000
819475.000000
820443.000000
821429.000000
822415.000000
823403.000000
824384.000000
825325.000000
826248.000000
827206.000000
828178.000000
829163.000000
830168.000000
831126.000000
832061.000000
833030.000000
835012.000000
835993.000000
836922.000000
837807.000000
838686.000000
839645.000000
840635.000000
841660.000000
842698.000000
843704.000000
844688.000000
845692.000000
846706.000000
847719.000000
848733.000000
849717.000000
850661.000000
851611.000000
853576.000000
854551.000000
855514.000000
856460.000000
857397.000000
858344.000000
859310.000000
860301.000000
861295.000000
862247.000000
863233.000000
864236.000000
865240.000000
866249.000000
867299.000000
868360.000000
869403.000000
870400.000000
872363.000000
873318.000000
874206.000000
875058.000000
875903.000000
876741.000000
877607.000000
878519.000000
879457.000000
880420.000000
881388.000000
882351.000000
883303.000000
884217.000000
885079.000000
885912.000000
886775.000000
887667.000000
888599.000000
889556.000000
890480.000000
891359.000000
892224.000000
893126.000000
894048.000000
895020.000000
896011.000000
896981.000000
897908.000000
898798.000000
899687.000000
900602.000000
901570.000000
902557.000000
903542.000000
904538.000000
905470.000000
906405.000000
907374.000000
908343.000000
909326.000000
910308.000000
911285.000000
912259.000000
913196.000000
914098.000000
915001.000000
916823.000000
917755.000000
918717.000000
919657.000000
