ECG (ms)
588.000000
1398.000000
2160.000000
2908.000000
3634.000000
4348.000000
5054.000000
5747.000000
6483.000000
7310.000000
8214.000000
9109.000000
9976.000000
10832.000000
11679.000000
12531.000000
13350.000000
14157.000000
14989.000000
15866.000000
16765.000000
17673.000000
18541.000000
19394.000000
20240.000000
21078.000000
21924.000000
22758.000000
23590.000000
24439.000000
25290.000000
26122.000000
26942.000000
27756.000000
28590.000000
29429.000000
30259.000000
31060.000000
31827.000000
32577.000000
33358.000000
34184.000000
34993.000000
35769.000000
36544.000000
37347.000000
38187.000000
38996.000000
39806.000000
40638.000000
41487.000000
42338.000000
43171.000000
44003.000000
44819.000000
45646.000000
46457.000000
47260.000000
48086.000000
48945.000000
49816.000000
50644.000000
51505.000000
52367.000000
53198.000000
54007.000000
54820.000000
55649.000000
56505.000000
57338.000000
58143.000000
58954.000000
59778.000000
60593.000000
61375.000000
62151.000000
62932.000000
63742.000000
64559.000000
65353.000000
66171.000000
67029.000000
67943.000000
68841.000000
69682.000000
70484.000000
71290.000000
72104.000000
72959.000000
73811.000000
74648.000000
75447.000000
76248.000000
77062.000000
77917.000000
78768.000000
79578.000000
80367.000000
81158.000000
81960.000000
82766.000000
83563.000000
84335.000000
85118.000000
85927.000000
86754.000000
87574.000000
88389.000000
89197.000000
90005.000000
90793.000000
91558.000000
92350.000000
93166.000000
94009.000000
94821.000000
95634.000000
96459.000000
97322.000000
98162.000000
98998.000000
99846.000000
100698.000000
101518.000000
102302.000000
103102.000000
103921.000000
104782.000000
105616.000000
106435.000000
107265.000000
108101.000000
108938.000000
109747.000000
110551.000000
111357.000000
112161.000000
112953.000000
113739.000000
114526.000000
115345.000000
116156.000000
116952.000000
117750.000000
118538.000000
119318.000000
120079.000000
120830.000000
121601.000000
122399.000000
123204.000000
123982.000000
124777.000000
125568.000000
126364.000000
127125.000000
127902.000000
128692.000000
129493.000000
130273.000000
131028.000000
131795.000000
132587.000000
133423.000000
134221.000000
134988.000000
135765.000000
136541.000000
137340.000000
138125.000000
138914.000000
139727.000000
140550.000000
141338.000000
142114.000000
142906.000000
143711.000000
144512.000000
145299.000000
146103.000000
146931.000000
147775.000000
148578.000000
149376.000000
150170.000000
150969.000000
151748.000000
152526.000000
153305.000000
154103.000000
154901.000000
155688.000000
156484.000000
157280.000000
158085.000000
158893.000000
159658.000000
160443.000000
161245.000000
162085.000000
162902.000000
163715.000000
164535.000000
165371.000000
166167.000000
166944.000000
167731.000000
168531.000000
169323.000000
170092.000000
170873.000000
171678.000000
172503.000000
173319.000000
174130.000000
174964.000000
175792.000000
176592.000000
177355.000000
178128.000000
178936.000000
179787.000000
180645.000000
181496.000000
182343.000000
183183.000000
183955.000000
184693.000000
185427.000000
186197.000000
187056.000000
187951.000000
188809.000000
189660.000000
190490.000000
191290.000000
192093.000000
192896.000000
193731.000000
194554.000000
195382.000000
196214.000000
197064.000000
197892.000000
198683.000000
199455.000000
200238.000000
201028.000000
201817.000000
202617.000000
203454.000000
204304.000000
205119.000000
205915.000000
206706.000000
207503.000000
208310.000000
209120.000000
209945.000000
210800.000000
211677.000000
212528.000000
213356.000000
214182.000000
215004.000000
215828.000000
216636.000000
217430.000000
218220.000000
219045.000000
219904.000000
220755.000000
221570.000000
222390.000000
223222.000000
224064.000000
224886.000000
225692.000000
226496.000000
227303.000000
228101.000000
228912.000000
229720.000000
230546.000000
231395.000000
232237.000000
233055.000000
233884.000000
234732.000000
235549.000000
236341.000000
237142.000000
237968.000000
238814.000000
239632.000000
240422.000000
241213.000000
242016.000000
242805.000000
243590.000000
244383.000000
245234.000000
246142.000000
246993.000000
247814.000000
248640.000000
249468.000000
250281.000000
251090.000000
251867.000000
252669.000000
253504.000000
254303.000000
255044.000000
255786.000000
256550.000000
257342.000000
258159.000000
258969.000000
259782.000000
260614.000000
261454.000000
262270.000000
263061.000000
263851.000000
264650.000000
265460.000000
266259.000000
267031.000000
267818.000000
268626.000000
269442.000000
270254.000000
271051.000000
271821.000000
272597.000000
273382.000000
274204.000000
275017.000000
275812.000000
276621.000000
277479.000000
278363.000000
279207.000000
280022.000000
280835.000000
281630.000000
282432.000000
283232.000000
284026.000000
284838.000000
285674.000000
286502.000000
287319.000000
288109.000000
288913.000000
289722.000000
290556.000000
291377.000000
292190.000000
293012.000000
293849.000000
294679.000000
295484.000000
296301.000000
297107.000000
297912.000000
298706.000000
299486.000000
300276.000000
301106.000000
301950.000000
302757.000000
303523.000000
304283.000000
305058.000000
305840.000000
306581.000000
307300.000000
308033.000000
308792.000000
309575.000000
310364.000000
311141.000000
311932.000000
312735.000000
313513.000000
314275.000000
315045.000000
315833.000000
316636.000000
317419.000000
318193.000000
319000.000000
319827.000000
320644.000000
321416.000000
322183.000000
322960.000000
323747.000000
324513.000000
325263.000000
326026.000000
326821.000000
327652.000000
328469.000000
329279.000000
330097.000000
330919.000000
331721.000000
332496.000000
333265.000000
334034.000000
334821.000000
335627.000000
336461.000000
337292.000000
338128.000000
338949.000000
339744.000000
340545.000000
341350.000000
342164.000000
342965.000000
343763.000000
344565.000000
345365.000000
346174.000000
346963.000000
347750.000000
348546.000000
349341.000000
350180.000000
351046.000000
351902.000000
352742.000000
353538.000000
354331.000000
355137.000000
355969.000000
356818.000000
357648.000000
358481.000000
359331.000000
360207.000000
361014.000000
361772.000000
362518.000000
363259.000000
364008.000000
364771.000000
365554.000000
366387.000000
367289.000000
368191.000000
369072.000000
369933.000000
370774.000000
371587.000000
372395.000000
373243.000000
374122.000000
374967.000000
375789.000000
376622.000000
377488.000000
378349.000000
379172.000000
379964.000000
380770.000000
381606.000000
382481.000000
383322.000000
384143.000000
384919.000000
385723.000000
386575.000000
387440.000000
388316.000000
389165.000000
389969.000000
390778.000000
391600.000000
392439.000000
393245.000000
394026.000000
394824.000000
395630.000000
396432.000000
397246.000000
398073.000000
398915.000000
399744.000000
400547.000000
401378.000000
402203.000000
403023.000000
403812.000000
404600.000000
405382.000000
406175.000000
406969.000000
407745.000000
408534.000000
409324.000000
410107.000000
410883.000000
411666.000000
412464.000000
413287.000000
414091.000000
414898.000000
415703.000000
416494.000000
417267.000000
418043.000000
418829.000000
419616.000000
420397.000000
421187.000000
421996.000000
422861.000000
423671.000000
424471.000000
425269.000000
426077.000000
426864.000000
427641.000000
428446.000000
429258.000000
430038.000000
430818.000000
431597.000000
432383.000000
433166.000000
433936.000000
434701.000000
435472.000000
436245.000000
437010.000000
437785.000000
438565.000000
439340.000000
440092.000000
440846.000000
441613.000000
442408.000000
443186.000000
443962.000000
444747.000000
445562.000000
446361.000000
447132.000000
447866.000000
448580.000000
449295.000000
450035.000000
450830.000000
451639.000000
452446.000000
453270.000000
454105.000000
454941.000000
455745.000000
456563.000000
457370.000000
458200.000000
459006.000000
459793.000000
460572.000000
461357.000000
462142.000000
462941.000000
463736.000000
464550.000000
465378.000000
466193.000000
466996.000000
467805.000000
468611.000000
469404.000000
470200.000000
470996.000000
471812.000000
472643.000000
473464.000000
474261.000000
475064.000000
475865.000000
476673.000000
477454.000000
478252.000000
479069.000000
479941.000000
480816.000000
481637.000000
482449.000000
483246.000000
484059.000000
484884.000000
485690.000000
486561.000000
487497.000000
488399.000000
489237.000000
490016.000000
490786.000000
491584.000000
492425.000000
493290.000000
494231.000000
495170.000000
496098.000000
496982.000000
497860.000000
498726.000000
499568.000000
500404.000000
501273.000000
502196.000000
503099.000000
503948.000000
504771.000000
505595.000000
506452.000000
507308.000000
508167.000000
509050.000000
509947.000000
510782.000000
511568.000000
512340.000000
513109.000000
513927.000000
514773.000000
515660.000000
516575.000000
517486.000000
518366.000000
519232.000000
520100.000000
520966.000000
521797.000000
522623.000000
523455.000000
524271.000000
525074.000000
525892.000000
526781.000000
527641.000000
528460.000000
529282.000000
530110.000000
530931.000000
531741.000000
532564.000000
533419.000000
534295.000000
535154.000000
536020.000000
536882.000000
537745.000000
538616.000000
539436.000000
540237.000000
541038.000000
541844.000000
542646.000000
543464.000000
544319.000000
545207.000000
546070.000000
546949.000000
547851.000000
548755.000000
549606.000000
550439.000000
551263.000000
552065.000000
552862.000000
553684.000000
554521.000000
555357.000000
556188.000000
557040.000000
557896.000000
558712.000000
559505.000000
560311.000000
561133.000000
561923.000000
562711.000000
563510.000000
564328.000000
565138.000000
565954.000000
566777.000000
567607.000000
568429.000000
569247.000000
570046.000000
570845.000000
571659.000000
572513.000000
573383.000000
574202.000000
574988.000000
575769.000000
576568.000000
577477.000000
578390.000000
579254.000000
580114.000000
581012.000000
581937.000000
582816.000000
583674.000000
584575.000000
585503.000000
586374.000000
587207.000000
588040.000000
588892.000000
589739.000000
590566.000000
591432.000000
592375.000000
593256.000000
594090.000000
594949.000000
595841.000000
596720.000000
597613.000000
598493.000000
599344.000000
600153.000000
600970.000000
601818.000000
602730.000000
603642.000000
604506.000000
605382.000000
606269.000000
607142.000000
607970.000000
608757.000000
609538.000000
610342.000000
611255.000000
612169.000000
613171.000000
614206.000000
615197.000000
616102.000000
616998.000000
617881.000000
618731.000000
619569.000000
620426.000000
621373.000000
622356.000000
623359.000000
624281.000000
625161.000000
626022.000000
626866.000000
627700.000000
628558.000000
629459.000000
630318.000000
631163.000000
632043.000000
632948.000000
633849.000000
634715.000000
635575.000000
636428.000000
637267.000000
638093.000000
638933.000000
639785.000000
640653.000000
641499.000000
642329.000000
643168.000000
644010.000000
644841.000000
645681.000000
646524.000000
647367.000000
648197.000000
649019.000000
649845.000000
650680.000000
651488.000000
652303.000000
653136.000000
653993.000000
654829.000000
655662.000000
656472.000000
657278.000000
658080.000000
658849.000000
659609.000000
660382.000000
661204.000000
662149.000000
663035.000000
663896.000000
664743.000000
665581.000000
666391.000000
667207.000000
668033.000000
668913.000000
669760.000000
670573.000000
671406.000000
672288.000000
673139.000000
673991.000000
674853.000000
675678.000000
676485.000000
677310.000000
678153.000000
679002.000000
679858.000000
680779.000000
681724.000000
682663.000000
683531.000000
684367.000000
685210.000000
686044.000000
686879.000000
687735.000000
688663.000000
689558.000000
690470.000000
691342.000000
692245.000000
693151.000000
694059.000000
694928.000000
695766.000000
696617.000000
697521.000000
698427.000000
699292.000000
700161.000000
701081.000000
701997.000000
702855.000000
703687.000000
704559.000000
705584.000000
706547.000000
707438.000000
708320.000000
709209.000000
710112.000000
711008.000000
711914.000000
712850.000000
713788.000000
714659.000000
715450.000000
716219.000000
717011.000000
717896.000000
718761.000000
719644.000000
720569.000000
721464.000000
722335.000000
723225.000000
724100.000000
724946.000000
725726.000000
726480.000000
727250.000000
728065.000000
728920.000000
729815.000000
730670.000000
731505.000000
732352.000000
733199.000000
734038.000000
734859.000000
735662.000000
736492.000000
737357.000000
738293.000000
739245.000000
740142.000000
741013.000000
741865.000000
742743.000000
743592.000000
744423.000000
745279.000000
746154.000000
747080.000000
747928.000000
748742.000000
749595.000000
750487.000000
751340.000000
752166.000000
752945.000000
753698.000000
754482.000000
755320.000000
756172.000000
756974.000000
757768.000000
758589.000000
759424.000000
760217.000000
760996.000000
761796.000000
762620.000000
763469.000000
764307.000000
765131.000000
765957.000000
766777.000000
767567.000000
768364.000000
769188.000000
770027.000000
770852.000000
771657.000000
772465.000000
773292.000000
774112.000000
774931.000000
775752.000000
776584.000000
777419.000000
778226.000000
779004.000000
779783.000000
780582.000000
781420.000000
782235.000000
783029.000000
783829.000000
784624.000000
785418.000000
786220.000000
787016.000000
787803.000000
788599.000000
789407.000000
790210.000000
791002.000000
791797.000000
792625.000000
793468.000000
794277.000000
795077.000000
795893.000000
796747.000000
797600.000000
798419.000000
799211.000000
800020.000000
800829.000000
801683.000000
802476.000000
803252.000000
804039.000000
804857.000000
805757.000000
806706.000000
807586.000000
808461.000000
809345.000000
810211.000000
811022.000000
811805.000000
812604.000000
813472.000000
814403.000000
815290.000000
816205.000000
817173.000000
818111.000000
819006.000000
819902.000000
820801.000000
821668.000000
822496.000000
823321.000000
824173.000000
825054.000000
825917.000000
826769.000000
827651.000000
828560.000000
829405.000000
830236.000000
831070.000000
831924.000000
832774.000000
833625.000000
834521.000000
835445.000000
836336.000000
837169.000000
837997.000000
838824.000000
839645.000000
840436.000000
841193.000000
841976.000000
842842.000000
843738.000000
844620.000000
845466.000000
846354.000000
847325.000000
848281.000000
849217.000000
850117.000000
850993.000000
851856.000000
852733.000000
853606.000000
854564.000000
855534.000000
856473.000000
857365.000000
858197.000000
859022.000000
859954.000000
861060.000000
862009.000000
862922.000000
863882.000000
864827.000000
865739.000000
866626.000000
867541.000000
868489.000000
869421.000000
870316.000000
871200.000000
872106.000000
872998.000000
873845.000000
874693.000000
875507.000000
876333.000000
877153.000000
877981.000000
878855.000000
879697.000000
880484.000000
881304.000000
882204.000000
883208.000000
884112.000000
884968.000000
885810.000000
886663.000000
887494.000000
888326.000000
889242.000000
890228.000000
891202.000000
892127.000000
893060.000000
893981.000000
894900.000000
895814.000000
896686.000000
897555.000000
898456.000000
