ECG (ms)
882.000000
1752.000000
2684.000000
3585.000000
4477.000000
5346.000000
6156.000000
7044.000000
7967.000000
8805.000000
9750.000000
10631.000000
11491.000000
12485.000000
13369.000000
14256.000000
15150.000000
16040.000000
16857.000000
17735.000000
18574.000000
19353.000000
20160.000000
20959.000000
21902.000000
22914.000000
23732.000000
24607.000000
25669.000000
26767.000000
27614.000000
28496.000000
29437.000000
30288.000000
31141.000000
32137.000000
33068.000000
33896.000000
34819.000000
35810.000000
36687.000000
37620.000000
38622.000000
39499.000000
40471.000000
41420.000000
42289.000000
43213.000000
44107.000000
44948.000000
45873.000000
46756.000000
47716.000000
48596.000000
49447.000000
50341.000000
51209.000000
52089.000000
53042.000000
53958.000000
54802.000000
55720.000000
56615.000000
57457.000000
58369.000000
59257.000000
60124.000000
61043.000000
61912.000000
62855.000000
63941.000000
64837.000000
65790.000000
66810.000000
67683.000000
68585.000000
69611.000000
70481.000000
71422.000000
72367.000000
73230.000000
74248.000000
75179.000000
76024.000000
76992.000000
77928.000000
78774.000000
79711.000000
80644.000000
81494.000000
82268.000000
83071.000000
84416.000000
85530.000000
86520.000000
87348.000000
88205.000000
89095.000000
89931.000000
90836.000000
91755.000000
92603.000000
93547.000000
94527.000000
95413.000000
96432.000000
97327.000000
98194.000000
99145.000000
100034.000000
100904.000000
101827.000000
102689.000000
103620.000000
104538.000000
105410.000000
106346.000000
107231.000000
108179.000000
109038.000000
109850.000000
110737.000000
111712.000000
112567.000000
113417.000000
114324.000000
115200.000000
116067.000000
117211.000000
117934.000000
118780.000000
119570.000000
120410.000000
121319.000000
122219.000000
123140.000000
123984.000000
124830.000000
125730.000000
126617.000000
127478.000000
128405.000000
129290.000000
130147.000000
131084.000000
131998.000000
132856.000000
133840.000000
134733.000000
135641.000000
136551.000000
137423.000000
138372.000000
139267.000000
140193.000000
141151.000000
142027.000000
142899.000000
143848.000000
144746.000000
145610.000000
146545.000000
147496.000000
148361.000000
149228.000000
150145.000000
151043.000000
151916.000000
152763.000000
153534.000000
154331.000000
155180.000000
156116.000000
156990.000000
157896.000000
158867.000000
159763.000000
160686.000000
161660.000000
162529.000000
163421.000000
164331.000000
165206.000000
166086.000000
167055.000000
167980.000000
168822.000000
169696.000000
170584.000000
171415.000000
172264.000000
173599.000000
174657.000000
175717.000000
176653.000000
177530.000000
178405.000000
179289.000000
180101.000000
180959.000000
181922.000000
182762.000000
183643.000000
184742.000000
185719.000000
186671.000000
187530.000000
188352.000000
189240.000000
190193.000000
191041.000000
191946.000000
193254.000000
194252.000000
195273.000000
196285.000000
197139.000000
198002.000000
198951.000000
199895.000000
200794.000000
201746.000000
202620.000000
203508.000000
204420.000000
205308.000000
206218.000000
207145.000000
208071.000000
208939.000000
209899.000000
210846.000000
211736.000000
212589.000000
213515.000000
214436.000000
215313.000000
216264.000000
217168.000000
218018.000000
218921.000000
219818.000000
220661.000000
221586.000000
222538.000000
223380.000000
224267.000000
225104.000000
225973.000000
226884.000000
227738.000000
228634.000000
229540.000000
230391.000000
231285.000000
232121.000000
232940.000000
233686.000000
234452.000000
235257.000000
236051.000000
236843.000000
237584.000000
238691.000000
239542.000000
240474.000000
241362.000000
242211.000000
243184.000000
244232.000000
245126.000000
246099.000000
247052.000000
247913.000000
248800.000000
249678.000000
250532.000000
251462.000000
252376.000000
253297.000000
254239.000000
255200.000000
256143.000000
256980.000000
257865.000000
258821.000000
259748.000000
260641.000000
261701.000000
262690.000000
263560.000000
264461.000000
265300.000000
266177.000000
267100.000000
267976.000000
268887.000000
270002.000000
270943.000000
271956.000000
272898.000000
273751.000000
274692.000000
275663.000000
276535.000000
277428.000000
278424.000000
279331.000000
280173.000000
281085.000000
281966.000000
282791.000000
283698.000000
285014.000000
286061.000000
287084.000000
288028.000000
288847.000000
289745.000000
290690.000000
291597.000000
292540.000000
293434.000000
294283.000000
295197.000000
296095.000000
296973.000000
297817.000000
298640.000000
299499.000000
300365.000000
301248.000000
302132.000000
303017.000000
303835.000000
304639.000000
305580.000000
306445.000000
307252.000000
308188.000000
309152.000000
310083.000000
310992.000000
311886.000000
312707.000000
313516.000000
314451.000000
315483.000000
316429.000000
317348.000000
318175.000000
318974.000000
319854.000000
321191.000000
322338.000000
323356.000000
324222.000000
325068.000000
325943.000000
326850.000000
327697.000000
328540.000000
329433.000000
330348.000000
331260.000000
332129.000000
332992.000000
333813.000000
334635.000000
335407.000000
336231.000000
337063.000000
337907.000000
338795.000000
339683.000000
340530.000000
341361.000000
342237.000000
343119.000000
343915.000000
344716.000000
345550.000000
346366.000000
347355.000000
348311.000000
349244.000000
350095.000000
350943.000000
351844.000000
352726.000000
353570.000000
354465.000000
355357.000000
356249.000000
357097.000000
357953.000000
358861.000000
359728.000000
360603.000000
361518.000000
362374.000000
363298.000000
364201.000000
365059.000000
365994.000000
366928.000000
367796.000000
368730.000000
369613.000000
370499.000000
371440.000000
372414.000000
373296.000000
374235.000000
375182.000000
376034.000000
376816.000000
377599.000000
378430.000000
379386.000000
380247.000000
381179.000000
382114.000000
382967.000000
383912.000000
384883.000000
385763.000000
386702.000000
387663.000000
388572.000000
389491.000000
390325.000000
391143.000000
392063.000000
393032.000000
393913.000000
394908.000000
395960.000000
396875.000000
397745.000000
398702.000000
399624.000000
400497.000000
401500.000000
402449.000000
403353.000000
404335.000000
405303.000000
406166.000000
407166.000000
408142.000000
408995.000000
409931.000000
410884.000000
411761.000000
412702.000000
413773.000000
414740.000000
415653.000000
416515.000000
417441.000000
418329.000000
419247.000000
420206.000000
421112.000000
421973.000000
422917.000000
423877.000000
424748.000000
425723.000000
426662.000000
427554.000000
428479.000000
429371.000000
430276.000000
431202.000000
432077.000000
432997.000000
433997.000000
434900.000000
435775.000000
436721.000000
437617.000000
438515.000000
439442.000000
440370.000000
441210.000000
442131.000000
443458.000000
444436.000000
445354.000000
446251.000000
447105.000000
447901.000000
448762.000000
449649.000000
450502.000000
451404.000000
452257.000000
453126.000000
453973.000000
454986.000000
455946.000000
456870.000000
457856.000000
458746.000000
459689.000000
460640.000000
461596.000000
462551.000000
463439.000000
464386.000000
465346.000000
466228.000000
467132.000000
468049.000000
468934.000000
469858.000000
470814.000000
471700.000000
472568.000000
473510.000000
474604.000000
475620.000000
476509.000000
477375.000000
478285.000000
479157.000000
480006.000000
480952.000000
481882.000000
482769.000000
483709.000000
484595.000000
485497.000000
486445.000000
487357.000000
488275.000000
489161.000000
490050.000000
490955.000000
491816.000000
492698.000000
493639.000000
494596.000000
495473.000000
496369.000000
497367.000000
498324.000000
499155.000000
500040.000000
500938.000000
501780.000000
502600.000000
503516.000000
504540.000000
505438.000000
506312.000000
507236.000000
508255.000000
509173.000000
510038.000000
510951.000000
511863.000000
512783.000000
513652.000000
514487.000000
515417.000000
516409.000000
517312.000000
518166.000000
519074.000000
519992.000000
520870.000000
521748.000000
522678.000000
523619.000000
524560.000000
525499.000000
526375.000000
527253.000000
528134.000000
529029.000000
529879.000000
530802.000000
531726.000000
532578.000000
533468.000000
534372.000000
535231.000000
536005.000000
536840.000000
537668.000000
538468.000000
539295.000000
540186.000000
541036.000000
541907.000000
542820.000000
543687.000000
544524.000000
545425.000000
546336.000000
547179.000000
548017.000000
548928.000000
549881.000000
550758.000000
551651.000000
552603.000000
553554.000000
554489.000000
555399.000000
556242.000000
557122.000000
558021.000000
558899.000000
559812.000000
560700.000000
561563.000000
562406.000000
563273.000000
564254.000000
565185.000000
566041.000000
566978.000000
567934.000000
568798.000000
569715.000000
570805.000000
571763.000000
572665.000000
573609.000000
574504.000000
575334.000000
576227.000000
577568.000000
578572.000000
579464.000000
580381.000000
581312.000000
582164.000000
582981.000000
583882.000000
584830.000000
585716.000000
586569.000000
587472.000000
588363.000000
589271.000000
590122.000000
590985.000000
591888.000000
592811.000000
593722.000000
594594.000000
595445.000000
596344.000000
597272.000000
598149.000000
599043.000000
599962.000000
600844.000000
601696.000000
602601.000000
603507.000000
604320.000000
605126.000000
606037.000000
606862.000000
607675.000000
608512.000000
609341.000000
610221.000000
611175.000000
612073.000000
612947.000000
613907.000000
614853.000000
615735.000000
616651.000000
617609.000000
618496.000000
619327.000000
620200.000000
621194.000000
622172.000000
623125.000000
624013.000000
624862.000000
625748.000000
626668.000000
627534.000000
628436.000000
629355.000000
630231.000000
631110.000000
632034.000000
632983.000000
633856.000000
634772.000000
635712.000000
636617.000000
637511.000000
638434.000000
639329.000000
640182.000000
641070.000000
641965.000000
642821.000000
643738.000000
644653.000000
645519.000000
646466.000000
647423.000000
648317.000000
649301.000000
650241.000000
651099.000000
652008.000000
652942.000000
653865.000000
654718.000000
655601.000000
656574.000000
657571.000000
658510.000000
659424.000000
660309.000000
661162.000000
662019.000000
662940.000000
663847.000000
664705.000000
665612.000000
666546.000000
667437.000000
668317.000000
669241.000000
670195.000000
671114.000000
672045.000000
672920.000000
673778.000000
674647.000000
675450.000000
676246.000000
677112.000000
677938.000000
678786.000000
679684.000000
680586.000000
681508.000000
682358.000000
683223.000000
684141.000000
685009.000000
685875.000000
686806.000000
687695.000000
688551.000000
689480.000000
690412.000000
691259.000000
692199.000000
693130.000000
693987.000000
694921.000000
695902.000000
696776.000000
697767.000000
698737.000000
699672.000000
700584.000000
701423.000000
702302.000000
703240.000000
704148.000000
705033.000000
705974.000000
706886.000000
707738.000000
708639.000000
709580.000000
710458.000000
711314.000000
712271.000000
713215.000000
714097.000000
715029.000000
715921.000000
716803.000000
717766.000000
718649.000000
719507.000000
720414.000000
721297.000000
722194.000000
723148.000000
724063.000000
724938.000000
725774.000000
726621.000000
727471.000000
728312.000000
729162.000000
730026.000000
730906.000000
731756.000000
732623.000000
733542.000000
734378.000000
735241.000000
736150.000000
737055.000000
737875.000000
738898.000000
740171.000000
741290.000000
742192.000000
743000.000000
743821.000000
744603.000000
745393.000000
746279.000000
747130.000000
747995.000000
748942.000000
749841.000000
750702.000000
751680.000000
752604.000000
753473.000000
754437.000000
755429.000000
756293.000000
757216.000000
758145.000000
759063.000000
759909.000000
760822.000000
761761.000000
762619.000000
763514.000000
764429.000000
765322.000000
766212.000000
767123.000000
767995.000000
768840.000000
769749.000000
770654.000000
771501.000000
772421.000000
773304.000000
774148.000000
775082.000000
776052.000000
776927.000000
777804.000000
778728.000000
779677.000000
780635.000000
781513.000000
782413.000000
783368.000000
784309.000000
785184.000000
786131.000000
787185.000000
788091.000000
788940.000000
789855.000000
790807.000000
791713.000000
792594.000000
793507.000000
794304.000000
795138.000000
796003.000000
796871.000000
797777.000000
798716.000000
799612.000000
800608.000000
801528.000000
802388.000000
803301.000000
804282.000000
805149.000000
806065.000000
806996.000000
807879.000000
808776.000000
809751.000000
810644.000000
811506.000000
812437.000000
813389.000000
814335.000000
815230.000000
816110.000000
817002.000000
817868.000000
818699.000000
819574.000000
820466.000000
821312.000000
822198.000000
823112.000000
823995.000000
824816.000000
825707.000000
826632.000000
827498.000000
828446.000000
829409.000000
830341.000000
831231.000000
832111.000000
833011.000000
833928.000000
834765.000000
835658.000000
836607.000000
837534.000000
838391.000000
839301.000000
840220.000000
841108.000000
841989.000000
842936.000000
843851.000000
844710.000000
845617.000000
846447.000000
847229.000000
848067.000000
848889.000000
849676.000000
850495.000000
851325.000000
852114.000000
853016.000000
853965.000000
854834.000000
855678.000000
856549.000000
857386.000000
858212.000000
859151.000000
860010.000000
860854.000000
861818.000000
862761.000000
863626.000000
864588.000000
865543.000000
866417.000000
867325.000000
868268.000000
869146.000000
869998.000000
870929.000000
871938.000000
872823.000000
873766.000000
875087.000000
876088.000000
877057.000000
877963.000000
878784.000000
879655.000000
880591.000000
881462.000000
882304.000000
883232.000000
884166.000000
884997.000000
885913.000000
886794.000000
887615.000000
888606.000000
889657.000000
890550.000000
891492.000000
892426.000000
893324.000000
894166.000000
895062.000000
895991.000000
896842.000000
897757.000000
898696.000000
899560.000000
900505.000000
901477.000000
902378.000000
903271.000000
904184.000000
905071.000000
905952.000000
906928.000000
907823.000000
908709.000000
909626.000000
910508.000000
911394.000000
912294.000000
913170.000000
914057.000000
914977.000000
915926.000000
916797.000000
917701.000000
918619.000000
919492.000000
920436.000000
921373.000000
922241.000000
923156.000000
924071.000000
924964.000000
925901.000000
926846.000000
927763.000000
928611.000000
929515.000000
930424.000000
931277.000000
932201.000000
933140.000000
934023.000000
934867.000000
935765.000000
936692.000000
937567.000000
938421.000000
939312.000000
940223.000000
941071.000000
941977.000000
942955.000000
943865.000000
944764.000000
945702.000000
946588.000000
947466.000000
948363.000000
949267.000000
950136.000000
951057.000000
951992.000000
952864.000000
953721.000000
954614.000000
955508.000000
956349.000000
957220.000000
958105.000000
958960.000000
959826.000000
960733.000000
961646.000000
962522.000000
963373.000000
964251.000000
965131.000000
965958.000000
966895.000000
967839.000000
968728.000000
969543.000000
970437.000000
971325.000000
972183.000000
972993.000000
973905.000000
974810.000000
975661.000000
976504.000000
977395.000000
978153.000000
979010.000000
979883.000000
980719.000000
981486.000000
982344.000000
983225.000000
984145.000000
984977.000000
986112.000000
987101.000000
988036.000000
988935.000000
989791.000000
990653.000000
991529.000000
992404.000000
993230.000000
994069.000000
994947.000000
995811.000000
996616.000000
997452.000000
998336.000000
999218.000000
1000021.000000
1000856.000000
1001738.000000
1002585.000000
1003395.000000
1004248.000000
1005154.000000
1006023.000000
1006874.000000
1007769.000000
1008654.000000
1009480.000000
1010330.000000
1011227.000000
1012120.000000
1012936.000000
1013864.000000
1014736.000000
1015608.000000
1016441.000000
1017414.000000
1018249.000000
1019041.000000
1019827.000000
1020581.000000
1021371.000000
1022250.000000
1023175.000000
1024001.000000
1024881.000000
1025774.000000
1026674.000000
1027551.000000
1028393.000000
1029258.000000
1030254.000000
1031566.000000
1032604.000000
1033566.000000
1034429.000000
1035283.000000
1036193.000000
1037122.000000
1037965.000000
1038863.000000
1039789.000000
1040663.000000
1041593.000000
1042539.000000
1043411.000000
1044324.000000
1045243.000000
1046110.000000
1046981.000000
1047898.000000
1048828.000000
1049766.000000
1050675.000000
1051539.000000
1052391.000000
1053288.000000
1054156.000000
1054983.000000
1055866.000000
1056821.000000
1057709.000000
1058638.000000
1059594.000000
1060511.000000
1061403.000000
1062321.000000
1063202.000000
1064070.000000
1065008.000000
1065924.000000
1066827.000000
1067771.000000
1068705.000000
1069567.000000
1070489.000000
1071386.000000
1072300.000000
1073266.000000
1074223.000000
1075079.000000
1075971.000000
1076899.000000
1077814.000000
1078685.000000
1079633.000000
1080554.000000
1081446.000000
1082405.000000
1083351.000000
1084235.000000
1085191.000000
1086128.000000
1086991.000000
1087933.000000
1088854.000000
1089717.000000
1090646.000000
1091551.000000
1092421.000000
1093359.000000
1094261.000000
1095108.000000
1096006.000000
1096876.000000
1097721.000000
1098630.000000
1099525.000000
1100388.000000
1101268.000000
1102121.000000
1102988.000000
1103932.000000
1104824.000000
1105767.000000
1106737.000000
1107619.000000
1108545.000000
1109517.000000
1110430.000000
1111333.000000
1112243.000000
1113090.000000
1113940.000000
1114875.000000
1115774.000000
1116653.000000
1117573.000000
1118463.000000
1119341.000000
1120253.000000
1121141.000000
1122027.000000
1123003.000000
1123913.000000
1124835.000000
1125740.000000
1126600.000000
1127487.000000
1128375.000000
1129244.000000
1130136.000000
1131080.000000
1131965.000000
1132889.000000
1133744.000000
1134580.000000
1135357.000000
1136161.000000
1136961.000000
1137846.000000
1138710.000000
1139521.000000
1140415.000000
1141316.000000
1142225.000000
1143134.000000
1143947.000000
1144763.000000
1145601.000000
1146479.000000
1147279.000000
1148116.000000
1148959.000000
1149779.000000
1150590.000000
1151478.000000
1152322.000000
1153150.000000
1154114.000000
1154963.000000
1155806.000000
1156727.000000
1157589.000000
1158448.000000
1159451.000000
1160419.000000
1161284.000000
1162230.000000
1163279.000000
1164219.000000
1165065.000000
1165966.000000
1166927.000000
1167833.000000
1168740.000000
1169672.000000
1170578.000000
1171484.000000
1172395.000000
1173272.000000
1174173.000000
1175110.000000
1175981.000000
1176907.000000
1177851.000000
1178729.000000
1179641.000000
1180590.000000
1181480.000000
1182347.000000
1183284.000000
1184265.000000
1185171.000000
1186064.000000
1187002.000000
1187965.000000
1188859.000000
1189735.000000
1190645.000000
1191563.000000
1192487.000000
1193394.000000
1194222.000000
1195066.000000
1195974.000000
1196911.000000
1197796.000000
1198629.000000
1199487.000000
1200382.000000
1201239.000000
1202106.000000
1203021.000000
1203910.000000
1204758.000000
1205636.000000
1206502.000000
1207336.000000
1208244.000000
1209176.000000
1210047.000000
1210871.000000
1211637.000000
1212470.000000
1213310.000000
1214155.000000
1215056.000000
1215961.000000
1216810.000000
1217759.000000
1218736.000000
1219592.000000
1220483.000000
1221422.000000
1222314.000000
1223178.000000
1224100.000000
1224987.000000
1225851.000000
1226740.000000
1227691.000000
1228628.000000
