ECG (ms)
900.000000
1949.000000
3028.000000
4020.000000
5053.000000
6086.000000
7085.000000
8130.000000
9141.000000
10219.000000
11641.000000
12828.000000
13948.000000
15006.000000
16119.000000
17234.000000
18403.000000
19581.000000
20649.000000
21768.000000
22900.000000
24100.000000
25226.000000
26371.000000
27546.000000
28652.000000
29749.000000
30910.000000
32052.000000
33297.000000
34565.000000
35726.000000
36949.000000
38100.000000
39184.000000
40315.000000
41460.000000
42531.000000
43672.000000
44815.000000
45885.000000
47017.000000
48239.000000
49335.000000
50468.000000
51580.000000
52655.000000
53743.000000
54974.000000
56163.000000
57346.000000
58542.000000
59636.000000
60781.000000
61918.000000
63040.000000
64149.000000
65241.000000
66356.000000
67489.000000
68569.000000
69747.000000
70981.000000
72116.000000
73234.000000
74374.000000
75487.000000
76557.000000
77702.000000
78913.000000
80047.000000
81237.000000
82335.000000
83439.000000
84593.000000
85799.000000
86907.000000
88027.000000
89161.000000
90225.000000
91323.000000
92444.000000
93650.000000
94817.000000
95909.000000
97109.000000
98270.000000
99386.000000
100531.000000
101658.000000
102806.000000
103993.000000
105174.000000
106262.000000
107390.000000
108405.000000
109387.000000
110368.000000
111391.000000
112499.000000
113917.000000
115032.000000
116250.000000
117369.000000
118398.000000
119510.000000
120635.000000
121731.000000
122849.000000
124065.000000
125166.000000
126319.000000
127469.000000
128561.000000
129662.000000
130763.000000
131850.000000
132945.000000
134005.000000
135131.000000
136252.000000
137327.000000
138453.000000
139580.000000
140641.000000
141729.000000
142823.000000
143877.000000
144956.000000
146102.000000
147258.000000
148397.000000
149594.000000
150764.000000
151866.000000
152972.000000
154034.000000
155123.000000
156287.000000
157449.000000
158615.000000
159820.000000
160937.000000
162112.000000
163249.000000
164327.000000
165405.000000
166490.000000
167600.000000
168707.000000
170043.000000
171231.000000
172419.000000
173549.000000
174606.000000
175699.000000
176819.000000
177875.000000
178953.000000
179943.000000
181033.000000
182086.000000
183228.000000
184292.000000
185398.000000
186522.000000
187566.000000
188653.000000
189709.000000
190773.000000
191835.000000
192880.000000
193992.000000
195109.000000
196151.000000
197307.000000
198413.000000
199476.000000
200579.000000
201624.000000
202683.000000
203722.000000
204728.000000
205808.000000
206895.000000
207966.000000
209099.000000
210219.000000
211303.000000
212395.000000
213480.000000
214509.000000
215555.000000
216600.000000
217637.000000
218676.000000
219769.000000
220870.000000
222016.000000
223126.000000
224215.000000
225273.000000
226318.000000
227341.000000
228386.000000
229402.000000
230421.000000
231469.000000
232555.000000
233620.000000
234640.000000
235698.000000
236749.000000
237773.000000
238854.000000
239972.000000
241015.000000
242100.000000
243189.000000
244319.000000
245371.000000
246428.000000
247537.000000
248706.000000
249750.000000
250768.000000
251818.000000
252918.000000
253951.000000
255086.000000
256591.000000
257918.000000
259257.000000
260282.000000
261328.000000
262395.000000
263443.000000
265002.000000
266316.000000
267678.000000
268960.000000
270145.000000
271121.000000
272034.000000
273003.000000
274126.000000
275219.000000
276725.000000
278048.000000
279372.000000
280354.000000
281316.000000
282335.000000
283581.000000
284651.000000
285851.000000
287102.000000
288185.000000
289671.000000
290856.000000
292110.000000
293378.000000
294543.000000
295776.000000
296909.000000
298095.000000
299277.000000
300421.000000
301684.000000
302835.000000
303938.000000
304952.000000
305997.000000
307063.000000
308195.000000
309331.000000
310442.000000
311480.000000
312572.000000
313626.000000
314669.000000
315756.000000
316858.000000
317859.000000
318912.000000
320012.000000
321040.000000
322108.000000
323190.000000
324242.000000
325333.000000
326410.000000
327462.000000
328511.000000
329587.000000
330642.000000
331649.000000
332706.000000
333761.000000
334814.000000
335851.000000
336942.000000
337993.000000
339010.000000
340070.000000
341136.000000
342155.000000
343221.000000
344242.000000
345243.000000
346240.000000
347191.000000
348163.000000
349113.000000
350131.000000
351149.000000
352115.000000
353100.000000
354072.000000
355018.000000
355976.000000
356957.000000
357931.000000
358904.000000
359865.000000
360811.000000
361752.000000
362679.000000
363608.000000
364530.000000
365469.000000
366419.000000
367378.000000
368357.000000
369344.000000
370321.000000
371272.000000
372238.000000
373188.000000
374131.000000
375052.000000
375973.000000
376919.000000
377840.000000
378769.000000
379724.000000
380681.000000
381637.000000
382611.000000
383505.000000
384411.000000
385306.000000
386241.000000
387194.000000
388138.000000
389099.000000
390072.000000
391028.000000
391982.000000
392999.000000
394046.000000
395067.000000
396095.000000
397138.000000
398114.000000
399099.000000
400089.000000
401086.000000
402102.000000
403154.000000
404215.000000
405230.000000
406284.000000
407315.000000
408350.000000
409401.000000
410411.000000
411423.000000
412431.000000
413445.000000
414436.000000
415489.000000
416568.000000
417611.000000
418631.000000
419654.000000
420646.000000
421663.000000
422686.000000
423683.000000
424682.000000
425687.000000
426686.000000
427701.000000
428719.000000
429698.000000
430699.000000
431692.000000
432685.000000
433669.000000
434687.000000
435718.000000
436724.000000
437732.000000
438753.000000
439768.000000
440757.000000
441772.000000
442785.000000
443756.000000
444747.000000
445755.000000
446756.000000
447762.000000
448761.000000
449779.000000
450772.000000
451764.000000
452761.000000
453748.000000
454715.000000
455694.000000
456691.000000
457684.000000
458686.000000
459683.000000
460665.000000
461647.000000
462610.000000
463594.000000
464598.000000
465608.000000
466615.000000
467697.000000
468782.000000
469798.000000
470812.000000
471821.000000
472842.000000
473826.000000
474816.000000
475888.000000
476914.000000
477857.000000
478842.000000
479816.000000
480777.000000
481741.000000
482746.000000
483754.000000
484731.000000
485657.000000
486594.000000
487530.000000
488526.000000
489515.000000
490498.000000
491516.000000
492530.000000
493514.000000
494529.000000
495537.000000
496505.000000
497498.000000
498509.000000
499506.000000
500551.000000
501626.000000
502653.000000
503721.000000
504763.000000
505769.000000
506784.000000
507772.000000
508749.000000
509755.000000
510754.000000
511695.000000
512637.000000
513600.000000
514566.000000
515553.000000
516515.000000
517513.000000
518503.000000
519482.000000
520441.000000
521404.000000
522380.000000
523326.000000
524314.000000
525343.000000
526363.000000
527357.000000
528342.000000
529327.000000
530295.000000
531279.000000
532267.000000
533242.000000
534248.000000
535258.000000
536239.000000
537241.000000
538244.000000
539243.000000
540214.000000
541192.000000
542175.000000
543144.000000
544124.000000
545117.000000
546081.000000
547052.000000
548025.000000
548961.000000
549969.000000
550988.000000
552072.000000
553157.000000
554241.000000
555285.000000
556286.000000
557282.000000
558241.000000
559179.000000
560227.000000
561331.000000
562414.000000
563441.000000
564447.000000
565442.000000
566467.000000
567481.000000
568527.000000
569595.000000
570660.000000
571684.000000
572741.000000
573813.000000
574823.000000
575909.000000
577012.000000
578063.000000
579155.000000
580246.000000
581288.000000
582327.000000
583377.000000
584517.000000
585664.000000
586747.000000
587833.000000
588895.000000
589977.000000
591008.000000
592020.000000
593017.000000
593977.000000
594943.000000
595940.000000
596993.000000
598015.000000
598993.000000
600013.000000
601048.000000
602046.000000
603050.000000
604089.000000
605121.000000
606222.000000
607345.000000
608416.000000
609500.000000
610551.000000
611544.000000
612559.000000
613571.000000
614531.000000
615522.000000
616538.000000
617549.000000
618556.000000
619555.000000
620560.000000
621528.000000
622520.000000
623517.000000
624496.000000
625501.000000
626527.000000
627524.000000
628496.000000
629487.000000
630461.000000
631447.000000
632454.000000
633443.000000
634402.000000
635373.000000
636342.000000
637297.000000
638271.000000
639260.000000
640290.000000
641279.000000
642301.000000
643307.000000
644300.000000
645289.000000
646278.000000
647249.000000
648229.000000
649228.000000
650231.000000
651232.000000
652242.000000
653269.000000
654273.000000
655274.000000
656258.000000
657220.000000
658143.000000
659056.000000
660002.000000
660934.000000
661913.000000
662932.000000
663916.000000
664898.000000
665879.000000
666842.000000
667803.000000
668797.000000
669764.000000
670811.000000
671899.000000
672922.000000
673991.000000
675021.000000
676061.000000
677090.000000
678101.000000
679087.000000
680107.000000
681132.000000
682134.000000
683149.000000
684165.000000
685164.000000
686156.000000
687140.000000
688133.000000
689126.000000
690109.000000
691085.000000
692071.000000
693039.000000
694001.000000
694912.000000
695855.000000
696825.000000
697781.000000
698805.000000
699817.000000
700801.000000
701809.000000
702783.000000
703810.000000
704850.000000
705880.000000
706943.000000
708028.000000
709072.000000
710127.000000
711157.000000
712166.000000
713170.000000
714174.000000
715162.000000
716194.000000
717241.000000
718284.000000
719330.000000
720350.000000
721328.000000
722318.000000
723341.000000
724365.000000
725349.000000
726355.000000
727361.000000
728336.000000
729317.000000
730317.000000
731324.000000
732314.000000
733327.000000
734354.000000
735383.000000
736390.000000
737445.000000
738487.000000
739506.000000
740603.000000
741666.000000
742708.000000
743754.000000
744880.000000
745956.000000
747013.000000
748037.000000
749129.000000
750186.000000
751239.000000
752284.000000
753343.000000
754350.000000
755378.000000
756419.000000
757440.000000
758457.000000
759465.000000
760452.000000
761515.000000
762592.000000
763623.000000
764676.000000
765737.000000
766770.000000
767804.000000
768865.000000
769917.000000
770974.000000
772023.000000
773065.000000
774140.000000
775233.000000
776252.000000
777202.000000
778183.000000
779176.000000
780198.000000
781298.000000
782307.000000
783335.000000
784375.000000
785375.000000
786390.000000
787446.000000
788505.000000
789567.000000
790628.000000
791678.000000
792695.000000
793749.000000
794834.000000
795869.000000
796932.000000
797992.000000
799018.000000
800029.000000
801056.000000
802124.000000
803148.000000
804215.000000
805271.000000
806310.000000
807369.000000
808429.000000
809434.000000
810466.000000
811503.000000
812523.000000
813518.000000
814522.000000
815542.000000
816567.000000
817621.000000
818692.000000
819714.000000
820746.000000
821785.000000
822780.000000
823783.000000
824795.000000
825803.000000
826797.000000
827819.000000
828871.000000
829895.000000
830936.000000
831957.000000
832987.000000
834003.000000
835028.000000
836050.000000
837032.000000
838035.000000
839039.000000
840028.000000
841019.000000
842061.000000
843091.000000
844125.000000
845188.000000
846179.000000
847107.000000
848066.000000
849062.000000
850087.000000
851156.000000
852162.000000
853194.000000
854247.000000
855247.000000
856222.000000
857159.000000
858107.000000
859102.000000
860105.000000
861105.000000
862182.000000
863231.000000
864237.000000
865275.000000
866305.000000
867306.000000
868327.000000
869379.000000
870384.000000
871430.000000
872482.000000
873534.000000
874601.000000
875676.000000
876738.000000
877750.000000
878811.000000
879876.000000
880894.000000
881946.000000
883028.000000
884103.000000
885138.000000
886220.000000
887320.000000
888352.000000
889412.000000
890481.000000
891511.000000
892641.000000
893877.000000
895046.000000
896186.000000
897323.000000
898364.000000
899490.000000
900717.000000
901801.000000
902925.000000
904025.000000
905075.000000
906126.000000
907301.000000
908421.000000
909507.000000
910689.000000
911818.000000
912873.000000
913963.000000
915045.000000
916067.000000
917109.000000
918175.000000
919239.000000
920359.000000
921464.000000
922545.000000
923598.000000
924630.000000
925631.000000
926623.000000
927576.000000
928576.000000
929631.000000
930703.000000
931766.000000
932726.000000
933733.000000
934709.000000
935706.000000
936733.000000
937726.000000
938683.000000
939669.000000
940673.000000
941695.000000
942824.000000
943870.000000
944958.000000
946048.000000
947137.000000
948245.000000
949315.000000
950435.000000
951566.000000
952689.000000
954026.000000
955328.000000
956464.000000
957625.000000
958748.000000
959901.000000
961137.000000
962341.000000
963647.000000
964878.000000
966144.000000
967325.000000
968423.000000
969615.000000
970741.000000
971891.000000
973425.000000
974731.000000
975995.000000
977168.000000
978515.000000
979879.000000
981262.000000
982660.000000
983904.000000
985230.000000
986513.000000
987829.000000
989089.000000
990404.000000
991675.000000
993042.000000
994181.000000
995385.000000
996623.000000
997777.000000
999009.000000
1000278.000000
1001485.000000
1002695.000000
1003832.000000
1004859.000000
1005927.000000
1007068.000000
1008246.000000
1009333.000000
1010480.000000
1011621.000000
1012670.000000
1013786.000000
1014894.000000
1015993.000000
1017256.000000
1018451.000000
1019645.000000
1020838.000000
1022043.000000
1023156.000000
1024193.000000
1025211.000000
1026187.000000
1027204.000000
1028626.000000
1029704.000000
1030799.000000
1031850.000000
1032928.000000
1034051.000000
1035116.000000
1036111.000000
1037323.000000
1038529.000000
1040075.000000
1041231.000000
1042579.000000
1043731.000000
1044826.000000
1046215.000000
1047457.000000
1048912.000000
1050231.000000
1051633.000000
1052913.000000
1054261.000000
1055424.000000
1056524.000000
1057658.000000
1059195.000000
1060524.000000
1061813.000000
1063232.000000
1064362.000000
1065590.000000
1067142.000000
1068441.000000
1069943.000000
1071345.000000
1072683.000000
1073977.000000
1075412.000000
1076594.000000
1077900.000000
1079319.000000
1080517.000000
1081822.000000
1083308.000000
1084527.000000
1085873.000000
1087078.000000
1088289.000000
1089431.000000
1090579.000000
1091833.000000
1093051.000000
1094352.000000
1095659.000000
1096857.000000
1098056.000000
1099152.000000
1100146.000000
1101213.000000
1102281.000000
1103427.000000
1104635.000000
1105762.000000
1107009.000000
1108246.000000
1109369.000000
1110519.000000
1111671.000000
1112871.000000
1113973.000000
1115099.000000
1116303.000000
1117548.000000
1118721.000000
1119872.000000
1121069.000000
1122290.000000
1123427.000000
1124563.000000
1125693.000000
1126797.000000
1127874.000000
1129053.000000
1130271.000000
1131430.000000
1132520.000000
1133667.000000
1134822.000000
1135896.000000
1136995.000000
1138178.000000
1139362.000000
1140579.000000
1141768.000000
1142961.000000
1144145.000000
1145317.000000
1146444.000000
1147550.000000
1148609.000000
1149760.000000
1150950.000000
1152116.000000
1153378.000000
1154592.000000
1155685.000000
1156855.000000
1157994.000000
1159040.000000
1160108.000000
1161131.000000
1162191.000000
1163167.000000
1164139.000000
1165092.000000
1166012.000000
1166956.000000
1167933.000000
1168870.000000
1169854.000000
1170778.000000
1171780.000000
1172747.000000
1173906.000000
1175048.000000
1176185.000000
1177282.000000
1178313.000000
1179350.000000
1180363.000000
1181369.000000
1182399.000000
1183423.000000
1184495.000000
1185627.000000
1186723.000000
1187764.000000
1188840.000000
1189939.000000
1190986.000000
1192077.000000
1193194.000000
1194257.000000
1195321.000000
1196476.000000
1197564.000000
1198614.000000
1199709.000000
1200818.000000
1201862.000000
1202932.000000
1204030.000000
1205068.000000
1206092.000000
1207158.000000
1208139.000000
1209130.000000
1210182.000000
1211205.000000
1212298.000000
1213398.000000
1214416.000000
1215468.000000
1216502.000000
1217530.000000
1218568.000000
1219605.000000
1220662.000000
1221748.000000
1222800.000000
1223834.000000
1224892.000000
1225953.000000
1226960.000000
1228050.000000
1229177.000000
1230314.000000
1231314.000000
1232432.000000
1233584.000000
1234750.000000
1235858.000000
1236899.000000
1237965.000000
1239017.000000
1240101.000000
1241210.000000
1242339.000000
1243449.000000
1244532.000000
1245650.000000
1246752.000000
1247839.000000
1248939.000000
1250017.000000
1251049.000000
1252066.000000
1253054.000000
1254021.000000
1255040.000000
1256086.000000
1257144.000000
1258250.000000
1259341.000000
1260381.000000
1261467.000000
1262538.000000
1263602.000000
1264651.000000
1265735.000000
1266818.000000
1267886.000000
1268930.000000
1270042.000000
1271111.000000
1272167.000000
1273268.000000
1274430.000000
1275469.000000
1276519.000000
1277590.000000
1278645.000000
1279708.000000
1281263.000000
1282511.000000
1283749.000000
1285089.000000
1286150.000000
1287114.000000
1288038.000000
1289000.000000
1290121.000000
1291190.000000
1292701.000000
1294006.000000
1295255.000000
1296319.000000
1297382.000000
1298405.000000
1299461.000000
1300585.000000
1301741.000000
1302911.000000
1304100.000000
1305311.000000
1306429.000000
1307523.000000
1308638.000000
1309683.000000
1310815.000000
1311901.000000
1313002.000000
1314049.000000
1315143.000000
1316212.000000
1317262.000000
1318364.000000
1319489.000000
1320557.000000
1321651.000000
1322747.000000
1323886.000000
1324948.000000
1326063.000000
1327144.000000
1328218.000000
1329333.000000
1330462.000000
1331505.000000
1332595.000000
1333670.000000
1334708.000000
1335794.000000
1336909.000000
1337995.000000
1339115.000000
1340237.000000
1341381.000000
1342455.000000
1343576.000000
1344696.000000
1345752.000000
1346800.000000
1347943.000000
1349106.000000
1350213.000000
1351323.000000
1352425.000000
1353502.000000
1354568.000000
1355674.000000
1356780.000000
1357824.000000
1358895.000000
1359994.000000
1361073.000000
1362143.000000
1363253.000000
1364357.000000
1365400.000000
1366504.000000
1367590.000000
1368650.000000
1369809.000000
1370955.000000
1372015.000000
1373116.000000
1374240.000000
1375307.000000
1376389.000000
1377515.000000
1378585.000000
1379646.000000
1380691.000000
1381656.000000
1382651.000000
1383703.000000
1384704.000000
1385772.000000
1386895.000000
1388006.000000
1389026.000000
1390052.000000
1391091.000000
1392124.000000
1393168.000000
1394293.000000
1395467.000000
1396576.000000
1397704.000000
1398792.000000
1399827.000000
1400913.000000
1401978.000000
1403022.000000
1404224.000000
1405430.000000
1406553.000000
1407632.000000
1408698.000000
1409716.000000
1410780.000000
1411894.000000
1412946.000000
1413981.000000
1414992.000000
1415986.000000
1417001.000000
1418052.000000
1419116.000000
1420160.000000
1421208.000000
1422269.000000
1423300.000000
1424279.000000
1425362.000000
1426443.000000
1427524.000000
1428662.000000
1429790.000000
1430901.000000
1432003.000000
1433053.000000
1434101.000000
1435176.000000
1436246.000000
1437271.000000
1438387.000000
1439451.000000
1440455.000000
1441405.000000
1442405.000000
1443418.000000
1444443.000000
1445513.000000
1446610.000000
1447646.000000
1448686.000000
1449742.000000
1450790.000000
1451821.000000
1452905.000000
1454093.000000
1455159.000000
1456275.000000
1457410.000000
1458501.000000
1459567.000000
1460653.000000
1461748.000000
1462830.000000
1463873.000000
1464931.000000
1465987.000000
1467009.000000
1468083.000000
1469156.000000
1470224.000000
1471254.000000
1472303.000000
1473356.000000
1474364.000000
1475376.000000
1476414.000000
1477414.000000
1478398.000000
1479374.000000
1480323.000000
1481288.000000
1482222.000000
1483204.000000
1484266.000000
1485345.000000
1486353.000000
1487378.000000
1488382.000000
1489366.000000
1490378.000000
1491434.000000
1492473.000000
1493558.000000
1494735.000000
1495771.000000
1496856.000000
1497935.000000
1498980.000000
1500031.000000
1501088.000000
1502177.000000
1503220.000000
1504307.000000
1505466.000000
1506557.000000
1507595.000000
1508669.000000
1509713.000000
1510719.000000
1511744.000000
1512791.000000
1513801.000000
1514811.000000
1515902.000000
1516991.000000
1518028.000000
1519085.000000
1520182.000000
1521230.000000
1522261.000000
1523273.000000
1524262.000000
1525230.000000
1526179.000000
1527137.000000
1528137.000000
1529208.000000
1530227.000000
1531286.000000
1532419.000000
1533478.000000
1534505.000000
1535586.000000
1536549.000000
1537574.000000
1538635.000000
1539679.000000
1540790.000000
1541934.000000
1542990.000000
1544115.000000
1545216.000000
1546240.000000
1547360.000000
1548443.000000
1549480.000000
1550528.000000
1551541.000000
1552603.000000
1553698.000000
1554823.000000
1555887.000000
1556952.000000
1558030.000000
1559075.000000
1560119.000000
1561226.000000
1562411.000000
1563486.000000
1564600.000000
1565700.000000
1566772.000000
1567946.000000
1569137.000000
1570197.000000
1571315.000000
1572474.000000
1573572.000000
1574746.000000
1575894.000000
1576960.000000
1578103.000000
1579199.000000
1580294.000000
1581355.000000
1582431.000000
1583529.000000
1584647.000000
1585720.000000
1586778.000000
1587856.000000
1588954.000000
1590035.000000
1591098.000000
1592133.000000
1593235.000000
1594379.000000
1595487.000000
1596581.000000
1597707.000000
1598836.000000
1599885.000000
1600924.000000
1601893.000000
1602954.000000
1603999.000000
1605099.000000
1606142.000000
1607230.000000
1608355.000000
1609449.000000
1610567.000000
1611697.000000
1612778.000000
1613860.000000
1614963.000000
1616066.000000
1617147.000000
1618291.000000
1619420.000000
1620686.000000
1622087.000000
1623325.000000
1624515.000000
1625619.000000
1626742.000000
1628016.000000
1629149.000000
1630378.000000
1631611.000000
1632772.000000
1633896.000000
1635073.000000
1636161.000000
1637294.000000
1638450.000000
1639575.000000
1640703.000000
1641824.000000
1642954.000000
1644034.000000
1645126.000000
1646247.000000
1647386.000000
1648452.000000
1649568.000000
1650697.000000
1651748.000000
1652768.000000
1653754.000000
1654774.000000
1655770.000000
1656809.000000
1657888.000000
1658972.000000
1660042.000000
1661151.000000
1662205.000000
1663232.000000
1664300.000000
1665379.000000
1666444.000000
1667509.000000
1668597.000000
1669698.000000
1670746.000000
1671874.000000
1673003.000000
1674140.000000
1675196.000000
1676304.000000
1677406.000000
1678525.000000
1679630.000000
1680758.000000
1681878.000000
1682942.000000
1684045.000000
1685127.000000
1686159.000000
1687222.000000
1688300.000000
1689323.000000
1690372.000000
1691467.000000
1692537.000000
1693633.000000
1694778.000000
1695859.000000
1696949.000000
1698091.000000
1699147.000000
1700130.000000
1701156.000000
1702212.000000
1703234.000000
1704190.000000
1705203.000000
1706168.000000
1707143.000000
1708140.000000
1709139.000000
1710143.000000
1711113.000000
1712104.000000
1713114.000000
1714123.000000
1715111.000000
1716111.000000
1717124.000000
1718082.000000
1719028.000000
1719988.000000
1721022.000000
1722502.000000
1723694.000000
1724860.000000
1725965.000000
1727013.000000
1728155.000000
1729660.000000
1730917.000000
1732292.000000
1733561.000000
1734694.000000
1735701.000000
1736830.000000
1738310.000000
1739541.000000
1740826.000000
1742014.000000
1743227.000000
1744478.000000
1745694.000000
1746928.000000
1748258.000000
1749544.000000
1750806.000000
1751913.000000
1753260.000000
1754669.000000
1755901.000000
1757075.000000
1758262.000000
1759408.000000
1761015.000000
1762398.000000
1763823.000000
1765026.000000
1766146.000000
1767304.000000
1768351.000000
1769477.000000
1770570.000000
1771595.000000
1772741.000000
1773893.000000
1775049.000000
1776121.000000
1777112.000000
1778178.000000
1779245.000000
1780396.000000
1781531.000000
1782626.000000
1783756.000000
1784876.000000
1785941.000000
1787035.000000
1788169.000000
1789230.000000
1790303.000000
1791389.000000
1792439.000000
1793543.000000
1794647.000000
1795682.000000
1796775.000000
1797861.000000
1798950.000000
1800075.000000
1801208.000000
1802286.000000
1803355.000000
1804419.000000
1805466.000000
1806495.000000
1807563.000000
1808623.000000
1809682.000000
1810730.000000
1811767.000000
1812770.000000
1813731.000000
1814700.000000
1815704.000000
1816732.000000
1817756.000000
1818751.000000
1819750.000000
1820794.000000
1821825.000000
1822823.000000
1823878.000000
1824976.000000
1826055.000000
1827153.000000
1828302.000000
1829413.000000
1830515.000000
1831614.000000
1832721.000000
1833829.000000
1834942.000000
1836044.000000
1837149.000000
1838297.000000
1839431.000000
1840514.000000
1841603.000000
1842704.000000
1843806.000000
1844971.000000
1846153.000000
1847189.000000
1848265.000000
1849352.000000
1850398.000000
1851439.000000
1852442.000000
1853418.000000
1854438.000000
1855463.000000
1856538.000000
1857522.000000
1858627.000000
1859918.000000
1861054.000000
1862149.000000
1863198.000000
1864239.000000
1865300.000000
1866422.000000
1867627.000000
1868980.000000
1870153.000000
1871327.000000
1872440.000000
1873537.000000
1874638.000000
1875699.000000
1876713.000000
1877735.000000
1878780.000000
1879910.000000
1881029.000000
1882159.000000
1883221.000000
1884219.000000
1885225.000000
1886272.000000
1887390.000000
1888507.000000
1889634.000000
1890801.000000
1891957.000000
1893047.000000
1894190.000000
1895343.000000
1896462.000000
1897571.000000
1898741.000000
1899871.000000
1900969.000000
1902188.000000
1903209.000000
1904277.000000
1905360.000000
1906477.000000
1907629.000000
1908713.000000
1909828.000000
1910957.000000
1912016.000000
1913122.000000
1914219.000000
