ECG (ms)
531.000000
1465.000000
2410.000000
3285.000000
4188.000000
5075.000000
5925.000000
6823.000000
7782.000000
8682.000000
9629.000000
10559.000000
11457.000000
12395.000000
13350.000000
14280.000000
15169.000000
16076.000000
17000.000000
17930.000000
18819.000000
19727.000000
20661.000000
21587.000000
22473.000000
23386.000000
24317.000000
25236.000000
26101.000000
26976.000000
27899.000000
28785.000000
29621.000000
30449.000000
31352.000000
32270.000000
33148.000000
33977.000000
34819.000000
35681.000000
36547.000000
37391.000000
38241.000000
39144.000000
40055.000000
40942.000000
41815.000000
42724.000000
43659.000000
44577.000000
45480.000000
46338.000000
47189.000000
48056.000000
48991.000000
49952.000000
50875.000000
51759.000000
52693.000000
53594.000000
54490.000000
55322.000000
56174.000000
57053.000000
57947.000000
58834.000000
59698.000000
60614.000000
61552.000000
62398.000000
63233.000000
64075.000000
64952.000000
65807.000000
66643.000000
67532.000000
68465.000000
69338.000000
70254.000000
71220.000000
72159.000000
73010.000000
73874.000000
74763.000000
75637.000000
76476.000000
77301.000000
78225.000000
79190.000000
80089.000000
81099.000000
82128.000000
83055.000000
83969.000000
84889.000000
85790.000000
86656.000000
87561.000000
88492.000000
89358.000000
90235.000000
91129.000000
92007.000000
92861.000000
93761.000000
94677.000000
95540.000000
96428.000000
97323.000000
98207.000000
99066.000000
99966.000000
100901.000000
101756.000000
102632.000000
103538.000000
104420.000000
105251.000000
106119.000000
107027.000000
107905.000000
108759.000000
109640.000000
110516.000000
111339.000000
112169.000000
113027.000000
113877.000000
114683.000000
115487.000000
116266.000000
117039.000000
117811.000000
118618.000000
119426.000000
120200.000000
120967.000000
121747.000000
122587.000000
123481.000000
124323.000000
125150.000000
126007.000000
126859.000000
127669.000000
128513.000000
129416.000000
130282.000000
131139.000000
132027.000000
132951.000000
133813.000000
134703.000000
135592.000000
136437.000000
137301.000000
138241.000000
139193.000000
140072.000000
141007.000000
141951.000000
142827.000000
143749.000000
144697.000000
145574.000000
146506.000000
147492.000000
148395.000000
149293.000000
150212.000000
151130.000000
152011.000000
152966.000000
153946.000000
154894.000000
155810.000000
156723.000000
157585.000000
158428.000000
159315.000000
160214.000000
161094.000000
162026.000000
162988.000000
163909.000000
164903.000000
165939.000000
166871.000000
167766.000000
168662.000000
169536.000000
170382.000000
171286.000000
172239.000000
173125.000000
174058.000000
174994.000000
175882.000000
176760.000000
177651.000000
178523.000000
179359.000000
180217.000000
181090.000000
181918.000000
182785.000000
183721.000000
184634.000000
185568.000000
186524.000000
187433.000000
188312.000000
189231.000000
190150.000000
191010.000000
191906.000000
192808.000000
193672.000000
194545.000000
195486.000000
196424.000000
197295.000000
198203.000000
199122.000000
199977.000000
200843.000000
201741.000000
202621.000000
203480.000000
204377.000000
205291.000000
206142.000000
207028.000000
207929.000000
208779.000000
209631.000000
210524.000000
211446.000000
212320.000000
213221.000000
214134.000000
215000.000000
215900.000000
216813.000000
217682.000000
218572.000000
219484.000000
220373.000000
221222.000000
222118.000000
223015.000000
223875.000000
224774.000000
225679.000000
226543.000000
227384.000000
228271.000000
229168.000000
230011.000000
230880.000000
231756.000000
232597.000000
233434.000000
234300.000000
235144.000000
235980.000000
236863.000000
237760.000000
238618.000000
239480.000000
240381.000000
241249.000000
242103.000000
243001.000000
243884.000000
244732.000000
245624.000000
246547.000000
247425.000000
248329.000000
249250.000000
250141.000000
251003.000000
251893.000000
252777.000000
253628.000000
254538.000000
255454.000000
256322.000000
257242.000000
258156.000000
259036.000000
259952.000000
260877.000000
261743.000000
262655.000000
263568.000000
264440.000000
265359.000000
266274.000000
267148.000000
268031.000000
268947.000000
269847.000000
270711.000000
271611.000000
272539.000000
273414.000000
274290.000000
275201.000000
276095.000000
276948.000000
277813.000000
278711.000000
279565.000000
280390.000000
281256.000000
282212.000000
283151.000000
284025.000000
284885.000000
285771.000000
286670.000000
287587.000000
288570.000000
289593.000000
290521.000000
291441.000000
292383.000000
293299.000000
294197.000000
295127.000000
296043.000000
296899.000000
297763.000000
298656.000000
299515.000000
300365.000000
301269.000000
302165.000000
303015.000000
303889.000000
304803.000000
305672.000000
306562.000000
307507.000000
308377.000000
309238.000000
310161.000000
311085.000000
311957.000000
312830.000000
313684.000000
314514.000000
315311.000000
316136.000000
317027.000000
317929.000000
318835.000000
319827.000000
320778.000000
321652.000000
322560.000000
323477.000000
324344.000000
325232.000000
326162.000000
327045.000000
327925.000000
328831.000000
329746.000000
330642.000000
331579.000000
332486.000000
333333.000000
334195.000000
335080.000000
335935.000000
336767.000000
337624.000000
338459.000000
339273.000000
340143.000000
341025.000000
341853.000000
342678.000000
343512.000000
344322.000000
345118.000000
345961.000000
346809.000000
347628.000000
348439.000000
349229.000000
350000.000000
350789.000000
351612.000000
352419.000000
353227.000000
354100.000000
355020.000000
355919.000000
356818.000000
357768.000000
358670.000000
359573.000000
360512.000000
361402.000000
362260.000000
363156.000000
364062.000000
364922.000000
365837.000000
366763.000000
367642.000000
368541.000000
369443.000000
370314.000000
371174.000000
372062.000000
372949.000000
373766.000000
374594.000000
375409.000000
376220.000000
377064.000000
377953.000000
378890.000000
379791.000000
380744.000000
381663.000000
382517.000000
383406.000000
384299.000000
385145.000000
386008.000000
386921.000000
387792.000000
388642.000000
389530.000000
390409.000000
391249.000000
392126.000000
393022.000000
393887.000000
394782.000000
395685.000000
396558.000000
397451.000000
398394.000000
399288.000000
400191.000000
401096.000000
401954.000000
402838.000000
403741.000000
404618.000000
405481.000000
406357.000000
407249.000000
408116.000000
409024.000000
409934.000000
410784.000000
411625.000000
412481.000000
413317.000000
414143.000000
415026.000000
415911.000000
416754.000000
417637.000000
418540.000000
419449.000000
420093.000000
421244.000000
422119.000000
422962.000000
423814.000000
424755.000000
425716.000000
426620.000000
427515.000000
428425.000000
429277.000000
430148.000000
431071.000000
431940.000000
432811.000000
433709.000000
434607.000000
435456.000000
436320.000000
437175.000000
438026.000000
438909.000000
439816.000000
440765.000000
441642.000000
442578.000000
443513.000000
444407.000000
445335.000000
446272.000000
447166.000000
448043.000000
448947.000000
449849.000000
450734.000000
451655.000000
452564.000000
453475.000000
454413.000000
455343.000000
456462.000000
457470.000000
458394.000000
459270.000000
460147.000000
460984.000000
461807.000000
462660.000000
463542.000000
464379.000000
465245.000000
466157.000000
467022.000000
467895.000000
468815.000000
469701.000000
470559.000000
471437.000000
472312.000000
473139.000000
474006.000000
474909.000000
475792.000000
476734.000000
477694.000000
478606.000000
479501.000000
480442.000000
481372.000000
482285.000000
483275.000000
484234.000000
485143.000000
486079.000000
487018.000000
487906.000000
488851.000000
489828.000000
490775.000000
491750.000000
492699.000000
493621.000000
494571.000000
495546.000000
496486.000000
497485.000000
498466.000000
499391.000000
500354.000000
501326.000000
502283.000000
503222.000000
504173.000000
505121.000000
506025.000000
506969.000000
507930.000000
508877.000000
509790.000000
510743.000000
511697.000000
512640.000000
513526.000000
514462.000000
515433.000000
516346.000000
517272.000000
518240.000000
519204.000000
520108.000000
521084.000000
522010.000000
522886.000000
523782.000000
524714.000000
525598.000000
526495.000000
527437.000000
528331.000000
529209.000000
530123.000000
531046.000000
531922.000000
532835.000000
533751.000000
534622.000000
535516.000000
536438.000000
537390.000000
538303.000000
539189.000000
540098.000000
541011.000000
541904.000000
542777.000000
543672.000000
544544.000000
545389.000000
546231.000000
547080.000000
547978.000000
548882.000000
549743.000000
550630.000000
551555.000000
552444.000000
553334.000000
554259.000000
555180.000000
556062.000000
556998.000000
558006.000000
558913.000000
559768.000000
560669.000000
561597.000000
562498.000000
563450.000000
564404.000000
565300.000000
566238.000000
567205.000000
568158.000000
569059.000000
570002.000000
570928.000000
571800.000000
572681.000000
573610.000000
574531.000000
575413.000000
576372.000000
577338.000000
578224.000000
579145.000000
580102.000000
581013.000000
581892.000000
582807.000000
583746.000000
584601.000000
585467.000000
586345.000000
587200.000000
588044.000000
588930.000000
589860.000000
590746.000000
591604.000000
592514.000000
593424.000000
594282.000000
595179.000000
596096.000000
596939.000000
597802.000000
598690.000000
599586.000000
600472.000000
601432.000000
602402.000000
603307.000000
604218.000000
605136.000000
606023.000000
606905.000000
607836.000000
608776.000000
609665.000000
610577.000000
611536.000000
612453.000000
613361.000000
614296.000000
615241.000000
616148.000000
617109.000000
618067.000000
618972.000000
619908.000000
620872.000000
621797.000000
622713.000000
623672.000000
624606.000000
625510.000000
626475.000000
627451.000000
628334.000000
629275.000000
630194.000000
631067.000000
631961.000000
632882.000000
633786.000000
634671.000000
635591.000000
636495.000000
637376.000000
638312.000000
639230.000000
640117.000000
641029.000000
641951.000000
642823.000000
643722.000000
644615.000000
645474.000000
646340.000000
647218.000000
648083.000000
648910.000000
649793.000000
650682.000000
651575.000000
652490.000000
653396.000000
654292.000000
655240.000000
656149.000000
657039.000000
657970.000000
658904.000000
659794.000000
660725.000000
661669.000000
662552.000000
663440.000000
664328.000000
665212.000000
666085.000000
667000.000000
667881.000000
668753.000000
669644.000000
670521.000000
671461.000000
672400.000000
673285.000000
674216.000000
675184.000000
676092.000000
677022.000000
677991.000000
678912.000000
679838.000000
680820.000000
681795.000000
682735.000000
683726.000000
684880.000000
685827.000000
686768.000000
687669.000000
688512.000000
689367.000000
690294.000000
691214.000000
692136.000000
693132.000000
694073.000000
694982.000000
695903.000000
696769.000000
697627.000000
698538.000000
699419.000000
700279.000000
701165.000000
702020.000000
702835.000000
703638.000000
704447.000000
705247.000000
706062.000000
706926.000000
707796.000000
708621.000000
709472.000000
710313.000000
711130.000000
711950.000000
712817.000000
713744.000000
714605.000000
715483.000000
716375.000000
717235.000000
718073.000000
718955.000000
719865.000000
720715.000000
721580.000000
722426.000000
723218.000000
723983.000000
724795.000000
725714.000000
726642.000000
727521.000000
728475.000000
729423.000000
730304.000000
731216.000000
732119.000000
732968.000000
733842.000000
734787.000000
735687.000000
736574.000000
737518.000000
738431.000000
739304.000000
740210.000000
741128.000000
741982.000000
742872.000000
743797.000000
744674.000000
745564.000000
746494.000000
747357.000000
748241.000000
749151.000000
750024.000000
750912.000000
751816.000000
752695.000000
753554.000000
754437.000000
755305.000000
756151.000000
757031.000000
757950.000000
758810.000000
759692.000000
760582.000000
761421.000000
762279.000000
763177.000000
764019.000000
764845.000000
765721.000000
766603.000000
767433.000000
768297.000000
769172.000000
770011.000000
770866.000000
771782.000000
772683.000000
773574.000000
774503.000000
775389.000000
776258.000000
777129.000000
778004.000000
778851.000000
779723.000000
780645.000000
781589.000000
782480.000000
783420.000000
784369.000000
785244.000000
786149.000000
787054.000000
787904.000000
788776.000000
789716.000000
790643.000000
791529.000000
792509.000000
793509.000000
794419.000000
795335.000000
796278.000000
797190.000000
798070.000000
799002.000000
799932.000000
800809.000000
801720.000000
802644.000000
803541.000000
804439.000000
805377.000000
806297.000000
807184.000000
808104.000000
809046.000000
809916.000000
810829.000000
811781.000000
812678.000000
813562.000000
814506.000000
815464.000000
816379.000000
817303.000000
818224.000000
819126.000000
820007.000000
820904.000000
821850.000000
822770.000000
823766.000000
824772.000000
825833.000000
826849.000000
827856.000000
828795.000000
829720.000000
830660.000000
831574.000000
832452.000000
833377.000000
834340.000000
835269.000000
836190.000000
837150.000000
838059.000000
838987.000000
839935.000000
840828.000000
841725.000000
842663.000000
843592.000000
844480.000000
845410.000000
846362.000000
847279.000000
848239.000000
849207.000000
850095.000000
851016.000000
851952.000000
852924.000000
853821.000000
854768.000000
855712.000000
856627.000000
857605.000000
858565.000000
859485.000000
860452.000000
861468.000000
862397.000000
863336.000000
864283.000000
865226.000000
866150.000000
867148.000000
868151.000000
869188.000000
870181.000000
871177.000000
872154.000000
873076.000000
874021.000000
874989.000000
875968.000000
876925.000000
878100.000000
879117.000000
880107.000000
881096.000000
882020.000000
882892.000000
883806.000000
884721.000000
885582.000000
886441.000000
887322.000000
888175.000000
889005.000000
889879.000000
890809.000000
891685.000000
892585.000000
893506.000000
894372.000000
895249.000000
896155.000000
897031.000000
897872.000000
898728.000000
899610.000000
900487.000000
901347.000000
902258.000000
903182.000000
904059.000000
904955.000000
905851.000000
906718.000000
907573.000000
908461.000000
909389.000000
910271.000000
911191.000000
912146.000000
913052.000000
913966.000000
914886.000000
915781.000000
916648.000000
917563.000000
918503.000000
919390.000000
920288.000000
921199.000000
922083.000000
922941.000000
923848.000000
924754.000000
925621.000000
926562.000000
927533.000000
928419.000000
929344.000000
930274.000000
931146.000000
931987.000000
932912.000000
933828.000000
934688.000000
935590.000000
936525.000000
937437.000000
938320.000000
939280.000000
940217.000000
941090.000000
942001.000000
942943.000000
943843.000000
944733.000000
945639.000000
946507.000000
947355.000000
948233.000000
949116.000000
949969.000000
950849.000000
951731.000000
952573.000000
953437.000000
954329.000000
955197.000000
956047.000000
956964.000000
957884.000000
958752.000000
959691.000000
960677.000000
961581.000000
962485.000000
963416.000000
964312.000000
965228.000000
966174.000000
967078.000000
967940.000000
968844.000000
969805.000000
970725.000000
971655.000000
972607.000000
973516.000000
974413.000000
975389.000000
976423.000000
977467.000000
978431.000000
979411.000000
980350.000000
981245.000000
982158.000000
983127.000000
984022.000000
984923.000000
985913.000000
986892.000000
987810.000000
988759.000000
989730.000000
990629.000000
991562.000000
992509.000000
993414.000000
994321.000000
995290.000000
996211.000000
997106.000000
998052.000000
998989.000000
999883.000000
1000825.000000
1001783.000000
1002686.000000
1003613.000000
1004572.000000
1005476.000000
1006378.000000
1007313.000000
1008245.000000
1009139.000000
1010094.000000
1011009.000000
1011887.000000
1012796.000000
1013695.000000
1014563.000000
1015421.000000
1016338.000000
1017254.000000
1018135.000000
1019066.000000
1020016.000000
1020919.000000
1021804.000000
1022698.000000
1023579.000000
1024428.000000
1025323.000000
1026216.000000
1027085.000000
1027987.000000
1028916.000000
1029821.000000
1030671.000000
1031540.000000
1032401.000000
1033230.000000
1034091.000000
1034998.000000
1035869.000000
1036734.000000
1037664.000000
1038586.000000
1039472.000000
1040402.000000
1041324.000000
1042209.000000
1043101.000000
1044011.000000
1044897.000000
1045782.000000
1046676.000000
1047547.000000
1048363.000000
1049193.000000
1050061.000000
1050915.000000
1051737.000000
1052608.000000
1053476.000000
1054314.000000
1055172.000000
1056063.000000
1056931.000000
1057782.000000
1058663.000000
1059556.000000
1060406.000000
1061273.000000
1062174.000000
1063026.000000
1063879.000000
1064773.000000
1065669.000000
1066526.000000
1067419.000000
1068340.000000
1069237.000000
1070130.000000
1071049.000000
1071936.000000
1072804.000000
1073718.000000
1074655.000000
1075505.000000
1076384.000000
1077272.000000
1078110.000000
1078929.000000
1079803.000000
1080715.000000
1081606.000000
1082498.000000
1083427.000000
1084372.000000
1085288.000000
1086221.000000
1087139.000000
1087972.000000
1088816.000000
1089670.000000
1090520.000000
1091365.000000
1092240.000000
1093093.000000
1093934.000000
1094824.000000
1095730.000000
1096600.000000
1097504.000000
1098441.000000
1099320.000000
1100183.000000
1101047.000000
1101918.000000
1102746.000000
1103585.000000
1104487.000000
1105374.000000
1106251.000000
1107197.000000
1108163.000000
1109049.000000
1109940.000000
1110878.000000
1111785.000000
1112690.000000
1113643.000000
1114571.000000
1115446.000000
1116326.000000
1117195.000000
1117973.000000
1118749.000000
1119589.000000
1120523.000000
1121436.000000
1122330.000000
1123273.000000
1124175.000000
1125048.000000
1126003.000000
1126946.000000
1127824.000000
1128730.000000
1129669.000000
1130587.000000
1131471.000000
1132401.000000
1133323.000000
1134182.000000
1135063.000000
1135984.000000
1136863.000000
1137740.000000
1138657.000000
1139581.000000
1140453.000000
1141373.000000
1142302.000000
1143167.000000
1144068.000000
1144986.000000
1145835.000000
1146699.000000
1147588.000000
1148439.000000
1149261.000000
1150059.000000
1150825.000000
1151602.000000
1152397.000000
1153266.000000
1154186.000000
1155085.000000
1155985.000000
1156917.000000
1157798.000000
1158668.000000
1159632.000000
1160612.000000
1161512.000000
1162430.000000
1163396.000000
1164359.000000
1165243.000000
1166170.000000
1167104.000000
1167996.000000
1168909.000000
1169850.000000
1170775.000000
1171669.000000
1172615.000000
1173547.000000
1174437.000000
1175355.000000
1176288.000000
1177162.000000
1178054.000000
1178989.000000
1179868.000000
1180754.000000
1181672.000000
1182574.000000
1183446.000000
1184378.000000
1185285.000000
1186156.000000
1187063.000000
1187961.000000
1188796.000000
1189622.000000
1190384.000000
1191125.000000
1191894.000000
1192721.000000
1193648.000000
1194667.000000
1195604.000000
1196576.000000
1197557.000000
1198463.000000
1199372.000000
1200293.000000
1201191.000000
1202041.000000
1202864.000000
1203697.000000
1204538.000000
1205408.000000
1206377.000000
1207321.000000
1208218.000000
1209163.000000
1210067.000000
1210939.000000
1211851.000000
1212777.000000
1213645.000000
1214558.000000
1215482.000000
1216356.000000
1217224.000000
1218132.000000
1219026.000000
1219872.000000
1220773.000000
1221695.000000
1222573.000000
1223490.000000
1224426.000000
1225307.000000
1226224.000000
1227146.000000
1228010.000000
1228861.000000
1229711.000000
1230557.000000
1231374.000000
1232224.000000
1233146.000000
1234081.000000
1234945.000000
1235852.000000
1236718.000000
1237508.000000
1238293.000000
1239096.000000
1239883.000000
1240649.000000
1241417.000000
1242246.000000
1243128.000000
1244009.000000
1244925.000000
1245909.000000
1246826.000000
1247708.000000
1248647.000000
1249569.000000
1250433.000000
1251312.000000
1252221.000000
1253086.000000
1253939.000000
1254812.000000
1255688.000000
1256539.000000
1257430.000000
1258352.000000
1259218.000000
1260105.000000
1260990.000000
1261818.000000
1262659.000000
1263522.000000
1264388.000000
1265233.000000
1266123.000000
1267040.000000
1267907.000000
1268773.000000
1269640.000000
1270489.000000
1271329.000000
1272211.000000
1273163.000000
1274071.000000
1274969.000000
1275893.000000
1276792.000000
1277660.000000
1278566.000000
1279473.000000
1280344.000000
1281211.000000
1282087.000000
1282938.000000
1283761.000000
1284552.000000
1285311.000000
1286094.000000
1286898.000000
1287734.000000
1288588.000000
1289432.000000
1290290.000000
1291173.000000
1292072.000000
1292944.000000
1293848.000000
1294767.000000
1295666.000000
1296504.000000
1297380.000000
1298269.000000
1299135.000000
1299983.000000
1300878.000000
1301765.000000
1302609.000000
1303510.000000
1304442.000000
1305331.000000
1306221.000000
1307157.000000
1308067.000000
1308911.000000
1309772.000000
1310646.000000
1311498.000000
1312351.000000
1313267.000000
1314192.000000
1315054.000000
1315940.000000
1316829.000000
1317681.000000
1318550.000000
1319429.000000
1320247.000000
1321051.000000
1321825.000000
1322583.000000
1323336.000000
1324111.000000
1324941.000000
1325859.000000
1326779.000000
1327647.000000
1328568.000000
1329483.000000
1330345.000000
1331207.000000
1332082.000000
1332973.000000
1333826.000000
1334727.000000
1335644.000000
1336523.000000
1337368.000000
1338287.000000
1339248.000000
1340151.000000
1341086.000000
1342049.000000
1342994.000000
1343888.000000
1344818.000000
1345753.000000
1346656.000000
1347570.000000
1348493.000000
1349408.000000
1350284.000000
1351217.000000
1352161.000000
1353051.000000
1353962.000000
1354916.000000
1355853.000000
1356750.000000
1357708.000000
1358627.000000
1359509.000000
1360417.000000
1361346.000000
1362258.000000
1363148.000000
1364090.000000
1365040.000000
1365932.000000
1366882.000000
1367804.000000
1368682.000000
1369590.000000
1370506.000000
1371383.000000
1372246.000000
1373135.000000
1374011.000000
1374851.000000
1375695.000000
1376563.000000
1377393.000000
1378237.000000
1379148.000000
1380079.000000
1380957.000000
1381863.000000
1382794.000000
1383681.000000
1384587.000000
1385504.000000
1386401.000000
1387317.000000
1388226.000000
1389097.000000
1389962.000000
1390858.000000
1391767.000000
1392626.000000
1393511.000000
1394409.000000
1395272.000000
1396159.000000
1397067.000000
1397947.000000
1398807.000000
1399700.000000
1400620.000000
1401481.000000
1402356.000000
1403258.000000
1404124.000000
1404980.000000
1405878.000000
1406763.000000
1407626.000000
1408524.000000
1409439.000000
1410310.000000
1411183.000000
1412084.000000
1412972.000000
1413826.000000
1414710.000000
1415622.000000
1416514.000000
1417426.000000
1418375.000000
1419303.000000
1420181.000000
1421106.000000
1422036.000000
1422915.000000
1423812.000000
1424722.000000
1425625.000000
1426493.000000
1427394.000000
1428277.000000
1429112.000000
1429944.000000
1430743.000000
1431503.000000
1432281.000000
1433107.000000
1433939.000000
1434825.000000
1435718.000000
1436561.000000
1437409.000000
1438277.000000
1439170.000000
1440029.000000
1440926.000000
1441864.000000
1442744.000000
1443627.000000
1444534.000000
1445445.000000
1446333.000000
1447274.000000
1448250.000000
1449159.000000
1450109.000000
1451056.000000
1451970.000000
1452913.000000
1453880.000000
1454804.000000
1455707.000000
1456651.000000
1457583.000000
1458477.000000
1459417.000000
1460380.000000
1461287.000000
1462198.000000
1463148.000000
1464108.000000
1465025.000000
1465962.000000
1466926.000000
1467870.000000
1468775.000000
1469720.000000
1470695.000000
1471635.000000
1472598.000000
1473589.000000
1474536.000000
1475454.000000
1476435.000000
1477394.000000
1478302.000000
1479226.000000
1480173.000000
1481101.000000
1482020.000000
1482960.000000
1483914.000000
1484832.000000
1485724.000000
1486662.000000
1487629.000000
1488553.000000
1489443.000000
1490352.000000
1491319.000000
1492286.000000
1493195.000000
1494128.000000
1495054.000000
1495946.000000
1496857.000000
1497788.000000
1498665.000000
1499532.000000
1500438.000000
1501319.000000
1502159.000000
1502982.000000
1503813.000000
1504635.000000
1505472.000000
1506389.000000
1507320.000000
1508188.000000
1509066.000000
1509970.000000
1510853.000000
1511677.000000
1512516.000000
1513377.000000
1514241.000000
1515073.000000
1515930.000000
1516825.000000
1517700.000000
1518565.000000
1519474.000000
1520360.000000
1521197.000000
1522044.000000
1522916.000000
1523775.000000
1524608.000000
1525475.000000
1526348.000000
1527193.000000
1528021.000000
1528875.000000
1529726.000000
1530546.000000
1531345.000000
1532159.000000
1533042.000000
1533931.000000
1534777.000000
1535637.000000
1536520.000000
1537362.000000
1538207.000000
1539085.000000
1539991.000000
1540852.000000
1541747.000000
1542659.000000
1543515.000000
1544390.000000
1545298.000000
1546228.000000
1547114.000000
1548050.000000
1548984.000000
1549853.000000
1550747.000000
1551650.000000
1552568.000000
1553454.000000
1554369.000000
1555287.000000
1556167.000000
1557066.000000
1557983.000000
1558889.000000
1559753.000000
1560647.000000
1561552.000000
1562417.000000
1563298.000000
1564200.000000
1565053.000000
1565878.000000
1566725.000000
1567599.000000
1568451.000000
1569305.000000
1570194.000000
1571113.000000
1572005.000000
1572895.000000
1573799.000000
1574688.000000
1575531.000000
1576389.000000
1577285.000000
1578175.000000
1579044.000000
1579951.000000
1580877.000000
1581744.000000
1582634.000000
1583536.000000
1584390.000000
1585203.000000
1585995.000000
1586852.000000
1587809.000000
1588769.000000
1589719.000000
1590607.000000
1591527.000000
1592485.000000
1593422.000000
1594327.000000
1595289.000000
1596223.000000
1597109.000000
1598026.000000
1598953.000000
1599858.000000
1600753.000000
1601687.000000
1602607.000000
1603488.000000
1604420.000000
1605357.000000
1606276.000000
1607157.000000
1608079.000000
1609007.000000
1609877.000000
1610791.000000
1611717.000000
1612602.000000
1613484.000000
1614395.000000
1615271.000000
1616105.000000
1616906.000000
1617647.000000
1618375.000000
1619110.000000
1619904.000000
1620834.000000
1621782.000000
1622660.000000
1623587.000000
1624515.000000
1625394.000000
1626269.000000
1627174.000000
1628039.000000
1628857.000000
1629699.000000
1630574.000000
1631418.000000
1632289.000000
1633207.000000
1634102.000000
1634978.000000
1635903.000000
1636812.000000
1637661.000000
1638532.000000
1639406.000000
1640238.000000
1641093.000000
1641979.000000
1642850.000000
1643685.000000
1644538.000000
1645414.000000
1646259.000000
1647114.000000
1647990.000000
1648867.000000
1649713.000000
1650598.000000
1651507.000000
1652365.000000
1653257.000000
1654153.000000
1655034.000000
1655904.000000
1656807.000000
1657687.000000
1658546.000000
1659423.000000
1660299.000000
1661140.000000
1662022.000000
1662925.000000
1663778.000000
1664641.000000
1665528.000000
1666408.000000
1667265.000000
1668118.000000
1668995.000000
1669853.000000
1670702.000000
1671605.000000
1672524.000000
1673410.000000
1674336.000000
1675249.000000
1676155.000000
1677119.000000
1678024.000000
1678951.000000
1679898.000000
1680831.000000
1681732.000000
1682647.000000
1683560.000000
1684435.000000
1685329.000000
1686253.000000
1687152.000000
1688022.000000
1688924.000000
1689816.000000
1690664.000000
1691578.000000
1692518.000000
1693411.000000
1694327.000000
1695250.000000
1696110.000000
1696990.000000
1697903.000000
1698810.000000
1699705.000000
1700645.000000
1701585.000000
1702470.000000
1703370.000000
1704289.000000
1705178.000000
1706060.000000
1707001.000000
1707953.000000
1708850.000000
1709825.000000
1710788.000000
1711687.000000
1712626.000000
1713600.000000
1714516.000000
1715435.000000
1716370.000000
1717292.000000
1718215.000000
1719195.000000
1720157.000000
1721112.000000
1722077.000000
1723022.000000
1723967.000000
1724888.000000
1725843.000000
1726797.000000
1727735.000000
1728632.000000
1729573.000000
1730561.000000
1731494.000000
1732376.000000
1733297.000000
1734221.000000
1735108.000000
1735982.000000
1736908.000000
1737839.000000
1738741.000000
1739710.000000
1740678.000000
1741603.000000
1742493.000000
1743428.000000
1744377.000000
1745299.000000
1746221.000000
1747179.000000
1748079.000000
1749000.000000
1749969.000000
1750947.000000
1751849.000000
1752798.000000
1753730.000000
1754613.000000
1755517.000000
1756460.000000
1757365.000000
1758263.000000
1759222.000000
1760152.000000
1761047.000000
1761967.000000
1762877.000000
1763752.000000
1764642.000000
1765534.000000
1766397.000000
1767282.000000
1768194.000000
1769113.000000
1769979.000000
1770910.000000
1771819.000000
1772692.000000
1773574.000000
1774462.000000
1775316.000000
1776137.000000
1776941.000000
1777748.000000
1778543.000000
1779379.000000
1780272.000000
1781221.000000
1782132.000000
1783047.000000
1783972.000000
1784860.000000
1785727.000000
1786607.000000
1787481.000000
1788314.000000
1789145.000000
1790019.000000
1790889.000000
1791746.000000
1792631.000000
1793530.000000
1794403.000000
1795253.000000
1796113.000000
1796978.000000
1797815.000000
1798642.000000
1799512.000000
1800426.000000
