ECG (ms)
19.000000
635.000000
1259.000000
1873.000000
2475.000000
3080.000000
3703.000000
4335.000000
4937.000000
5525.000000
6114.000000
6701.000000
7289.000000
7885.000000
8504.000000
9156.000000
9822.000000
10465.000000
11091.000000
11704.000000
12326.000000
12948.000000
13578.000000
14203.000000
14821.000000
15429.000000
16038.000000
16652.000000
17279.000000
17923.000000
18573.000000
19226.000000
19868.000000
20492.000000
21108.000000
21720.000000
22341.000000
22975.000000
23602.000000
24225.000000
24844.000000
25469.000000
26104.000000
26757.000000
27427.000000
28104.000000
28777.000000
29440.000000
30081.000000
30700.000000
31312.000000
31928.000000
32566.000000
33242.000000
33969.000000
34708.000000
35415.000000
36072.000000
36701.000000
37318.000000
37939.000000
38589.000000
39277.000000
40000.000000
40727.000000
41449.000000
42149.000000
42857.000000
43569.000000
44273.000000
44942.000000
45587.000000
46234.000000
46895.000000
47573.000000
48248.000000
48919.000000
49596.000000
50296.000000
51029.000000
51767.000000
52485.000000
53188.000000
53872.000000
54528.000000
55171.000000
55820.000000
56507.000000
57236.000000
57993.000000
58749.000000
59484.000000
60182.000000
60846.000000
61505.000000
62180.000000
62886.000000
63609.000000
64357.000000
65109.000000
65846.000000
66545.000000
67225.000000
67898.000000
68573.000000
69258.000000
69933.000000
70601.000000
71284.000000
71959.000000
72625.000000
73285.000000
73938.000000
74583.000000
75235.000000
75896.000000
76547.000000
77164.000000
77780.000000
78391.000000
78989.000000
79574.000000
80160.000000
80774.000000
81428.000000
82125.000000
82822.000000
83515.000000
84210.000000
84901.000000
85570.000000
86212.000000
86846.000000
87497.000000
88194.000000
88952.000000
89719.000000
90485.000000
91258.000000
92012.000000
92745.000000
93466.000000
94198.000000
94948.000000
95699.000000
96439.000000
97132.000000
97798.000000
98441.000000
99084.000000
99755.000000
100536.000000
101360.000000
102186.000000
102982.000000
103723.000000
104415.000000
105087.000000
105763.000000
106468.000000
107223.000000
107969.000000
108712.000000
109469.000000
110249.000000
110991.000000
111712.000000
112414.000000
113103.000000
113774.000000
114450.000000
115166.000000
115896.000000
116631.000000
117342.000000
118031.000000
118718.000000
119393.000000
120071.000000
120756.000000
121432.000000
122100.000000
122763.000000
123449.000000
124181.000000
124944.000000
125714.000000
126469.000000
127176.000000
127840.000000
128500.000000
129179.000000
129920.000000
130701.000000
131522.000000
132358.000000
133178.000000
133943.000000
134674.000000
135379.000000
136070.000000
136758.000000
137449.000000
138147.000000
138888.000000
139710.000000
140547.000000
141352.000000
142126.000000
142873.000000
143602.000000
144301.000000
144972.000000
145641.000000
146348.000000
147166.000000
147994.000000
148778.000000
149511.000000
150240.000000
150967.000000
151714.000000
152445.000000
153159.000000
153881.000000
154636.000000
155386.000000
156133.000000
156851.000000
157562.000000
158269.000000
158984.000000
159683.000000
160391.000000
161083.000000
161794.000000
162540.000000
163320.000000
164088.000000
164835.000000
165540.000000
166231.000000
166922.000000
167629.000000
168331.000000
169011.000000
169698.000000
170404.000000
171131.000000
171865.000000
172580.000000
173245.000000
173881.000000
174516.000000
175168.000000
175878.000000
176621.000000
177352.000000
178064.000000
178755.000000
179434.000000
180097.000000
180756.000000
181409.000000
182058.000000
182713.000000
183410.000000
184165.000000
184924.000000
185680.000000
186424.000000
187151.000000
187847.000000
188516.000000
189174.000000
189848.000000
190538.000000
191279.000000
192058.000000
192811.000000
193526.000000
194213.000000
194897.000000
195579.000000
196281.000000
196985.000000
197676.000000
198387.000000
199103.000000
199821.000000
200536.000000
201233.000000
201898.000000
202544.000000
203192.000000
203867.000000
204564.000000
205235.000000
205875.000000
206518.000000
207176.000000
207830.000000
208482.000000
209146.000000
209835.000000
210537.000000
211250.000000
211960.000000
212663.000000
213363.000000
214043.000000
214702.000000
215345.000000
215989.000000
216659.000000
217388.000000
218157.000000
218910.000000
219643.000000
220334.000000
220989.000000
221630.000000
222284.000000
222992.000000
223809.000000
224655.000000
225508.000000
226332.000000
227082.000000
227795.000000
228487.000000
229193.000000
229922.000000
230658.000000
231403.000000
232150.000000
232917.000000
233710.000000
234502.000000
235277.000000
236046.000000
236786.000000
237509.000000
238206.000000
238888.000000
239573.000000
240294.000000
241109.000000
241940.000000
242764.000000
243544.000000
244253.000000
244933.000000
245606.000000
246301.000000
247060.000000
247876.000000
248703.000000
249503.000000
250258.000000
250965.000000
251657.000000
252357.000000
253105.000000
253867.000000
254660.000000
255442.000000
256212.000000
256966.000000
257696.000000
258387.000000
259060.000000
259733.000000
260420.000000
261158.000000
261925.000000
262718.000000
263519.000000
264290.000000
265029.000000
265747.000000
266491.000000
267265.000000
268052.000000
268828.000000
269581.000000
270297.000000
270975.000000
271631.000000
272295.000000
273004.000000
273818.000000
274701.000000
275584.000000
276445.000000
277232.000000
277943.000000
278614.000000
279280.000000
279977.000000
280776.000000
281603.000000
282445.000000
283254.000000
284018.000000
284738.000000
285428.000000
286111.000000
286834.000000
287637.000000
288454.000000
289267.000000
290067.000000
290814.000000
291522.000000
292218.000000
292940.000000
293699.000000
294487.000000
295270.000000
296028.000000
296753.000000
297468.000000
298185.000000
298914.000000
299638.000000
300361.000000
301077.000000
301793.000000
302559.000000
303398.000000
304253.000000
305084.000000
305874.000000
306626.000000
307352.000000
308072.000000
308795.000000
309516.000000
310233.000000
311000.000000
311910.000000
312847.000000
313751.000000
314589.000000
315357.000000
316076.000000
316771.000000
317483.000000
318235.000000
319078.000000
320023.000000
320979.000000
321923.000000
322835.000000
323685.000000
324458.000000
325182.000000
325872.000000
326582.000000
327399.000000
328284.000000
329231.000000
330162.000000
331056.000000
331865.000000
332625.000000
333361.000000
334129.000000
334972.000000
335845.000000
336730.000000
337611.000000
338463.000000
339276.000000
340043.000000
340788.000000
341530.000000
342300.000000
343108.000000
343942.000000
344771.000000
345566.000000
346301.000000
347010.000000
347707.000000
348425.000000
349186.000000
350005.000000
350815.000000
351634.000000
352440.000000
353210.000000
353946.000000
354658.000000
355358.000000
356094.000000
356948.000000
357815.000000
358700.000000
359580.000000
360401.000000
361165.000000
361887.000000
362616.000000
363378.000000
364188.000000
365028.000000
365871.000000
366695.000000
367469.000000
368201.000000
368911.000000
369607.000000
370308.000000
371056.000000
371869.000000
372692.000000
373515.000000
374317.000000
375083.000000
375775.000000
376429.000000
377067.000000
377696.000000
378331.000000
379045.000000
380070.000000
381047.000000
381996.000000
382903.000000
383771.000000
384563.000000
385306.000000
386036.000000
386768.000000
387487.000000
388208.000000
388925.000000
389684.000000
390529.000000
391431.000000
392317.000000
393193.000000
394021.000000
394819.000000
395585.000000
396323.000000
397034.000000
397735.000000
398454.000000
399253.000000
400122.000000
400995.000000
401839.000000
402640.000000
403382.000000
404098.000000
404805.000000
405550.000000
406396.000000
407258.000000
408091.000000
408926.000000
409808.000000
410691.000000
411534.000000
412335.000000
413090.000000
413817.000000
414530.000000
415264.000000
416046.000000
416881.000000
417755.000000
418581.000000
419360.000000
420111.000000
420877.000000
421669.000000
422454.000000
423235.000000
424012.000000
424783.000000
425540.000000
426272.000000
426983.000000
427684.000000
428406.000000
429172.000000
429982.000000
430793.000000
431597.000000
432385.000000
433149.000000
433869.000000
434561.000000
435233.000000
435907.000000
436621.000000
437464.000000
438342.000000
439195.000000
440014.000000
440791.000000
441533.000000
442234.000000
442913.000000
443589.000000
444307.000000
445143.000000
446017.000000
446886.000000
447716.000000
448497.000000
449237.000000
449939.000000
450622.000000
451308.000000
452037.000000
452845.000000
453692.000000
454544.000000
455385.000000
456183.000000
456934.000000
457648.000000
458350.000000
459082.000000
459878.000000
460695.000000
461503.000000
462293.000000
463049.000000
463783.000000
464529.000000
465290.000000
466049.000000
466800.000000
467533.000000
468225.000000
468890.000000
469554.000000
470258.000000
471057.000000
471887.000000
472722.000000
473540.000000
474324.000000
475074.000000
475794.000000
476493.000000
477181.000000
477859.000000
478558.000000
479360.000000
480241.000000
481155.000000
482039.000000
482902.000000
483731.000000
484510.000000
485230.000000
485917.000000
486590.000000
487288.000000
488107.000000
488985.000000
489868.000000
490731.000000
491555.000000
492329.000000
493071.000000
493778.000000
494465.000000
495149.000000
495888.000000
496729.000000
497597.000000
498454.000000
499293.000000
500076.000000
500832.000000
501534.000000
502206.000000
502863.000000
503540.000000
504295.000000
505162.000000
506035.000000
506882.000000
507661.000000
508355.000000
509023.000000
509691.000000
510369.000000
511054.000000
511741.000000
512431.000000
513160.000000
513999.000000
514832.000000
515652.000000
516431.000000
517174.000000
517889.000000
518591.000000
519302.000000
520029.000000
520762.000000
521556.000000
522398.000000
523246.000000
524076.000000
524862.000000
525571.000000
526230.000000
526864.000000
527514.000000
528256.000000
529140.000000
530038.000000
530925.000000
531788.000000
532605.000000
533316.000000
533987.000000
534660.000000
535376.000000
536165.000000
537006.000000
537858.000000
538692.000000
539461.000000
540171.000000
540851.000000
541529.000000
542219.000000
542929.000000
543672.000000
544452.000000
545227.000000
545981.000000
546690.000000
547349.000000
547989.000000
548631.000000
549307.000000
550031.000000
550798.000000
551577.000000
552334.000000
553073.000000
553796.000000
554493.000000
555169.000000
555822.000000
556475.000000
557132.000000
557829.000000
558568.000000
559333.000000
560084.000000
560824.000000
561560.000000
562274.000000
562955.000000
563605.000000
564252.000000
564916.000000
565625.000000
566397.000000
567183.000000
567966.000000
568724.000000
569464.000000
570190.000000
570880.000000
571547.000000
572196.000000
572847.000000
573533.000000
574281.000000
575080.000000
575860.000000
576628.000000
577374.000000
578105.000000
578816.000000
579529.000000
580237.000000
580953.000000
581687.000000
582397.000000
583093.000000
583836.000000
584618.000000
585421.000000
586225.000000
586985.000000
587687.000000
588358.000000
589023.000000
589697.000000
590410.000000
591136.000000
591885.000000
592635.000000
593401.000000
594151.000000
594868.000000
595552.000000
596216.000000
596879.000000
597583.000000
598322.000000
599083.000000
599837.000000
600579.000000
601309.000000
602019.000000
602717.000000
603396.000000
604048.000000
604688.000000
605333.000000
606025.000000
606813.000000
607645.000000
608457.000000
609250.000000
610014.000000
610757.000000
611472.000000
612163.000000
612853.000000
613568.000000
614320.000000
615109.000000
615911.000000
616708.000000
617494.000000
618234.000000
618936.000000
619615.000000
620300.000000
621029.000000
621853.000000
622682.000000
623512.000000
624327.000000
625125.000000
625906.000000
626658.000000
627382.000000
628088.000000
628789.000000
629517.000000
630361.000000
631236.000000
632129.000000
632993.000000
633814.000000
634604.000000
635352.000000
636077.000000
636769.000000
637461.000000
638181.000000
639033.000000
639973.000000
640895.000000
641778.000000
642626.000000
643431.000000
644201.000000
644947.000000
645661.000000
646356.000000
647042.000000
647749.000000
648538.000000
649417.000000
650305.000000
651169.000000
651995.000000
652781.000000
653532.000000
654242.000000
654921.000000
655589.000000
656313.000000
657284.000000
658250.000000
659225.000000
660186.000000
661130.000000
662042.000000
662889.000000
663629.000000
664320.000000
665015.000000
665789.000000
666761.000000
667703.000000
668620.000000
669515.000000
670368.000000
671188.000000
671960.000000
672686.000000
673386.000000
674082.000000
674819.000000
675629.000000
676453.000000
677272.000000
678067.000000
678854.000000
679614.000000
680355.000000
681059.000000
681732.000000
682397.000000
683084.000000
683811.000000
684581.000000
685365.000000
686140.000000
686898.000000
687632.000000
688356.000000
689065.000000
689756.000000
690433.000000
691118.000000
691849.000000
692641.000000
693456.000000
694281.000000
695098.000000
695897.000000
696664.000000
697400.000000
698089.000000
698759.000000
699417.000000
700097.000000
700911.000000
701813.000000
702717.000000
703603.000000
704479.000000
705322.000000
706100.000000
706818.000000
707498.000000
708169.000000
708888.000000
709768.000000
710693.000000
711604.000000
712487.000000
713341.000000
714148.000000
714905.000000
715610.000000
716292.000000
716976.000000
717696.000000
718526.000000
719396.000000
720266.000000
721095.000000
721890.000000
722678.000000
723450.000000
724190.000000
724884.000000
725554.000000
726216.000000
726902.000000
727669.000000
728516.000000
729373.000000
730245.000000
731112.000000
731957.000000
732738.000000
733478.000000
734201.000000
734925.000000
735688.000000
736498.000000
737330.000000
738151.000000
738956.000000
739746.000000
740505.000000
741210.000000
741886.000000
742551.000000
743232.000000
744018.000000
744838.000000
745652.000000
746460.000000
747242.000000
748003.000000
748743.000000
749466.000000
750183.000000
750886.000000
751587.000000
752298.000000
753057.000000
753925.000000
754799.000000
755664.000000
756480.000000
757231.000000
757920.000000
758577.000000
759223.000000
759884.000000
760560.000000
761259.000000
762094.000000
762990.000000
763871.000000
764728.000000
765554.000000
766342.000000
767104.000000
767851.000000
768596.000000
769335.000000
770065.000000
770818.000000
771631.000000
772509.000000
773400.000000
774274.000000
775126.000000
775925.000000
776671.000000
777402.000000
778131.000000
778880.000000
779717.000000
780569.000000
781413.000000
782254.000000
783160.000000
784079.000000
784977.000000
785844.000000
786674.000000
787451.000000
788191.000000
788922.000000
789677.000000
790496.000000
791325.000000
792155.000000
793015.000000
793886.000000
794693.000000
795437.000000
796154.000000
796874.000000
797640.000000
798463.000000
799300.000000
800134.000000
800941.000000
801730.000000
802486.000000
803193.000000
803872.000000
804559.000000
805311.000000
806172.000000
807064.000000
807945.000000
808804.000000
809619.000000
810396.000000
811132.000000
811849.000000
812566.000000
813332.000000
814227.000000
815138.000000
816044.000000
816932.000000
817788.000000
818583.000000
819316.000000
820007.000000
820701.000000
821469.000000
822383.000000
823301.000000
824214.000000
825122.000000
826013.000000
826868.000000
827650.000000
828412.000000
829196.000000
830017.000000
830840.000000
831661.000000
832469.000000
833260.000000
834025.000000
834785.000000
835560.000000
836368.000000
837208.000000
838064.000000
838893.000000
839692.000000
840443.000000
841176.000000
841904.000000
842709.000000
843578.000000
844474.000000
845346.000000
846232.000000
847130.000000
848041.000000
848923.000000
849796.000000
850638.000000
851440.000000
852215.000000
852955.000000
853710.000000
854506.000000
855341.000000
856197.000000
857062.000000
857899.000000
858715.000000
859474.000000
860204.000000
860923.000000
861695.000000
862541.000000
863399.000000
864241.000000
864991.000000
865696.000000
866394.000000
867071.000000
867738.000000
868432.000000
869239.000000
870084.000000
870945.000000
871809.000000
872624.000000
873397.000000
874124.000000
874837.000000
875566.000000
876334.000000
877158.000000
877998.000000
878864.000000
879695.000000
880474.000000
881244.000000
882016.000000
882796.000000
883585.000000
884363.000000
885129.000000
885866.000000
886561.000000
887241.000000
887939.000000
888697.000000
889505.000000
890322.000000
891135.000000
891944.000000
892723.000000
893474.000000
894204.000000
894914.000000
895653.000000
896447.000000
897282.000000
898123.000000
898967.000000
899768.000000
900523.000000
