ECG (ms)
557.000000
1453.000000
2229.000000
2961.000000
3639.000000
4780.000000
5658.000000
6468.000000
7314.000000
8083.000000
8890.000000
9750.000000
10562.000000
11431.000000
12291.000000
13074.000000
13959.000000
14804.000000
15592.000000
16425.000000
17243.000000
17987.000000
18766.000000
19586.000000
20392.000000
21238.000000
22019.000000
22740.000000
23427.000000
24104.000000
24817.000000
25628.000000
26475.000000
27279.000000
28134.000000
28968.000000
29769.000000
30653.000000
31465.000000
32231.000000
33031.000000
33817.000000
34581.000000
35428.000000
36299.000000
37110.000000
38007.000000
38930.000000
39766.000000
40644.000000
41462.000000
42276.000000
43154.000000
43976.000000
44780.000000
45714.000000
46571.000000
47409.000000
48338.000000
49167.000000
49952.000000
50789.000000
51594.000000
52380.000000
53246.000000
54075.000000
54848.000000
55674.000000
56501.000000
57273.000000
58113.000000
58929.000000
59702.000000
60554.000000
61408.000000
62199.000000
63067.000000
63917.000000
64726.000000
65605.000000
66476.000000
67308.000000
68179.000000
69021.000000
69790.000000
70598.000000
71359.000000
72072.000000
72805.000000
73579.000000
74477.000000
75401.000000
76220.000000
77086.000000
77949.000000
78722.000000
79550.000000
80446.000000
81246.000000
82148.000000
83035.000000
83837.000000
84675.000000
85526.000000
86338.000000
87227.000000
88171.000000
88986.000000
89883.000000
90805.000000
91627.000000
92518.000000
93399.000000
94213.000000
95124.000000
96004.000000
96828.000000
97689.000000
98554.000000
99345.000000
100300.000000
101193.000000
102006.000000
102874.000000
103731.000000
104523.000000
105384.000000
106243.000000
107015.000000
107847.000000
108714.000000
109511.000000
110400.000000
111245.000000
112038.000000
112906.000000
113719.000000
114487.000000
115326.000000
116136.000000
116926.000000
117810.000000
118677.000000
119490.000000
120405.000000
121279.000000
122088.000000
122982.000000
123871.000000
124700.000000
125621.000000
126499.000000
127299.000000
128147.000000
129006.000000
129826.000000
130695.000000
131621.000000
132438.000000
133310.000000
134194.000000
134988.000000
135758.000000
136519.000000
137326.000000
138158.000000
138924.000000
139766.000000
140631.000000
141379.000000
142166.000000
142997.000000
143754.000000
144532.000000
145426.000000
146206.000000
147069.000000
148002.000000
148857.000000
149721.000000
150636.000000
151454.000000
152284.000000
153202.000000
154047.000000
154891.000000
155780.000000
156591.000000
157418.000000
158265.000000
159028.000000
159876.000000
160770.000000
161582.000000
162457.000000
163328.000000
164110.000000
164953.000000
165778.000000
166516.000000
167347.000000
168195.000000
168961.000000
169829.000000
170713.000000
171514.000000
172347.000000
173194.000000
173964.000000
174776.000000
175584.000000
176329.000000
177161.000000
178016.000000
178815.000000
179677.000000
180512.000000
181277.000000
182124.000000
182949.000000
183699.000000
184534.000000
185371.000000
186131.000000
186968.000000
187800.000000
188549.000000
189366.000000
190152.000000
190886.000000
191704.000000
192508.000000
193244.000000
194044.000000
194770.000000
195457.000000
196141.000000
196905.000000
197821.000000
198717.000000
199543.000000
200379.000000
201233.000000
202003.000000
202779.000000
203591.000000
204317.000000
205079.000000
205887.000000
206654.000000
207479.000000
208322.000000
209056.000000
209886.000000
210702.000000
211449.000000
212279.000000
213146.000000
213934.000000
214797.000000
215647.000000
216415.000000
217252.000000
218052.000000
218786.000000
219613.000000
220412.000000
221155.000000
222014.000000
222839.000000
223637.000000
224514.000000
225341.000000
226122.000000
227002.000000
227807.000000
228552.000000
229399.000000
230219.000000
230956.000000
231809.000000
232694.000000
233505.000000
234336.000000
235192.000000
236000.000000
236860.000000
237757.000000
238574.000000
239487.000000
240360.000000
241153.000000
242002.000000
242836.000000
243606.000000
244437.000000
245295.000000
246088.000000
246964.000000
247827.000000
248572.000000
249319.000000
250016.000000
250742.000000
251765.000000
252637.000000
253531.000000
254404.000000
255189.000000
256065.000000
256912.000000
257677.000000
258543.000000
259408.000000
260202.000000
261071.000000
261916.000000
262731.000000
263649.000000
264452.000000
265304.000000
266171.000000
266973.000000
267863.000000
268731.000000
269572.000000
270501.000000
271382.000000
272235.000000
273155.000000
273992.000000
274819.000000
275710.000000
276533.000000
277423.000000
278376.000000
279233.000000
280152.000000
281024.000000
281834.000000
282710.000000
283578.000000
284359.000000
285280.000000
286178.000000
287003.000000
287892.000000
288750.000000
289564.000000
290428.000000
291271.000000
292051.000000
292952.000000
293850.000000
294683.000000
295574.000000
296459.000000
297274.000000
298132.000000
298985.000000
299752.000000
300645.000000
301552.000000
302365.000000
303213.000000
304053.000000
304836.000000
305727.000000
306619.000000
307447.000000
308306.000000
309161.000000
309945.000000
310818.000000
311665.000000
312481.000000
313341.000000
314211.000000
315023.000000
315922.000000
316793.000000
317611.000000
318485.000000
319321.000000
320097.000000
320861.000000
321559.000000
322340.000000
323190.000000
324087.000000
324981.000000
325804.000000
326653.000000
327505.000000
328267.000000
329121.000000
329959.000000
330715.000000
331584.000000
332483.000000
333298.000000
334165.000000
335063.000000
335893.000000
336842.000000
337794.000000
338668.000000
339591.000000
340476.000000
341263.000000
342240.000000
343227.000000
344073.000000
344923.000000
345799.000000
346572.000000
347407.000000
348252.000000
349058.000000
350030.000000
350932.000000
351772.000000
352692.000000
353552.000000
354345.000000
355214.000000
356037.000000
356846.000000
357737.000000
358544.000000
359371.000000
360277.000000
361091.000000
361941.000000
362845.000000
363701.000000
364639.000000
365501.000000
366317.000000
367201.000000
368023.000000
368805.000000
369698.000000
370534.000000
371365.000000
372269.000000
373091.000000
374000.000000
374913.000000
375735.000000
376587.000000
377465.000000
378286.000000
379147.000000
379974.000000
380742.000000
381510.000000
382203.000000
382921.000000
383811.000000
384651.000000
385529.000000
386368.000000
387192.000000
388116.000000
388988.000000
389804.000000
390712.000000
391501.000000
392275.000000
393165.000000
393960.000000
394801.000000
395718.000000
396557.000000
397488.000000
398364.000000
399184.000000
400086.000000
401012.000000
401841.000000
402745.000000
403658.000000
404505.000000
405484.000000
406424.000000
407309.000000
408248.000000
409076.000000
409905.000000
410781.000000
411623.000000
412515.000000
413293.000000
414023.000000
414926.000000
415756.000000
416726.000000
417619.000000
418443.000000
419344.000000
420189.000000
421018.000000
421909.000000
422706.000000
423514.000000
424376.000000
425170.000000
425990.000000
426881.000000
427697.000000
428606.000000
429482.000000
430301.000000
431211.000000
432096.000000
432910.000000
433832.000000
434699.000000
435516.000000
436490.000000
437483.000000
438321.000000
439233.000000
440140.000000
440964.000000
441872.000000
442683.000000
443548.000000
444481.000000
445315.000000
446228.000000
447245.000000
448106.000000
449009.000000
449971.000000
450797.000000
451582.000000
452312.000000
453264.000000
454176.000000
455164.000000
456118.000000
456958.000000
457882.000000
458799.000000
459649.000000
460647.000000
461601.000000
462460.000000
463420.000000
464347.000000
465261.000000
466213.000000
467118.000000
468155.000000
469102.000000
469984.000000
470989.000000
471927.000000
472814.000000
473823.000000
474763.000000
475777.000000
476721.000000
477616.000000
478574.000000
479413.000000
480318.000000
481202.000000
482039.000000
482958.000000
483877.000000
484711.000000
485620.000000
486490.000000
487309.000000
488213.000000
489066.000000
489887.000000
490851.000000
491714.000000
492545.000000
493459.000000
494352.000000
495182.000000
496102.000000
496934.000000
497754.000000
498673.000000
499529.000000
500403.000000
501341.000000
502177.000000
503104.000000
504099.000000
504972.000000
505893.000000
506770.000000
507607.000000
508546.000000
509481.000000
510317.000000
511226.000000
512081.000000
512860.000000
513697.000000
514452.000000
515214.000000
516080.000000
516899.000000
517761.000000
518554.000000
519350.000000
520185.000000
520963.000000
521801.000000
522642.000000
523399.000000
524199.000000
525016.000000
525762.000000
526563.000000
527385.000000
528125.000000
528956.000000
529796.000000
530563.000000
531427.000000
532268.000000
533045.000000
533886.000000
534772.000000
535580.000000
536411.000000
537316.000000
538161.000000
539118.000000
539983.000000
540775.000000
541548.000000
542342.000000
543131.000000
544098.000000
544996.000000
545848.000000
546790.000000
547681.000000
548521.000000
549406.000000
550239.000000
551066.000000
552084.000000
552964.000000
553961.000000
554952.000000
555864.000000
556851.000000
557747.000000
558646.000000
559711.000000
560637.000000
561542.000000
562476.000000
563322.000000
564301.000000
565219.000000
566073.000000
567021.000000
567880.000000
568757.000000
569720.000000
570546.000000
571410.000000
572277.000000
573077.000000
573946.000000
574829.000000
575622.000000
576465.000000
577346.000000
578187.000000
579108.000000
579998.000000
580784.000000
581532.000000
582228.000000
583003.000000
583898.000000
584797.000000
585777.000000
586634.000000
587598.000000
588464.000000
589276.000000
590169.000000
591054.000000
591867.000000
592768.000000
593641.000000
594473.000000
595440.000000
596306.000000
597122.000000
597997.000000
598818.000000
599614.000000
600544.000000
601453.000000
602287.000000
603207.000000
604063.000000
604881.000000
605802.000000
606653.000000
607458.000000
608299.000000
609089.000000
609870.000000
610699.000000
611475.000000
612319.000000
613208.000000
614002.000000
614855.000000
615690.000000
616457.000000
