ECG (ms)
537.000000
1621.000000
2652.000000
3720.000000
4655.000000
5584.000000
6633.000000
7600.000000
8574.000000
9759.000000
10816.000000
11898.000000
12951.000000
13966.000000
15038.000000
16052.000000
17035.000000
18054.000000
19043.000000
20047.000000
21135.000000
22165.000000
23230.000000
24324.000000
25331.000000
26394.000000
27454.000000
28429.000000
29449.000000
30534.000000
31516.000000
32524.000000
33572.000000
34562.000000
35548.000000
36633.000000
37663.000000
38685.000000
39787.000000
40858.000000
41874.000000
42963.000000
44005.000000
44993.000000
46053.000000
47101.000000
48090.000000
49169.000000
50244.000000
51270.000000
52376.000000
53461.000000
54467.000000
55540.000000
56647.000000
57678.000000
58763.000000
59877.000000
60919.000000
62062.000000
63149.000000
64235.000000
65360.000000
66388.000000
67468.000000
68582.000000
69619.000000
70740.000000
71846.000000
72908.000000
74036.000000
75109.000000
76191.000000
77322.000000
78370.000000
79452.000000
80554.000000
81571.000000
82642.000000
83739.000000
84769.000000
85905.000000
87056.000000
88139.000000
89334.000000
90509.000000
91600.000000
92758.000000
93864.000000
94854.000000
96063.000000
97119.000000
98186.000000
99329.000000
100371.000000
101489.000000
102608.000000
103669.000000
104828.000000
105901.000000
106973.000000
108089.000000
109109.000000
110177.000000
111315.000000
112363.000000
113483.000000
114604.000000
115643.000000
116748.000000
117871.000000
118881.000000
119981.000000
121056.000000
122086.000000
123209.000000
124306.000000
125394.000000
126522.000000
127583.000000
128668.000000
129779.000000
130790.000000
131903.000000
133013.000000
134062.000000
135199.000000
136268.000000
137337.000000
138453.000000
139464.000000
140541.000000
141628.000000
142638.000000
143725.000000
144793.000000
145813.000000
146915.000000
147960.000000
148989.000000
150074.000000
151099.000000
152110.000000
153182.000000
154196.000000
155217.000000
156321.000000
157325.000000
158342.000000
159456.000000
160485.000000
161573.000000
162683.000000
163708.000000
164807.000000
165880.000000
166928.000000
168049.000000
169115.000000
170191.000000
171327.000000
172370.000000
173435.000000
174535.000000
175542.000000
176627.000000
177679.000000
178737.000000
179855.000000
180919.000000
182037.000000
183131.000000
184168.000000
185270.000000
186304.000000
187364.000000
188438.000000
189431.000000
190472.000000
191543.000000
192531.000000
193557.000000
194645.000000
195642.000000
196650.000000
197716.000000
198706.000000
199769.000000
200856.000000
201870.000000
202956.000000
204024.000000
205047.000000
206152.000000
207189.000000
208229.000000
209328.000000
210308.000000
211332.000000
212446.000000
213445.000000
214509.000000
215634.000000
216598.000000
217727.000000
218831.000000
219824.000000
220961.000000
221992.000000
222996.000000
224185.000000
225193.000000
226263.000000
227434.000000
228429.000000
229477.000000
230592.000000
231574.000000
232767.000000
233869.000000
234994.000000
236094.000000
237065.000000
238156.000000
239209.000000
240224.000000
241521.000000
242664.000000
243817.000000
244947.000000
245983.000000
247133.000000
248194.000000
249241.000000
250445.000000
251534.000000
252671.000000
253782.000000
254780.000000
255951.000000
257011.000000
258064.000000
259325.000000
260370.000000
261462.000000
262623.000000
263665.000000
264935.000000
266059.000000
267193.000000
268337.000000
269347.000000
270560.000000
271593.000000
272630.000000
273830.000000
274874.000000
276167.000000
277337.000000
278486.000000
279668.000000
280773.000000
281978.000000
283083.000000
284109.000000
285372.000000
286508.000000
287684.000000
288805.000000
289822.000000
290980.000000
292083.000000
293221.000000
294489.000000
295563.000000
296651.000000
297723.000000
298787.000000
300032.000000
301078.000000
302177.000000
303276.000000
304303.000000
305468.000000
306479.000000
307505.000000
308737.000000
309841.000000
310874.000000
312016.000000
313031.000000
314036.000000
315142.000000
316138.000000
317147.000000
318207.000000
319182.000000
320216.000000
321424.000000
322426.000000
323513.000000
324617.000000
325704.000000
326961.000000
328081.000000
329179.000000
330345.000000
331358.000000
332450.000000
333552.000000
334621.000000
335780.000000
336828.000000
337856.000000
338967.000000
339987.000000
341093.000000
342165.000000
343133.000000
344273.000000
345341.000000
346386.000000
347538.000000
348548.000000
349642.000000
350813.000000
351859.000000
353108.000000
354237.000000
355354.000000
356539.000000
357552.000000
358620.000000
359631.000000
360604.000000
361886.000000
362964.000000
364077.000000
365165.000000
366156.000000
367375.000000
368423.000000
369430.000000
370570.000000
371528.000000
372628.000000
373729.000000
374788.000000
376006.000000
377041.000000
378023.000000
379068.000000
380021.000000
381155.000000
382240.000000
383219.000000
384406.000000
385435.000000
386451.000000
387525.000000
388491.000000
389520.000000
390531.000000
391464.000000
392488.000000
393541.000000
394496.000000
395585.000000
396587.000000
397554.000000
398664.000000
399706.000000
400612.000000
401445.000000
402310.000000
403669.000000
404697.000000
405565.000000
406505.000000
407653.000000
408800.000000
409897.000000
411042.000000
412158.000000
413237.000000
414371.000000
415440.000000
416445.000000
417520.000000
418615.000000
419605.000000
420583.000000
421711.000000
422718.000000
423768.000000
424869.000000
425857.000000
426991.000000
428042.000000
429040.000000
430157.000000
431144.000000
432168.000000
433217.000000
434145.000000
435116.000000
436122.000000
437072.000000
438207.000000
439133.000000
440108.000000
441287.000000
442288.000000
443313.000000
444311.000000
445341.000000
446598.000000
447617.000000
448696.000000
449737.000000
450746.000000
451806.000000
452784.000000
453820.000000
454840.000000
455820.000000
456849.000000
457816.000000
458815.000000
459838.000000
460795.000000
461815.000000
462873.000000
463899.000000
464979.000000
465997.000000
467046.000000
468125.000000
469121.000000
470201.000000
471250.000000
472294.000000
473384.000000
474401.000000
475458.000000
476542.000000
477520.000000
478563.000000
479593.000000
480531.000000
481695.000000
482695.000000
483675.000000
484797.000000
485745.000000
486724.000000
487847.000000
488806.000000
489900.000000
490965.000000
491951.000000
493017.000000
494052.000000
495039.000000
496138.000000
497123.000000
498153.000000
499231.000000
500207.000000
501238.000000
502294.000000
503295.000000
504419.000000
505436.000000
506485.000000
507563.000000
508559.000000
509622.000000
510716.000000
511703.000000
512829.000000
513897.000000
514949.000000
516055.000000
517059.000000
518127.000000
519147.000000
520097.000000
521240.000000
522273.000000
523280.000000
524560.000000
525682.000000
526886.000000
528043.000000
529082.000000
530204.000000
531281.000000
532312.000000
533459.000000
534496.000000
535567.000000
536807.000000
537866.000000
538974.000000
540068.000000
541137.000000
542344.000000
543425.000000
544433.000000
545523.000000
546494.000000
547532.000000
548583.000000
549579.000000
550761.000000
551837.000000
552941.000000
554060.000000
555108.000000
556237.000000
557260.000000
558279.000000
559388.000000
560386.000000
561463.000000
562468.000000
563420.000000
564509.000000
565554.000000
566562.000000
567695.000000
568772.000000
569749.000000
570826.000000
571800.000000
572766.000000
573963.000000
574932.000000
575937.000000
577000.000000
577961.000000
579205.000000
580318.000000
581430.000000
582558.000000
583588.000000
584699.000000
585794.000000
586857.000000
587980.000000
589026.000000
590107.000000
591187.000000
592182.000000
593247.000000
594315.000000
595363.000000
596521.000000
597589.000000
598707.000000
599794.000000
600882.000000
602032.000000
603112.000000
604222.000000
605265.000000
606347.000000
607443.000000
608495.000000
609616.000000
610683.000000
611776.000000
612893.000000
613941.000000
615050.000000
616132.000000
617204.000000
618328.000000
619417.000000
620488.000000
621589.000000
622630.000000
623711.000000
624813.000000
625854.000000
626942.000000
627986.000000
629037.000000
630152.000000
631241.000000
632392.000000
633528.000000
634608.000000
635759.000000
636858.000000
637908.000000
639119.000000
640132.000000
641122.000000
642349.000000
643410.000000
644621.000000
645795.000000
646954.000000
648159.000000
649285.000000
650480.000000
651620.000000
652785.000000
653948.000000
655015.000000
656133.000000
657186.000000
658196.000000
659364.000000
660373.000000
661445.000000
662551.000000
663591.000000
664777.000000
665845.000000
666931.000000
668019.000000
669021.000000
670178.000000
671225.000000
672270.000000
673349.000000
674325.000000
675373.000000
676448.000000
677445.000000
678564.000000
679611.000000
680643.000000
681797.000000
682809.000000
683895.000000
684948.000000
685906.000000
686979.000000
688005.000000
689019.000000
690158.000000
691176.000000
692290.000000
693345.000000
694294.000000
695349.000000
696411.000000
697455.000000
698574.000000
699569.000000
700598.000000
701717.000000
702679.000000
703803.000000
704806.000000
705788.000000
706880.000000
707905.000000
709030.000000
710160.000000
711217.000000
712383.000000
713438.000000
714452.000000
715491.000000
716404.000000
717412.000000
718452.000000
719430.000000
720705.000000
721797.000000
722911.000000
724007.000000
724982.000000
725878.000000
726728.000000
727927.000000
729128.000000
730310.000000
731409.000000
732566.000000
733704.000000
734883.000000
736081.000000
737100.000000
738226.000000
739239.000000
740245.000000
741385.000000
742417.000000
743467.000000
744583.000000
745639.000000
746766.000000
747825.000000
748850.000000
749958.000000
750941.000000
751909.000000
752985.000000
753993.000000
755084.000000
756214.000000
757176.000000
758165.000000
759035.000000
759877.000000
760814.000000
761762.000000
763019.000000
764055.000000
765138.000000
766224.000000
767203.000000
768310.000000
769356.000000
770360.000000
771436.000000
772467.000000
773510.000000
774607.000000
775638.000000
776724.000000
777780.000000
778820.000000
779912.000000
780900.000000
781949.000000
783012.000000
784001.000000
785093.000000
786175.000000
787250.000000
788353.000000
789354.000000
790438.000000
791515.000000
792577.000000
793654.000000
794671.000000
795753.000000
796793.000000
797818.000000
798865.000000
799858.000000
800952.000000
802030.000000
803119.000000
804243.000000
805273.000000
806358.000000
807408.000000
808445.000000
809520.000000
810539.000000
811606.000000
812685.000000
813717.000000
814791.000000
815821.000000
816864.000000
817927.000000
818927.000000
819989.000000
821018.000000
822053.000000
823126.000000
824123.000000
825181.000000
826249.000000
827271.000000
828338.000000
829339.000000
830377.000000
831405.000000
832380.000000
833420.000000
834453.000000
835504.000000
836613.000000
837648.000000
838743.000000
839820.000000
840848.000000
841919.000000
842977.000000
843987.000000
845092.000000
846158.000000
847233.000000
848347.000000
849403.000000
850513.000000
851626.000000
852685.000000
853812.000000
854873.000000
855954.000000
857044.000000
858047.000000
859124.000000
860159.000000
861187.000000
862266.000000
863299.000000
864367.000000
865462.000000
866484.000000
867554.000000
868625.000000
869643.000000
870765.000000
871871.000000
872932.000000
874069.000000
875153.000000
876244.000000
877367.000000
878417.000000
879487.000000
880578.000000
881626.000000
882742.000000
883813.000000
884881.000000
885981.000000
887017.000000
888105.000000
889213.000000
890261.000000
891369.000000
892470.000000
893517.000000
894630.000000
895680.000000
896766.000000
897863.000000
898870.000000
899941.000000
900972.000000
902008.000000
903111.000000
904151.000000
905206.000000
906298.000000
907321.000000
908409.000000
909485.000000
910519.000000
911590.000000
912608.000000
913660.000000
914717.000000
915714.000000
916755.000000
917745.000000
918767.000000
919837.000000
920850.000000
921894.000000
922905.000000
923844.000000
924830.000000
925929.000000
927036.000000
928083.000000
929201.000000
930244.000000
931318.000000
932371.000000
933383.000000
934440.000000
935468.000000
936533.000000
937625.000000
938638.000000
939742.000000
940770.000000
941816.000000
942873.000000
943862.000000
944894.000000
945940.000000
946944.000000
948008.000000
949020.000000
950074.000000
951133.000000
952146.000000
953190.000000
954180.000000
955194.000000
956251.000000
957243.000000
958307.000000
959356.000000
960357.000000
961411.000000
962435.000000
963447.000000
964484.000000
965458.000000
966448.000000
967412.000000
968295.000000
969211.000000
970456.000000
971519.000000
972604.000000
973715.000000
974730.000000
975819.000000
976886.000000
977860.000000
978868.000000
979861.000000
980890.000000
981994.000000
983002.000000
984051.000000
985116.000000
986113.000000
987166.000000
988262.000000
989193.000000
990241.000000
991314.000000
992310.000000
993481.000000
994461.000000
995456.000000
996646.000000
997676.000000
998798.000000
999871.000000
1000910.000000
1002076.000000
1003109.000000
1004128.000000
1005195.000000
1006181.000000
1007366.000000
1008369.000000
1009392.000000
1010417.000000
1011384.000000
1012637.000000
1013733.000000
1014843.000000
1015938.000000
1016849.000000
1017763.000000
1018609.000000
1019925.000000
1021082.000000
1022270.000000
1023461.000000
1024592.000000
1025753.000000
1026831.000000
1027894.000000
1029021.000000
1030053.000000
1031077.000000
1032221.000000
1033256.000000
1034400.000000
1035456.000000
1036491.000000
1037652.000000
1038728.000000
1039788.000000
1040851.000000
1041845.000000
1042904.000000
1043946.000000
1045053.000000
1046215.000000
1047325.000000
1048463.000000
1049479.000000
1050441.000000
1051525.000000
1052608.000000
1053710.000000
1054871.000000
1055871.000000
1056955.000000
1058046.000000
1059097.000000
1060290.000000
1061397.000000
1062573.000000
1063619.000000
1064651.000000
1065822.000000
1066926.000000
1068128.000000
1069348.000000
1070425.000000
1071602.000000
1072677.000000
1073758.000000
1074949.000000
1076016.000000
1077165.000000
1078331.000000
1079408.000000
1080646.000000
1081754.000000
1082875.000000
1084000.000000
1085008.000000
1086151.000000
1087276.000000
1088366.000000
1089528.000000
1090550.000000
1091656.000000
1092767.000000
1093860.000000
1095081.000000
1096203.000000
1097278.000000
1098443.000000
1099500.000000
1100608.000000
1101806.000000
1102907.000000
1104067.000000
1105170.000000
1106276.000000
1107495.000000
1108560.000000
1109682.000000
1110774.000000
1111779.000000
1112861.000000
1113961.000000
1115035.000000
1116131.000000
1117140.000000
1118197.000000
1119246.000000
1120204.000000
1121230.000000
1122249.000000
1123266.000000
1124379.000000
1125425.000000
1126397.000000
1127525.000000
1128559.000000
1129578.000000
1130646.000000
1131620.000000
1132617.000000
1133664.000000
1134635.000000
1135610.000000
1136805.000000
1137795.000000
1138856.000000
1139894.000000
1140908.000000
1141980.000000
1143007.000000
1144077.000000
1145178.000000
1146192.000000
1147281.000000
1148337.000000
1149307.000000
1150359.000000
1151424.000000
1152419.000000
1153486.000000
1154523.000000
1155573.000000
1156701.000000
1157771.000000
1158844.000000
1159933.000000
1160940.000000
1162009.000000
1163040.000000
1164050.000000
1165095.000000
1166070.000000
1167086.000000
1168091.000000
1169081.000000
1170132.000000
1171145.000000
1172175.000000
1173248.000000
1174243.000000
1175295.000000
1176340.000000
1177330.000000
1178388.000000
1179393.000000
1180459.000000
1181560.000000
1182598.000000
1183688.000000
1184715.000000
1185745.000000
1186843.000000
1187885.000000
1189006.000000
1190142.000000
1191234.000000
1192418.000000
1193533.000000
1194676.000000
1195825.000000
1196883.000000
1197999.000000
1199097.000000
1200154.000000
