ECG (ms)
770.000000
1665.000000
2557.000000
3421.000000
4300.000000
5155.000000
6052.000000
6924.000000
7764.000000
8637.000000
9502.000000
10336.000000
11192.000000
12048.000000
12878.000000
13734.000000
14585.000000
15420.000000
16291.000000
17139.000000
17984.000000
18857.000000
19695.000000
20554.000000
21423.000000
22255.000000
23118.000000
23976.000000
24807.000000
25683.000000
26534.000000
27358.000000
28203.000000
29044.000000
29844.000000
30597.000000
31349.000000
32112.000000
32880.000000
33672.000000
34501.000000
35361.000000
36186.000000
37001.000000
37843.000000
38708.000000
39578.000000
40408.000000
41249.000000
42113.000000
42936.000000
43753.000000
44587.000000
45418.000000
46225.000000
47066.000000
47918.000000
48730.000000
49557.000000
50381.000000
51160.000000
51899.000000
52632.000000
53379.000000
54155.000000
54952.000000
55743.000000
56565.000000
57447.000000
58327.000000
59202.000000
60100.000000
60966.000000
61852.000000
62721.000000
63617.000000
64494.000000
65353.000000
66247.000000
67146.000000
68003.000000
68878.000000
69732.000000
70554.000000
71417.000000
72309.000000
73164.000000
74042.000000
74930.000000
75764.000000
76595.000000
77449.000000
78313.000000
79126.000000
79960.000000
80830.000000
81658.000000
82542.000000
83433.000000
84279.000000
85152.000000
86032.000000
86873.000000
87744.000000
88630.000000
89468.000000
90328.000000
91188.000000
92007.000000
92847.000000
93706.000000
94538.000000
95399.000000
96277.000000
97104.000000
97932.000000
98782.000000
99601.000000
100434.000000
101274.000000
102093.000000
102931.000000
103767.000000
104571.000000
105387.000000
106227.000000
107049.000000
107863.000000
108713.000000
109556.000000
110370.000000
111201.000000
112041.000000
112849.000000
113664.000000
114498.000000
115303.000000
116121.000000
116948.000000
117751.000000
118569.000000
119353.000000
120123.000000
120910.000000
121714.000000
122518.000000
123364.000000
124228.000000
125106.000000
125957.000000
126768.000000
127574.000000
128362.000000
129118.000000
129879.000000
130660.000000
131458.000000
132211.000000
132939.000000
133673.000000
134426.000000
135206.000000
135972.000000
136764.000000
137563.000000
138331.000000
139102.000000
139887.000000
140651.000000
141414.000000
142197.000000
142969.000000
143733.000000
144530.000000
145352.000000
146202.000000
147064.000000
147936.000000
148773.000000
149598.000000
150400.000000
151199.000000
151985.000000
152774.000000
153517.000000
154244.000000
155007.000000
155810.000000
156602.000000
157400.000000
158225.000000
159036.000000
159849.000000
160669.000000
161464.000000
162249.000000
163057.000000
163839.000000
164623.000000
165430.000000
166238.000000
167023.000000
167824.000000
168658.000000
169484.000000
170315.000000
171167.000000
171993.000000
172833.000000
173716.000000
174570.000000
175445.000000
176360.000000
177229.000000
178094.000000
178958.000000
179790.000000
180595.000000
181416.000000
182261.000000
183098.000000
183966.000000
184823.000000
185642.000000
186476.000000
187326.000000
188133.000000
188929.000000
189740.000000
190543.000000
191345.000000
192189.000000
193115.000000
194038.000000
194966.000000
195861.000000
196732.000000
197584.000000
198399.000000
199220.000000
200035.000000
200833.000000
201623.000000
202436.000000
203293.000000
204143.000000
205003.000000
205879.000000
206733.000000
207520.000000
208261.000000
209011.000000
209773.000000
210549.000000
211319.000000
212121.000000
212965.000000
213774.000000
214598.000000
215428.000000
216219.000000
217000.000000
217792.000000
218564.000000
219346.000000
220143.000000
220920.000000
221714.000000
222532.000000
223329.000000
224131.000000
224951.000000
225739.000000
226521.000000
227326.000000
228138.000000
228933.000000
229747.000000
230569.000000
231369.000000
232156.000000
232960.000000
233774.000000
234564.000000
235368.000000
236198.000000
237068.000000
237898.000000
238729.000000
239550.000000
240350.000000
241143.000000
241951.000000
242768.000000
243636.000000
244509.000000
245350.000000
246201.000000
247077.000000
247918.000000
248749.000000
249602.000000
250425.000000
251230.000000
252052.000000
252874.000000
253658.000000
254458.000000
255290.000000
256098.000000
256911.000000
257759.000000
258570.000000
259391.000000
260240.000000
261047.000000
261871.000000
262697.000000
263490.000000
264306.000000
265142.000000
265962.000000
266782.000000
267644.000000
268495.000000
269321.000000
270169.000000
271018.000000
271828.000000
272657.000000
273503.000000
274306.000000
275145.000000
276000.000000
276815.000000
277633.000000
278461.000000
279272.000000
280066.000000
280872.000000
281674.000000
282454.000000
283257.000000
284097.000000
284919.000000
285740.000000
286560.000000
287368.000000
288147.000000
288931.000000
289718.000000
290488.000000
291269.000000
292082.000000
292879.000000
293632.000000
294384.000000
295155.000000
295945.000000
296726.000000
297520.000000
298332.000000
299110.000000
299891.000000
300687.000000
301486.000000
302267.000000
303076.000000
303903.000000
304704.000000
305520.000000
306376.000000
307203.000000
308043.000000
308915.000000
309775.000000
310628.000000
311502.000000
312348.000000
313182.000000
314009.000000
314809.000000
315626.000000
316455.000000
317265.000000
318097.000000
318969.000000
319823.000000
320707.000000
321576.000000
322413.000000
323258.000000
324071.000000
324860.000000
325665.000000
326483.000000
327287.000000
328106.000000
328945.000000
329755.000000
330573.000000
331405.000000
332212.000000
333008.000000
333815.000000
334659.000000
335483.000000
336317.000000
337186.000000
338071.000000
338950.000000
339810.000000
340674.000000
341550.000000
342402.000000
343262.000000
344115.000000
344938.000000
345791.000000
346674.000000
347524.000000
348383.000000
349256.000000
350097.000000
350929.000000
351773.000000
352583.000000
353406.000000
354275.000000
355125.000000
355964.000000
356792.000000
357594.000000
358380.000000
359183.000000
359997.000000
360799.000000
361635.000000
362496.000000
363316.000000
364173.000000
365033.000000
365840.000000
366650.000000
367450.000000
368223.000000
369012.000000
369811.000000
370595.000000
371389.000000
372195.000000
373012.000000
373800.000000
374588.000000
375382.000000
376161.000000
376929.000000
377714.000000
378502.000000
379273.000000
380059.000000
380856.000000
381629.000000
382414.000000
383205.000000
383974.000000
384753.000000
385552.000000
386333.000000
387109.000000
387886.000000
388650.000000
389419.000000
390197.000000
390966.000000
391740.000000
392521.000000
393279.000000
394033.000000
394793.000000
395548.000000
396301.000000
397064.000000
397827.000000
398575.000000
399339.000000
400122.000000
400888.000000
401645.000000
402416.000000
403186.000000
403940.000000
404700.000000
405468.000000
406221.000000
406975.000000
407745.000000
408529.000000
409302.000000
410069.000000
410844.000000
411620.000000
412375.000000
413143.000000
413925.000000
414706.000000
415494.000000
416305.000000
417111.000000
417925.000000
418747.000000
419532.000000
420297.000000
421053.000000
421805.000000
422547.000000
423304.000000
424095.000000
424899.000000
425693.000000
426522.000000
427347.000000
428184.000000
429027.000000
429852.000000
430692.000000
431526.000000
432360.000000
433233.000000
434117.000000
434970.000000
435833.000000
436683.000000
437490.000000
438307.000000
439146.000000
439965.000000
440784.000000
441633.000000
442457.000000
443296.000000
444149.000000
444962.000000
445773.000000
446594.000000
447381.000000
448183.000000
449004.000000
449809.000000
450620.000000
451456.000000
452271.000000
453107.000000
453939.000000
454738.000000
455525.000000
456325.000000
457146.000000
457985.000000
458817.000000
459661.000000
460543.000000
461401.000000
462257.000000
463128.000000
463969.000000
464773.000000
465598.000000
466432.000000
467247.000000
468106.000000
468984.000000
469843.000000
470708.000000
471534.000000
472349.000000
473174.000000
473985.000000
474745.000000
475490.000000
476248.000000
477047.000000
477853.000000
478663.000000
479498.000000
480311.000000
481140.000000
481977.000000
482780.000000
483600.000000
484428.000000
485222.000000
486027.000000
486853.000000
487650.000000
488467.000000
489317.000000
490151.000000
490990.000000
491850.000000
492676.000000
493473.000000
494282.000000
495097.000000
495892.000000
496713.000000
497568.000000
498397.000000
499229.000000
500089.000000
500929.000000
501738.000000
502549.000000
503364.000000
504161.000000
504978.000000
505812.000000
506637.000000
507459.000000
508310.000000
509153.000000
509977.000000
510827.000000
511685.000000
512507.000000
513334.000000
514184.000000
514993.000000
515820.000000
516670.000000
517495.000000
518360.000000
519230.000000
520077.000000
520918.000000
521719.000000
522512.000000
523310.000000
524107.000000
524935.000000
525764.000000
526637.000000
527552.000000
528403.000000
529288.000000
530186.000000
531036.000000
531895.000000
532729.000000
533523.000000
534324.000000
535133.000000
535931.000000
536746.000000
537597.000000
538416.000000
539272.000000
540163.000000
540996.000000
541836.000000
542678.000000
543479.000000
544280.000000
545104.000000
545946.000000
546765.000000
547599.000000
548436.000000
549277.000000
550116.000000
550928.000000
551689.000000
552422.000000
553164.000000
553926.000000
554698.000000
555535.000000
556419.000000
557270.000000
558126.000000
559001.000000
559826.000000
560651.000000
561484.000000
562295.000000
563102.000000
563921.000000
564746.000000
565590.000000
566457.000000
567297.000000
568175.000000
569045.000000
569864.000000
570695.000000
571531.000000
572362.000000
573206.000000
574071.000000
574907.000000
575773.000000
576656.000000
577503.000000
578343.000000
579191.000000
580018.000000
580846.000000
581721.000000
582582.000000
583412.000000
584276.000000
585153.000000
586004.000000
586858.000000
587711.000000
588550.000000
589418.000000
590298.000000
591162.000000
592024.000000
592846.000000
593676.000000
594516.000000
595334.000000
596191.000000
597064.000000
597912.000000
598783.000000
599661.000000
600501.000000
601369.000000
602249.000000
603104.000000
603965.000000
604817.000000
605637.000000
606462.000000
607288.000000
608080.000000
608886.000000
609705.000000
610513.000000
611355.000000
612227.000000
613106.000000
613956.000000
614812.000000
615643.000000
616469.000000
617277.000000
618066.000000
618866.000000
619664.000000
620479.000000
621316.000000
622122.000000
622943.000000
623767.000000
624572.000000
625393.000000
626207.000000
626989.000000
627768.000000
628530.000000
629275.000000
629991.000000
630709.000000
631443.000000
632212.000000
632976.000000
633762.000000
634555.000000
635331.000000
636120.000000
636913.000000
637672.000000
638440.000000
639215.000000
639983.000000
640770.000000
641564.000000
642339.000000
643125.000000
643914.000000
644685.000000
645454.000000
646232.000000
647001.000000
647775.000000
648599.000000
649463.000000
650325.000000
651196.000000
652051.000000
652898.000000
653705.000000
654506.000000
655283.000000
656043.000000
656821.000000
657615.000000
658406.000000
659228.000000
660054.000000
660863.000000
661682.000000
662523.000000
663342.000000
664147.000000
664964.000000
665777.000000
666570.000000
667389.000000
668233.000000
669066.000000
669894.000000
670751.000000
671626.000000
672467.000000
673305.000000
674141.000000
674955.000000
675774.000000
676605.000000
677415.000000
678240.000000
679090.000000
679913.000000
680762.000000
681605.000000
682414.000000
683246.000000
684098.000000
684912.000000
685724.000000
686534.000000
687321.000000
688114.000000
688937.000000
689769.000000
690579.000000
691421.000000
692280.000000
693109.000000
693940.000000
694771.000000
695569.000000
696373.000000
697185.000000
697986.000000
698787.000000
699604.000000
700407.000000
701185.000000
701978.000000
702762.000000
703528.000000
704312.000000
705119.000000
705927.000000
706746.000000
707591.000000
708414.000000
709252.000000
710086.000000
710876.000000
711673.000000
712469.000000
713244.000000
714029.000000
714820.000000
715605.000000
716384.000000
717183.000000
718007.000000
718810.000000
719637.000000
720496.000000
721382.000000
722220.000000
723069.000000
723916.000000
724730.000000
725535.000000
726361.000000
727170.000000
727978.000000
728800.000000
729608.000000
730416.000000
731237.000000
732062.000000
732863.000000
733668.000000
734462.000000
735253.000000
736056.000000
736855.000000
737648.000000
738453.000000
739251.000000
740027.000000
740810.000000
741593.000000
742359.000000
743137.000000
743929.000000
744721.000000
745501.000000
746303.000000
747103.000000
747884.000000
748676.000000
749469.000000
750250.000000
751035.000000
751829.000000
752609.000000
753373.000000
754141.000000
754909.000000
755671.000000
756438.000000
757210.000000
757979.000000
758735.000000
759504.000000
760274.000000
761029.000000
761784.000000
762546.000000
763309.000000
764064.000000
764832.000000
765612.000000
766379.000000
767144.000000
767923.000000
768713.000000
769482.000000
770256.000000
771036.000000
771796.000000
772557.000000
773319.000000
774075.000000
774835.000000
775610.000000
776402.000000
777184.000000
777978.000000
778785.000000
779574.000000
780365.000000
781155.000000
781931.000000
782716.000000
783513.000000
784295.000000
785075.000000
785885.000000
786702.000000
787501.000000
788301.000000
789086.000000
789848.000000
790603.000000
791356.000000
792104.000000
792865.000000
793655.000000
794437.000000
795231.000000
796069.000000
796900.000000
797702.000000
798496.000000
799280.000000
800041.000000
800797.000000
801556.000000
802333.000000
803100.000000
803867.000000
804650.000000
805450.000000
806229.000000
807021.000000
807839.000000
808671.000000
809509.000000
810342.000000
811144.000000
811941.000000
812730.000000
813512.000000
814313.000000
815129.000000
815924.000000
816725.000000
817543.000000
818340.000000
819148.000000
819990.000000
820822.000000
821611.000000
822392.000000
823166.000000
823931.000000
824695.000000
825485.000000
826306.000000
827115.000000
827956.000000
828828.000000
829676.000000
830502.000000
831331.000000
832156.000000
832959.000000
833784.000000
834624.000000
835434.000000
836245.000000
837085.000000
837940.000000
838756.000000
839581.000000
840420.000000
841230.000000
842041.000000
842855.000000
843672.000000
844469.000000
845283.000000
846113.000000
846918.000000
847728.000000
848548.000000
849364.000000
850155.000000
850955.000000
851765.000000
852556.000000
853355.000000
854167.000000
854984.000000
855777.000000
856579.000000
857380.000000
858173.000000
858961.000000
859766.000000
860602.000000
861408.000000
862220.000000
863027.000000
863813.000000
864611.000000
865425.000000
866228.000000
867052.000000
867883.000000
868680.000000
869482.000000
870280.000000
871055.000000
871855.000000
872664.000000
873463.000000
874272.000000
875086.000000
875865.000000
876633.000000
877402.000000
878154.000000
878875.000000
879590.000000
880326.000000
881081.000000
881853.000000
882626.000000
883410.000000
884210.000000
885001.000000
885793.000000
886598.000000
887388.000000
888153.000000
888924.000000
889710.000000
890492.000000
891264.000000
892055.000000
892856.000000
893646.000000
894455.000000
895294.000000
896141.000000
896956.000000
897784.000000
898620.000000
899424.000000
900228.000000
