ECG (ms)
383.000000
1105.000000
1843.000000
2595.000000
3327.000000
4076.000000
4811.000000
5511.000000
6199.000000
6866.000000
7574.000000
8360.000000
9158.000000
9916.000000
10703.000000
11483.000000
12260.000000
13028.000000
13825.000000
14611.000000
15376.000000
16150.000000
16958.000000
17748.000000
18555.000000
19365.000000
20132.000000
20902.000000
21679.000000
22439.000000
23234.000000
24083.000000
24915.000000
25809.000000
26705.000000
27555.000000
28411.000000
29223.000000
30021.000000
30874.000000
31717.000000
32513.000000
33324.000000
34133.000000
34927.000000
35772.000000
36592.000000
37402.000000
38250.000000
39109.000000
39924.000000
40793.000000
41636.000000
42440.000000
43282.000000
44102.000000
44890.000000
45721.000000
46543.000000
47330.000000
48144.000000
48954.000000
49734.000000
50536.000000
51326.000000
52072.000000
52829.000000
53575.000000
54308.000000
55056.000000
55815.000000
56565.000000
57359.000000
58164.000000
58951.000000
59772.000000
60588.000000
61362.000000
62160.000000
62933.000000
63681.000000
64448.000000
65244.000000
66014.000000
66810.000000
67626.000000
68436.000000
69233.000000
70054.000000
70864.000000
71653.000000
72452.000000
73249.000000
74023.000000
74811.000000
75618.000000
76395.000000
77187.000000
78018.000000
78830.000000
79616.000000
80445.000000
81270.000000
82042.000000
82827.000000
83627.000000
84392.000000
85165.000000
85965.000000
86760.000000
87566.000000
88411.000000
89216.000000
89994.000000
90770.000000
91571.000000
92338.000000
93132.000000
93967.000000
94768.000000
95580.000000
96416.000000
97233.000000
98039.000000
98861.000000
99677.000000
100450.000000
101231.000000
102009.000000
102764.000000
103548.000000
104347.000000
105140.000000
105953.000000
106797.000000
107593.000000
108405.000000
109232.000000
110014.000000
110799.000000
111604.000000
112388.000000
113146.000000
113941.000000
114756.000000
115533.000000
116354.000000
117203.000000
117992.000000
118812.000000
119659.000000
120461.000000
121281.000000
122118.000000
122905.000000
123717.000000
124543.000000
125321.000000
126111.000000
126909.000000
127689.000000
128512.000000
129353.000000
130150.000000
130987.000000
131795.000000
132571.000000
133355.000000
134132.000000
134897.000000
135692.000000
136518.000000
137322.000000
138112.000000
138918.000000
139703.000000
140475.000000
141268.000000
142046.000000
142828.000000
143647.000000
144473.000000
145277.000000
146111.000000
146945.000000
147743.000000
148566.000000
149391.000000
150178.000000
150992.000000
151830.000000
152651.000000
153461.000000
154295.000000
155095.000000
155873.000000
156686.000000
157518.000000
158292.000000
159075.000000
159859.000000
160617.000000
161420.000000
162247.000000
163061.000000
163918.000000
164790.000000
165613.000000
166468.000000
167294.000000
168083.000000
168903.000000
169724.000000
170506.000000
171320.000000
172148.000000
172939.000000
173750.000000
174564.000000
175350.000000
176151.000000
176987.000000
177802.000000
178604.000000
179422.000000
180227.000000
181015.000000
181831.000000
182623.000000
183387.000000
184180.000000
184982.000000
185760.000000
186541.000000
187314.000000
188076.000000
188861.000000
189645.000000
190412.000000
191177.000000
191925.000000
192671.000000
193393.000000
194144.000000
194873.000000
195554.000000
196223.000000
196902.000000
197594.000000
198323.000000
199103.000000
199856.000000
200651.000000
201441.000000
202197.000000
202961.000000
203745.000000
204499.000000
205266.000000
206060.000000
206860.000000
207631.000000
208446.000000
209273.000000
210051.000000
210866.000000
211695.000000
212484.000000
213293.000000
214126.000000
214918.000000
215719.000000
216508.000000
217264.000000
218039.000000
218842.000000
219632.000000
220404.000000
221200.000000
222051.000000
222840.000000
223655.000000
224476.000000
225239.000000
226017.000000
226811.000000
227582.000000
228352.000000
229130.000000
229883.000000
230641.000000
231410.000000
232160.000000
232905.000000
233660.000000
234436.000000
235187.000000
235951.000000
236728.000000
237457.000000
238191.000000
238924.000000
239635.000000
240355.000000
241096.000000
241849.000000
242597.000000
243350.000000
244093.000000
244819.000000
245567.000000
246329.000000
247055.000000
247800.000000
248541.000000
249266.000000
250008.000000
250763.000000
251542.000000
252297.000000
253056.000000
253809.000000
254544.000000
255294.000000
256057.000000
256807.000000
257574.000000
258334.000000
259075.000000
259795.000000
260512.000000
261249.000000
261969.000000
262703.000000
263441.000000
264165.000000
264900.000000
265649.000000
266378.000000
267122.000000
267882.000000
268656.000000
269417.000000
270227.000000
271053.000000
271830.000000
272628.000000
273428.000000
274190.000000
274973.000000
275763.000000
276543.000000
277351.000000
278178.000000
278979.000000
279807.000000
280638.000000
281439.000000
282252.000000
283069.000000
283855.000000
284638.000000
285445.000000
286262.000000
287044.000000
287852.000000
288673.000000
289452.000000
290259.000000
291071.000000
291860.000000
292681.000000
293509.000000
294312.000000
295122.000000
295913.000000
296664.000000
297428.000000
298201.000000
298951.000000
299718.000000
300495.000000
301257.000000
302055.000000
302865.000000
303666.000000
304459.000000
305276.000000
306070.000000
306828.000000
307598.000000
308376.000000
309122.000000
309864.000000
310623.000000
311409.000000
312172.000000
312960.000000
313736.000000
314487.000000
315270.000000
316066.000000
316846.000000
317657.000000
318484.000000
319273.000000
320076.000000
320894.000000
321687.000000
322475.000000
323283.000000
324112.000000
324893.000000
325689.000000
326496.000000
327283.000000
328095.000000
328897.000000
329672.000000
330452.000000
331251.000000
332032.000000
332797.000000
333580.000000
334390.000000
335189.000000
335981.000000
336784.000000
337560.000000
338314.000000
339084.000000
339870.000000
340626.000000
341406.000000
342203.000000
342972.000000
343760.000000
344542.000000
345321.000000
346112.000000
346919.000000
347722.000000
348505.000000
349302.000000
350124.000000
350915.000000
351713.000000
352523.000000
353304.000000
354109.000000
354914.000000
355700.000000
356515.000000
357338.000000
358152.000000
358980.000000
359822.000000
360633.000000
361450.000000
362281.000000
363072.000000
363877.000000
364685.000000
365472.000000
366255.000000
367069.000000
367882.000000
368654.000000
369451.000000
370244.000000
371025.000000
371839.000000
372661.000000
373452.000000
374229.000000
374999.000000
375748.000000
376505.000000
377272.000000
378041.000000
378781.000000
379521.000000
380262.000000
380981.000000
381687.000000
382397.000000
383092.000000
383780.000000
384476.000000
385191.000000
385901.000000
386603.000000
387302.000000
387990.000000
388679.000000
389365.000000
390064.000000
390758.000000
391460.000000
392179.000000
392860.000000
393536.000000
394215.000000
394933.000000
395673.000000
396440.000000
397221.000000
397982.000000
398769.000000
399556.000000
400315.000000
401081.000000
401853.000000
402616.000000
403350.000000
404096.000000
404848.000000
405586.000000
406352.000000
407149.000000
407901.000000
408666.000000
409418.000000
410164.000000
410917.000000
411682.000000
412429.000000
413168.000000
413899.000000
414622.000000
415335.000000
416073.000000
416793.000000
417516.000000
418263.000000
419008.000000
419748.000000
420488.000000
421181.000000
421849.000000
422513.000000
423170.000000
423877.000000
424710.000000
425481.000000
426299.000000
427155.000000
427978.000000
428789.000000
429617.000000
430449.000000
431249.000000
432035.000000
432822.000000
433567.000000
434308.000000
435068.000000
435845.000000
436605.000000
437414.000000
438257.000000
439093.000000
439869.000000
440601.000000
441326.000000
442117.000000
442950.000000
443794.000000
444589.000000
445413.000000
446254.000000
447051.000000
447871.000000
448693.000000
449476.000000
450277.000000
451091.000000
451908.000000
452690.000000
453541.000000
454415.000000
455278.000000
456102.000000
456970.000000
457820.000000
458626.000000
459448.000000
460279.000000
461081.000000
461909.000000
462743.000000
463550.000000
464390.000000
465241.000000
466043.000000
466885.000000
467724.000000
468521.000000
469335.000000
470147.000000
470923.000000
471728.000000
472566.000000
473411.000000
474248.000000
475103.000000
475954.000000
476762.000000
477589.000000
478410.000000
479191.000000
479995.000000
480800.000000
481582.000000
482371.000000
483169.000000
483928.000000
484694.000000
485502.000000
486336.000000
487124.000000
487965.000000
488800.000000
489595.000000
490403.000000
491190.000000
491947.000000
492714.000000
493481.000000
494247.000000
495033.000000
495867.000000
496712.000000
497542.000000
498412.000000
499284.000000
500105.000000
500947.000000
501794.000000
502590.000000
503398.000000
504209.000000
504999.000000
505782.000000
506604.000000
507467.000000
508304.000000
509171.000000
510013.000000
510812.000000
511640.000000
512479.000000
513286.000000
514108.000000
514911.000000
515692.000000
516496.000000
517299.000000
518085.000000
518865.000000
519662.000000
520444.000000
521200.000000
521943.000000
522672.000000
523383.000000
524085.000000
524812.000000
525545.000000
526272.000000
527012.000000
527741.000000
528433.000000
529097.000000
529768.000000
530447.000000
531195.000000
531987.000000
532761.000000
533526.000000
534319.000000
535117.000000
535878.000000
536681.000000
537501.000000
538261.000000
539016.000000
539792.000000
540586.000000
541368.000000
542210.000000
543107.000000
543930.000000
544789.000000
545655.000000
546460.000000
547302.000000
548152.000000
548947.000000
549758.000000
550579.000000
551376.000000
552184.000000
553008.000000
553821.000000
554612.000000
555459.000000
556306.000000
557099.000000
557947.000000
558795.000000
559578.000000
560367.000000
561141.000000
561894.000000
562630.000000
563391.000000
564160.000000
564932.000000
565689.000000
566465.000000
567242.000000
568067.000000
568883.000000
569677.000000
570483.000000
571278.000000
572038.000000
572801.000000
573553.000000
574273.000000
574986.000000
575698.000000
576413.000000
577148.000000
577910.000000
578676.000000
579421.000000
580188.000000
580975.000000
581739.000000
582536.000000
583343.000000
584120.000000
584892.000000
585685.000000
586464.000000
587211.000000
587978.000000
588771.000000
589552.000000
590340.000000
591165.000000
592033.000000
592853.000000
593712.000000
594537.000000
595307.000000
596076.000000
596826.000000
597590.000000
598341.000000
599118.000000
599912.000000
600686.000000
601479.000000
602298.000000
603116.000000
603904.000000
604701.000000
605500.000000
606261.000000
607045.000000
607840.000000
608614.000000
609393.000000
610199.000000
611027.000000
611818.000000
612646.000000
613482.000000
614280.000000
615071.000000
615868.000000
616657.000000
617411.000000
618187.000000
618969.000000
619734.000000
620489.000000
621261.000000
622074.000000
622842.000000
623641.000000
624429.000000
625190.000000
625960.000000
626737.000000
627509.000000
628276.000000
629066.000000
629884.000000
630655.000000
631456.000000
632249.000000
633015.000000
633788.000000
634580.000000
635381.000000
636149.000000
636951.000000
637762.000000
638530.000000
639321.000000
640113.000000
640881.000000
641663.000000
642461.000000
643227.000000
643997.000000
644776.000000
645536.000000
646284.000000
647062.000000
647858.000000
648631.000000
649430.000000
650226.000000
651014.000000
651769.000000
652545.000000
653335.000000
654099.000000
654854.000000
655629.000000
656423.000000
657206.000000
658001.000000
658811.000000
659595.000000
660399.000000
661220.000000
662023.000000
662835.000000
663642.000000
664446.000000
665219.000000
666037.000000
666873.000000
667683.000000
668516.000000
669359.000000
670179.000000
670986.000000
671814.000000
672639.000000
673439.000000
674285.000000
675120.000000
675899.000000
676692.000000
677503.000000
678297.000000
679111.000000
679960.000000
680772.000000
681591.000000
682455.000000
683307.000000
684120.000000
684961.000000
685819.000000
686624.000000
687433.000000
688260.000000
689061.000000
689818.000000
690596.000000
691385.000000
692151.000000
692944.000000
693779.000000
694637.000000
695461.000000
696329.000000
697184.000000
697991.000000
698820.000000
699654.000000
700458.000000
701269.000000
702107.000000
702953.000000
703757.000000
704602.000000
705448.000000
706255.000000
707083.000000
707933.000000
708743.000000
709587.000000
710423.000000
711209.000000
711983.000000
712782.000000
713588.000000
714377.000000
715177.000000
716012.000000
716840.000000
717637.000000
718466.000000
719298.000000
720084.000000
720903.000000
721728.000000
722519.000000
723313.000000
724109.000000
724885.000000
725651.000000
726428.000000
727236.000000
728022.000000
728803.000000
729617.000000
730441.000000
731231.000000
732034.000000
732829.000000
733601.000000
734354.000000
735123.000000
735913.000000
736664.000000
737430.000000
738224.000000
738998.000000
739763.000000
740566.000000
741418.000000
742241.000000
743092.000000
743950.000000
744761.000000
745544.000000
746337.000000
747118.000000
747863.000000
748629.000000
749391.000000
750112.000000
750867.000000
751654.000000
752423.000000
753186.000000
753939.000000
754637.000000
755333.000000
756062.000000
756806.000000
757593.000000
758419.000000
759179.000000
759965.000000
760765.000000
761569.000000
762331.000000
763137.000000
763981.000000
764781.000000
765615.000000
766468.000000
767308.000000
768113.000000
768966.000000
769832.000000
770655.000000
771497.000000
772356.000000
773226.000000
774043.000000
774914.000000
775796.000000
776623.000000
777453.000000
778281.000000
779095.000000
779876.000000
780691.000000
781529.000000
782339.000000
783173.000000
784083.000000
785030.000000
785870.000000
786769.000000
787682.000000
788526.000000
789400.000000
790309.000000
791149.000000
791963.000000
792793.000000
793646.000000
794452.000000
795270.000000
796109.000000
796911.000000
797706.000000
798528.000000
799394.000000
800190.000000
801016.000000
801946.000000
802818.000000
803710.000000
804633.000000
805498.000000
806339.000000
807230.000000
808080.000000
808898.000000
809730.000000
810575.000000
811384.000000
812204.000000
813041.000000
813816.000000
814602.000000
815418.000000
816251.000000
817068.000000
817924.000000
818773.000000
819591.000000
820431.000000
821274.000000
822076.000000
822868.000000
823665.000000
824461.000000
825233.000000
826019.000000
826816.000000
827572.000000
828290.000000
828985.000000
829719.000000
830551.000000
831492.000000
832368.000000
833168.000000
833981.000000
834858.000000
835750.000000
836566.000000
837339.000000
838106.000000
838840.000000
839560.000000
840294.000000
841034.000000
841769.000000
842520.000000
843286.000000
844043.000000
844810.000000
845596.000000
846368.000000
847132.000000
847912.000000
848693.000000
849449.000000
850224.000000
851011.000000
851775.000000
852565.000000
853394.000000
854234.000000
855052.000000
855890.000000
856710.000000
857497.000000
858305.000000
859125.000000
859911.000000
860722.000000
861561.000000
862377.000000
863193.000000
864006.000000
864781.000000
865576.000000
866379.000000
867167.000000
867937.000000
868699.000000
869435.000000
870160.000000
870880.000000
871601.000000
872311.000000
873021.000000
873726.000000
874393.000000
875045.000000
875706.000000
876378.000000
877110.000000
877933.000000
878693.000000
879472.000000
880231.000000
880985.000000
881712.000000
882424.000000
883164.000000
883947.000000
884689.000000
885448.000000
886269.000000
887123.000000
887923.000000
888736.000000
889589.000000
890457.000000
891270.000000
892108.000000
892962.000000
893777.000000
894581.000000
895419.000000
896264.000000
897069.000000
897919.000000
898759.000000
899553.000000
900341.000000
901162.000000
902024.000000
902828.000000
903677.000000
904533.000000
905340.000000
906155.000000
906979.000000
907809.000000
908630.000000
909495.000000
910365.000000
911184.000000
912025.000000
912823.000000
913567.000000
914302.000000
915064.000000
915887.000000
916715.000000
917576.000000
918461.000000
919330.000000
920143.000000
920935.000000
921718.000000
922486.000000
923216.000000
923942.000000
924713.000000
925537.000000
926306.000000
927102.000000
927931.000000
928760.000000
929566.000000
930381.000000
931214.000000
932000.000000
932802.000000
933634.000000
934411.000000
935168.000000
935927.000000
936684.000000
937449.000000
938209.000000
938973.000000
939742.000000
940496.000000
941261.000000
942090.000000
942903.000000
943749.000000
944628.000000
945505.000000
946336.000000
947186.000000
948029.000000
948804.000000
949578.000000
950384.000000
951185.000000
951968.000000
952792.000000
953636.000000
954492.000000
955373.000000
956274.000000
957172.000000
958015.000000
958900.000000
959795.000000
960643.000000
961523.000000
962411.000000
963251.000000
964104.000000
964957.000000
965732.000000
966490.000000
967254.000000
968047.000000
968909.000000
969728.000000
970650.000000
971521.000000
972364.000000
973201.000000
973948.000000
974715.000000
975515.000000
976375.000000
977292.000000
978151.000000
979035.000000
979955.000000
980796.000000
981670.000000
982578.000000
983454.000000
984311.000000
985209.000000
986072.000000
986836.000000
987559.000000
988257.000000
988988.000000
989979.000000
990914.000000
991771.000000
992674.000000
993639.000000
994575.000000
995489.000000
996463.000000
997357.000000
998204.000000
999068.000000
999927.000000
1000750.000000
1001603.000000
1002508.000000
1003390.000000
1004265.000000
1005127.000000
1005950.000000
1006800.000000
1007656.000000
1008477.000000
1009330.000000
1010177.000000
1010994.000000
1011834.000000
1012688.000000
1013521.000000
1014376.000000
1015215.000000
1016015.000000
1016830.000000
1017647.000000
1018463.000000
1019324.000000
1020193.000000
1021031.000000
1021921.000000
1022814.000000
1023644.000000
1024519.000000
1025366.000000
1026177.000000
1027003.000000
1027823.000000
1028615.000000
1029454.000000
1030283.000000
1031088.000000
1031930.000000
1032795.000000
1033607.000000
1034449.000000
1035247.000000
1036021.000000
1036825.000000
1037644.000000
1038428.000000
1039270.000000
1040105.000000
1040923.000000
1041753.000000
1042571.000000
1043316.000000
1044074.000000
1044829.000000
1045582.000000
1046330.000000
1047079.000000
1047809.000000
1048550.000000
1049299.000000
1050039.000000
1050801.000000
1051562.000000
1052328.000000
1053090.000000
1053846.000000
1054567.000000
1055290.000000
1056005.000000
1056727.000000
1057477.000000
1058264.000000
1059044.000000
1059807.000000
1060598.000000
1061385.000000
1062144.000000
1062911.000000
1063712.000000
1064491.000000
1065284.000000
1066100.000000
1066905.000000
1067710.000000
1068518.000000
1069300.000000
1070054.000000
1070814.000000
1071573.000000
1072317.000000
1073082.000000
1073846.000000
1074590.000000
1075323.000000
1076078.000000
1076852.000000
1077616.000000
1078409.000000
1079219.000000
1080001.000000
1080820.000000
1081640.000000
1082436.000000
1083266.000000
1084102.000000
1084910.000000
1085737.000000
1086591.000000
1087387.000000
1088178.000000
1088965.000000
1089731.000000
1090535.000000
1091367.000000
1092192.000000
1093075.000000
1093964.000000
1094807.000000
1095676.000000
1096554.000000
1097365.000000
1098200.000000
1099029.000000
1099813.000000
1100643.000000
1101507.000000
1102336.000000
1103184.000000
1104062.000000
1104876.000000
1105706.000000
1106541.000000
1107344.000000
1108163.000000
1108995.000000
1109804.000000
1110667.000000
1111527.000000
1112350.000000
1113214.000000
1114082.000000
1114909.000000
1115773.000000
1116626.000000
1117415.000000
1118240.000000
1119076.000000
1119872.000000
1120723.000000
1121621.000000
1122453.000000
1123322.000000
1124198.000000
1125057.000000
1125940.000000
1126800.000000
1127622.000000
1128468.000000
1129327.000000
1130145.000000
1131011.000000
1131870.000000
1132684.000000
1133540.000000
1134383.000000
1135182.000000
1136023.000000
1136861.000000
1137687.000000
1138539.000000
1139390.000000
1140210.000000
1141059.000000
1141894.000000
1142679.000000
1143496.000000
1144315.000000
1145106.000000
1145929.000000
1146755.000000
1147560.000000
1148387.000000
1149233.000000
1150031.000000
1150848.000000
1151687.000000
1152492.000000
1153313.000000
1154183.000000
1155002.000000
1155800.000000
1156635.000000
1157472.000000
1158268.000000
1159104.000000
1159969.000000
1160785.000000
1161620.000000
1162461.000000
1163276.000000
1164109.000000
1164958.000000
1165781.000000
1166620.000000
1167459.000000
1168271.000000
1169090.000000
1169908.000000
1170694.000000
1171493.000000
1172314.000000
1173092.000000
1173878.000000
1174695.000000
1175484.000000
1176296.000000
1177115.000000
1177907.000000
1178672.000000
1179463.000000
1180268.000000
1181041.000000
1181825.000000
1182613.000000
1183379.000000
1184148.000000
1184945.000000
1185727.000000
1186520.000000
1187341.000000
1188158.000000
1188937.000000
1189748.000000
1190521.000000
1191248.000000
1191975.000000
1192673.000000
1193347.000000
1194024.000000
1194744.000000
1195543.000000
1196344.000000
1197130.000000
1197986.000000
1198856.000000
1199661.000000
1200450.000000
1201219.000000
1201962.000000
1202711.000000
1203489.000000
1204257.000000
1205032.000000
1205850.000000
1206661.000000
1207443.000000
1208173.000000
1208909.000000
1209739.000000
1210591.000000
1211447.000000
1212255.000000
1213068.000000
1213882.000000
1214694.000000
1215482.000000
1216287.000000
1217100.000000
1217885.000000
1218682.000000
1219490.000000
1220297.000000
1221103.000000
1221957.000000
1222822.000000
1223637.000000
1224477.000000
1225324.000000
1226138.000000
1226973.000000
1227806.000000
1228621.000000
1229437.000000
1230280.000000
1231100.000000
1231916.000000
1232750.000000
1233577.000000
1234388.000000
1235215.000000
1236025.000000
1236815.000000
1237633.000000
1238400.000000
1239153.000000
1239939.000000
1240774.000000
1241583.000000
1242395.000000
1243229.000000
1244042.000000
1244856.000000
1245689.000000
1246479.000000
1247284.000000
1248102.000000
1248920.000000
1249694.000000
1250449.000000
1251183.000000
1251924.000000
1252657.000000
1253420.000000
1254218.000000
1254996.000000
1255739.000000
1256492.000000
1257217.000000
1257946.000000
1258706.000000
1259496.000000
1260273.000000
1261089.000000
1261901.000000
1262675.000000
1263443.000000
1264220.000000
1264979.000000
1265703.000000
1266418.000000
1267127.000000
1267805.000000
1268508.000000
1269263.000000
1270047.000000
1270844.000000
1271658.000000
1272423.000000
1273204.000000
1274004.000000
1274811.000000
1275614.000000
1276413.000000
1277204.000000
1277974.000000
1278790.000000
1279651.000000
1280449.000000
1281230.000000
1282066.000000
1282862.000000
1283672.000000
1284524.000000
1285312.000000
1286079.000000
1286872.000000
1287680.000000
1288479.000000
1289316.000000
1290197.000000
1291020.000000
1291843.000000
1292686.000000
1293495.000000
1294308.000000
1295144.000000
1295987.000000
1296803.000000
1297663.000000
1298514.000000
1299332.000000
1300182.000000
1301026.000000
1301821.000000
1302653.000000
1303482.000000
1304293.000000
1305157.000000
1306044.000000
1306869.000000
1307742.000000
1308613.000000
1309438.000000
1310286.000000
1311145.000000
1311962.000000
1312797.000000
1313674.000000
1314490.000000
1315346.000000
1316188.000000
1316981.000000
1317804.000000
1318626.000000
1319433.000000
1320290.000000
1321161.000000
1321966.000000
1322755.000000
1323567.000000
1324363.000000
1325185.000000
1326058.000000
1326919.000000
1327761.000000
1328658.000000
1329523.000000
1330339.000000
1331177.000000
1332009.000000
1332803.000000
1333636.000000
1334477.000000
1335290.000000
1336157.000000
1337044.000000
1337889.000000
1338728.000000
1339597.000000
1340414.000000
1341217.000000
1342060.000000
1342915.000000
1343740.000000
1344608.000000
1345471.000000
1346282.000000
1347136.000000
1347972.000000
1348768.000000
1349608.000000
1350457.000000
1351262.000000
1352030.000000
1352831.000000
1353646.000000
1354454.000000
1355328.000000
1356209.000000
1357035.000000
1357932.000000
1358834.000000
1359664.000000
1360514.000000
1361377.000000
1362173.000000
1362983.000000
1363809.000000
1364605.000000
1365399.000000
1366220.000000
1367024.000000
1367822.000000
1368670.000000
1369527.000000
1370332.000000
1371182.000000
1372032.000000
1372849.000000
1373625.000000
1374387.000000
1375165.000000
1375940.000000
1376754.000000
1377594.000000
1378401.000000
1379217.000000
1380050.000000
1380856.000000
1381641.000000
1382430.000000
1383212.000000
1383983.000000
1384772.000000
1385571.000000
1386349.000000
1387125.000000
1387919.000000
1388688.000000
1389438.000000
1390181.000000
1390945.000000
1391712.000000
1392518.000000
1393349.000000
1394140.000000
1394954.000000
1395801.000000
1396639.000000
1397495.000000
1398369.000000
1399189.000000
1400025.000000
1400861.000000
1401678.000000
1402470.000000
1403304.000000
1404176.000000
1404981.000000
1405786.000000
1406585.000000
1407361.000000
1408128.000000
1408925.000000
1409747.000000
1410540.000000
1411367.000000
1412191.000000
1412969.000000
1413775.000000
1414604.000000
1415394.000000
1416163.000000
1416936.000000
1417698.000000
1418438.000000
1419185.000000
1419944.000000
1420684.000000
1421454.000000
1422240.000000
1423018.000000
1423789.000000
1424548.000000
1425315.000000
1426075.000000
1426871.000000
1427669.000000
1428458.000000
1429237.000000
1430044.000000
1430857.000000
1431622.000000
1432395.000000
1433169.000000
1433938.000000
1434704.000000
1435514.000000
1436354.000000
1437161.000000
1438038.000000
1438936.000000
1439778.000000
1440648.000000
1441522.000000
1442323.000000
1443130.000000
1443965.000000
1444760.000000
1445568.000000
1446386.000000
1447186.000000
1448010.000000
1448851.000000
1449652.000000
1450458.000000
1451282.000000
1452095.000000
1452896.000000
1453727.000000
1454560.000000
1455348.000000
1456186.000000
1457036.000000
1457854.000000
1458693.000000
1459546.000000
1460356.000000
1461205.000000
1462084.000000
1462924.000000
1463816.000000
1464730.000000
1465580.000000
1466426.000000
1467271.000000
1468105.000000
1468929.000000
1469812.000000
1470689.000000
1471526.000000
1472424.000000
1473290.000000
1474111.000000
1474959.000000
1475825.000000
1476675.000000
1477554.000000
1478472.000000
1479336.000000
1480212.000000
1481112.000000
1481965.000000
1482791.000000
1483674.000000
1484559.000000
1485398.000000
1486271.000000
1487115.000000
1487888.000000
1488642.000000
1489416.000000
1490258.000000
1491095.000000
1492004.000000
1492953.000000
1493826.000000
1494739.000000
1495634.000000
1496462.000000
1497316.000000
1498153.000000
1498945.000000
1499772.000000
1500592.000000
1501360.000000
1502136.000000
1502923.000000
1503753.000000
1504536.000000
1505358.000000
1506152.000000
1506897.000000
1507627.000000
1508369.000000
1509113.000000
1509844.000000
1510577.000000
1511317.000000
1512035.000000
1512763.000000
1513455.000000
1514114.000000
1514790.000000
1515489.000000
1516203.000000
1516928.000000
1517708.000000
1518442.000000
1519167.000000
1519897.000000
1520637.000000
1521374.000000
1522163.000000
1522966.000000
1523734.000000
1524508.000000
1525289.000000
1526065.000000
1526816.000000
1527537.000000
1528228.000000
1528940.000000
1529800.000000
1530803.000000
1531773.000000
1532741.000000
1533692.000000
1534549.000000
1535421.000000
1536287.000000
1537175.000000
1538109.000000
1539020.000000
1539880.000000
1540746.000000
1541575.000000
1542362.000000
1543182.000000
1544033.000000
1544864.000000
1545755.000000
1546651.000000
1547517.000000
1548403.000000
1549299.000000
1550160.000000
1551029.000000
1551873.000000
1552677.000000
1553515.000000
1554386.000000
1555216.000000
1556075.000000
1556961.000000
1557890.000000
1558739.000000
1559619.000000
1560514.000000
1561357.000000
1562196.000000
1563026.000000
1563835.000000
1564658.000000
1565522.000000
1566409.000000
1567234.000000
1568117.000000
1569002.000000
1569827.000000
1570694.000000
1571549.000000
1572354.000000
1573182.000000
1574038.000000
1574870.000000
1575722.000000
1576578.000000
1577425.000000
1578222.000000
1579057.000000
1579921.000000
1580711.000000
1581508.000000
1582319.000000
1583126.000000
1583898.000000
1584717.000000
1585574.000000
1586361.000000
1587140.000000
1587918.000000
1588680.000000
1589437.000000
1590212.000000
1591001.000000
1591779.000000
1592583.000000
1593381.000000
1594145.000000
1594952.000000
1595741.000000
1596503.000000
1597302.000000
1598112.000000
1598903.000000
1599696.000000
1600510.000000
1601309.000000
1602148.000000
1603009.000000
1603824.000000
1604610.000000
1605408.000000
1606187.000000
1606952.000000
1607731.000000
1608540.000000
1609324.000000
1610131.000000
1610951.000000
1611743.000000
1612580.000000
1613417.000000
1614223.000000
1615040.000000
1615847.000000
1616643.000000
1617415.000000
1618221.000000
1619069.000000
1619878.000000
1620746.000000
1621647.000000
1622506.000000
1623373.000000
1624228.000000
1625042.000000
1625854.000000
1626673.000000
1627490.000000
1628301.000000
1629181.000000
1630096.000000
1630949.000000
1631854.000000
1632765.000000
1633632.000000
1634513.000000
1635393.000000
1636228.000000
1637081.000000
1637938.000000
1638774.000000
1639645.000000
1640554.000000
1641418.000000
1642300.000000
1643196.000000
1644031.000000
1644855.000000
1645683.000000
1646562.000000
1647398.000000
1648303.000000
1649249.000000
1650091.000000
1650953.000000
1651816.000000
1652668.000000
1653570.000000
1654472.000000
1655309.000000
1656184.000000
1657085.000000
1657920.000000
1658781.000000
1659653.000000
1660474.000000
1661339.000000
1662263.000000
1663127.000000
1664045.000000
1665008.000000
1665872.000000
1666772.000000
1667663.000000
1668494.000000
1669378.000000
1670318.000000
1671177.000000
1672097.000000
1673021.000000
1673886.000000
1674769.000000
1675710.000000
1676578.000000
1677485.000000
1678435.000000
1679310.000000
1680223.000000
1681161.000000
1682055.000000
1682982.000000
1683917.000000
1684791.000000
1685691.000000
1686597.000000
1687448.000000
1688321.000000
1689187.000000
1690007.000000
1690892.000000
1691753.000000
1692589.000000
1693466.000000
1694362.000000
1695208.000000
1696101.000000
1697018.000000
1697882.000000
1698730.000000
1699599.000000
1700440.000000
1701250.000000
1702094.000000
1702931.000000
1703749.000000
1704596.000000
1705454.000000
1706268.000000
1707125.000000
1707992.000000
1708811.000000
1709668.000000
1710521.000000
1711315.000000
1712118.000000
1712929.000000
1713728.000000
1714561.000000
1715439.000000
1716271.000000
1717100.000000
1717945.000000
1718780.000000
1719602.000000
1720464.000000
1721341.000000
1722163.000000
1723029.000000
1723889.000000
1724708.000000
1725556.000000
1726440.000000
1727316.000000
1728139.000000
1729013.000000
1729905.000000
1730766.000000
1731674.000000
1732596.000000
1733475.000000
1734369.000000
1735299.000000
1736156.000000
1737007.000000
1737857.000000
1738642.000000
1739412.000000
1740229.000000
1741058.000000
1741896.000000
1742738.000000
1743606.000000
1744422.000000
1745235.000000
1746081.000000
1746841.000000
1747569.000000
1748309.000000
1749006.000000
1749698.000000
1750446.000000
1751225.000000
1751977.000000
1752842.000000
1753648.000000
1754393.000000
1755143.000000
1755881.000000
1756626.000000
1757411.000000
1758171.000000
1758930.000000
1759694.000000
1760501.000000
1761305.000000
1762109.000000
1762912.000000
1763711.000000
1764482.000000
1765205.000000
1765901.000000
1766594.000000
1767355.000000
1768232.000000
1769139.000000
1769994.000000
1770855.000000
1771746.000000
1772640.000000
1773492.000000
1774433.000000
1775369.000000
1776234.000000
1777157.000000
1778096.000000
1778987.000000
1779914.000000
1780829.000000
1781689.000000
1782573.000000
1783429.000000
1784243.000000
1785107.000000
1786027.000000
1786891.000000
1787754.000000
1788648.000000
1789522.000000
1790347.000000
1791219.000000
1792110.000000
1792931.000000
1793795.000000
1794663.000000
1795484.000000
1796335.000000
1797204.000000
1798046.000000
