ECG (ms)
230.000000
1114.000000
2040.000000
2953.000000
3780.000000
4584.000000
5390.000000
6168.000000
7021.000000
7910.000000
8895.000000
9912.000000
10884.000000
11776.000000
12587.000000
13330.000000
14135.000000
14958.000000
16038.000000
17078.000000
18048.000000
18943.000000
19832.000000
20679.000000
21455.000000
22294.000000
23224.000000
24043.000000
24800.000000
25544.000000
26510.000000
27536.000000
28520.000000
29440.000000
30259.000000
30992.000000
31755.000000
32524.000000
33327.000000
34078.000000
34881.000000
35935.000000
36921.000000
37927.000000
38823.000000
39680.000000
40535.000000
41454.000000
42364.000000
43224.000000
44041.000000
44849.000000
45600.000000
46391.000000
47176.000000
48077.000000
49059.000000
49998.000000
50913.000000
51799.000000
52715.000000
53609.000000
54485.000000
55264.000000
56021.000000
56728.000000
57426.000000
58109.000000
58777.000000
59429.000000
60107.000000
60788.000000
61486.000000
62242.000000
63041.000000
63970.000000
64882.000000
65811.000000
66689.000000
67495.000000
68236.000000
68981.000000
69740.000000
70598.000000
71487.000000
72243.000000
73012.000000
73797.000000
74736.000000
75649.000000
76609.000000
77525.000000
78356.000000
79121.000000
79894.000000
80657.000000
81512.000000
82458.000000
83415.000000
84399.000000
85362.000000
86321.000000
87177.000000
88030.000000
88796.000000
89676.000000
90665.000000
91647.000000
92618.000000
93537.000000
94401.000000
95241.000000
96084.000000
96921.000000
97786.000000
98594.000000
99346.000000
100058.000000
100770.000000
101448.000000
102132.000000
102838.000000
103622.000000
104437.000000
105252.000000
106191.000000
107090.000000
108006.000000
108819.000000
109640.000000
110472.000000
111298.000000
112068.000000
112866.000000
113652.000000
114594.000000
115515.000000
116463.000000
117378.000000
118247.000000
119089.000000
119944.000000
120764.000000
121589.000000
122402.000000
123208.000000
123949.000000
124771.000000
125551.000000
126317.000000
127092.000000
127877.000000
128694.000000
129569.000000
130460.000000
131313.000000
132125.000000
132905.000000
133692.000000
134486.000000
135253.000000
136011.000000
136819.000000
137704.000000
138617.000000
139507.000000
140335.000000
141092.000000
141814.000000
142578.000000
143527.000000
144479.000000
145467.000000
146342.000000
147202.000000
148114.000000
149102.000000
150014.000000
150985.000000
151869.000000
152633.000000
153345.000000
154025.000000
154719.000000
155418.000000
156274.000000
157329.000000
158310.000000
159274.000000
160185.000000
161079.000000
161970.000000
162868.000000
163827.000000
164833.000000
165781.000000
166640.000000
167475.000000
168268.000000
169155.000000
170070.000000
170983.000000
171952.000000
172909.000000
173793.000000
174578.000000
175352.000000
176109.000000
176905.000000
177828.000000
178648.000000
179459.000000
180161.000000
180851.000000
181507.000000
182168.000000
182806.000000
183452.000000
184114.000000
184780.000000
185479.000000
186362.000000
187238.000000
188055.000000
188845.000000
189655.000000
190449.000000
191179.000000
191900.000000
192581.000000
193264.000000
193999.000000
194767.000000
195664.000000
196400.000000
197103.000000
197777.000000
198457.000000
199126.000000
199841.000000
200589.000000
201498.000000
202382.000000
203245.000000
204084.000000
204840.000000
205622.000000
206430.000000
207230.000000
208042.000000
208867.000000
209785.000000
210624.000000
211439.000000
212232.000000
213016.000000
213841.000000
214813.000000
215648.000000
216515.000000
217355.000000
218140.000000
218941.000000
219713.000000
220455.000000
221189.000000
221996.000000
222862.000000
223666.000000
224389.000000
225135.000000
225907.000000
226708.000000
227540.000000
228435.000000
229376.000000
230171.000000
230969.000000
231761.000000
232564.000000
233365.000000
234092.000000
234774.000000
235427.000000
236069.000000
236695.000000
237311.000000
237919.000000
238512.000000
239121.000000
239729.000000
240356.000000
240981.000000
241638.000000
242328.000000
243034.000000
243722.000000
244377.000000
245027.000000
245668.000000
246296.000000
246913.000000
247520.000000
248124.000000
248733.000000
249350.000000
249985.000000
250638.000000
251307.000000
251991.000000
252718.000000
253721.000000
254516.000000
255300.000000
256048.000000
256775.000000
257492.000000
258200.000000
258912.000000
259656.000000
260418.000000
261179.000000
261905.000000
262678.000000
263509.000000
264366.000000
265239.000000
266078.000000
266898.000000
267678.000000
268504.000000
269325.000000
270150.000000
270941.000000
271789.000000
272620.000000
273530.000000
274457.000000
275363.000000
276268.000000
277116.000000
277938.000000
278724.000000
279466.000000
280246.000000
281304.000000
282180.000000
282924.000000
283610.000000
284296.000000
284980.000000
285812.000000
286849.000000
287790.000000
288676.000000
289472.000000
290232.000000
290998.000000
291784.000000
292562.000000
293299.000000
294083.000000
294892.000000
295857.000000
296697.000000
297503.000000
298262.000000
299011.000000
299732.000000
300461.000000
301194.000000
301971.000000
302782.000000
303710.000000
304517.000000
305403.000000
306159.000000
306920.000000
307675.000000
308423.000000
309346.000000
310151.000000
310986.000000
311760.000000
312547.000000
313296.000000
314012.000000
314713.000000
315409.000000
316093.000000
316772.000000
317433.000000
318107.000000
318777.000000
319458.000000
320288.000000
321069.000000
321802.000000
322572.000000
323341.000000
324151.000000
325004.000000
325787.000000
326503.000000
327259.000000
328051.000000
329033.000000
329964.000000
330884.000000
331722.000000
332472.000000
333172.000000
333863.000000
334544.000000
335197.000000
335870.000000
336529.000000
337148.000000
337759.000000
338363.000000
338970.000000
339596.000000
340249.000000
340935.000000
341617.000000
342261.000000
342892.000000
343515.000000
344122.000000
344746.000000
345379.000000
346066.000000
347051.000000
347905.000000
348679.000000
349423.000000
350097.000000
350827.000000
351545.000000
352288.000000
353042.000000
353744.000000
354475.000000
355175.000000
355912.000000
356690.000000
357488.000000
358201.000000
358872.000000
359519.000000
360147.000000
360766.000000
361382.000000
362007.000000
362629.000000
363253.000000
363875.000000
364483.000000
365083.000000
365671.000000
366254.000000
366833.000000
367409.000000
367986.000000
368570.000000
369165.000000
369760.000000
370368.000000
370989.000000
371936.000000
372825.000000
373678.000000
374498.000000
375250.000000
375989.000000
376740.000000
377506.000000
378298.000000
379053.000000
379824.000000
380587.000000
381386.000000
382216.000000
383043.000000
383864.000000
384667.000000
385410.000000
386149.000000
386865.000000
387583.000000
388270.000000
388929.000000
389581.000000
390233.000000
390855.000000
391478.000000
392107.000000
392757.000000
393457.000000
394430.000000
395266.000000
396103.000000
396871.000000
397611.000000
398369.000000
399174.000000
400176.000000
401075.000000
401924.000000
402731.000000
403514.000000
404266.000000
404987.000000
405719.000000
406401.000000
407130.000000
408181.000000
409181.000000
410162.000000
411024.000000
411804.000000
412579.000000
413371.000000
414166.000000
415021.000000
415833.000000
416751.000000
417593.000000
418474.000000
419329.000000
420203.000000
421080.000000
422017.000000
422905.000000
423778.000000
424646.000000
425465.000000
426192.000000
426954.000000
427857.000000
428771.000000
429663.000000
430560.000000
431419.000000
432185.000000
432945.000000
433646.000000
434381.000000
435101.000000
435882.000000
436739.000000
437686.000000
438601.000000
439462.000000
440244.000000
440948.000000
441685.000000
442428.000000
443301.000000
444186.000000
445105.000000
445963.000000
446806.000000
447579.000000
448358.000000
449097.000000
449783.000000
450442.000000
451082.000000
451725.000000
452370.000000
452992.000000
453633.000000
454535.000000
455446.000000
456308.000000
457136.000000
457933.000000
458744.000000
459575.000000
460468.000000
461265.000000
462090.000000
462931.000000
463743.000000
464709.000000
465509.000000
466322.000000
467104.000000
467844.000000
468543.000000
469208.000000
469898.000000
470571.000000
471335.000000
472263.000000
473113.000000
473999.000000
474762.000000
475550.000000
476327.000000
477083.000000
478002.000000
478862.000000
479821.000000
480684.000000
481525.000000
482265.000000
483015.000000
483772.000000
484524.000000
485621.000000
486581.000000
487525.000000
488396.000000
489152.000000
489923.000000
490722.000000
491808.000000
492815.000000
493804.000000
494723.000000
495549.000000
496303.000000
497080.000000
497908.000000
498901.000000
499786.000000
500667.000000
501549.000000
502513.000000
503432.000000
504212.000000
504974.000000
505679.000000
506373.000000
507061.000000
507738.000000
508455.000000
509178.000000
510055.000000
510967.000000
511732.000000
512495.000000
513222.000000
513913.000000
514641.000000
515356.000000
516191.000000
517064.000000
517858.000000
518611.000000
519342.000000
520039.000000
520775.000000
521529.000000
522356.000000
523182.000000
524052.000000
524886.000000
525714.000000
526534.000000
527293.000000
528062.000000
528838.000000
529771.000000
530638.000000
531490.000000
532303.000000
533091.000000
533864.000000
534650.000000
535511.000000
536589.000000
537560.000000
538435.000000
539259.000000
540068.000000
540951.000000
541891.000000
542737.000000
543715.000000
544704.000000
545658.000000
546529.000000
547348.000000
548163.000000
549040.000000
550030.000000
550924.000000
551756.000000
552534.000000
553276.000000
553973.000000
554652.000000
555305.000000
555964.000000
556618.000000
557283.000000
557975.000000
558664.000000
559339.000000
560015.000000
560674.000000
561363.000000
562219.000000
563010.000000
563772.000000
564477.000000
565174.000000
565868.000000
566557.000000
567226.000000
567896.000000
568553.000000
569198.000000
569835.000000
570454.000000
571063.000000
571665.000000
572255.000000
572845.000000
573436.000000
574030.000000
574628.000000
575229.000000
575836.000000
576441.000000
577054.000000
577671.000000
578291.000000
578907.000000
579514.000000
580117.000000
580713.000000
581295.000000
581875.000000
582449.000000
583017.000000
583583.000000
584153.000000
584722.000000
585293.000000
585863.000000
586433.000000
587012.000000
587591.000000
588176.000000
588779.000000
589380.000000
589991.000000
590630.000000
591318.000000
592258.000000
593080.000000
593828.000000
594545.000000
595250.000000
595966.000000
596683.000000
597425.000000
598159.000000
598980.000000
600018.000000
600957.000000
601857.000000
602675.000000
603452.000000
604225.000000
605111.000000
606034.000000
606954.000000
607983.000000
608917.000000
609907.000000
610836.000000
611745.000000
612625.000000
613517.000000
614433.000000
615276.000000
616137.000000
616973.000000
617891.000000
618688.000000
619595.000000
620465.000000
621295.000000
622142.000000
622879.000000
623750.000000
624664.000000
625601.000000
626450.000000
627286.000000
628046.000000
628767.000000
629496.000000
630219.000000
631133.000000
632154.000000
633150.000000
634088.000000
634899.000000
635683.000000
636472.000000
637228.000000
637954.000000
638673.000000
639374.000000
640039.000000
640753.000000
641515.000000
642262.000000
643023.000000
643798.000000
644710.000000
645492.000000
646219.000000
646910.000000
647612.000000
648289.000000
649010.000000
649712.000000
650407.000000
651093.000000
651785.000000
652488.000000
653175.000000
653863.000000
654693.000000
655584.000000
656434.000000
657280.000000
658047.000000
658812.000000
659519.000000
660253.000000
661038.000000
662110.000000
663113.000000
664107.000000
665016.000000
665904.000000
666704.000000
667457.000000
668167.000000
668861.000000
669537.000000
670224.000000
671003.000000
672126.000000
673105.000000
674028.000000
674868.000000
675636.000000
676391.000000
677146.000000
677909.000000
678670.000000
679404.000000
680103.000000
680826.000000
681540.000000
682281.000000
683099.000000
683939.000000
684729.000000
685443.000000
686157.000000
686849.000000
687541.000000
688263.000000
688985.000000
689760.000000
690558.000000
691372.000000
692258.000000
693138.000000
693982.000000
694823.000000
695612.000000
696383.000000
697149.000000
697884.000000
698644.000000
699473.000000
700464.000000
701364.000000
702153.000000
702945.000000
703675.000000
704372.000000
705059.000000
705715.000000
706389.000000
707049.000000
707686.000000
708337.000000
709003.000000
710017.000000
710899.000000
711669.000000
712392.000000
713126.000000
713836.000000
714573.000000
715321.000000
716122.000000
716944.000000
717746.000000
718520.000000
719339.000000
720139.000000
721089.000000
722074.000000
723021.000000
723903.000000
724744.000000
725528.000000
726326.000000
727107.000000
728011.000000
728843.000000
729722.000000
730633.000000
731549.000000
732404.000000
733265.000000
734067.000000
734915.000000
735749.000000
736567.000000
737435.000000
738214.000000
739042.000000
739907.000000
740951.000000
741883.000000
742785.000000
743621.000000
744440.000000
745264.000000
746076.000000
746914.000000
747721.000000
748496.000000
749288.000000
750100.000000
750998.000000
751833.000000
752637.000000
753417.000000
754233.000000
755113.000000
756051.000000
756999.000000
757893.000000
758669.000000
759458.000000
760201.000000
760930.000000
761647.000000
762385.000000
763219.000000
764152.000000
764951.000000
765728.000000
766449.000000
767175.000000
767915.000000
768723.000000
769617.000000
770454.000000
771269.000000
772018.000000
772808.000000
773590.000000
774369.000000
775289.000000
776093.000000
777056.000000
777897.000000
778779.000000
779603.000000
780459.000000
781238.000000
781972.000000
782715.000000
783488.000000
784440.000000
785417.000000
786370.000000
787260.000000
788111.000000
788928.000000
789721.000000
790668.000000
791650.000000
792646.000000
793611.000000
794442.000000
795262.000000
796062.000000
796921.000000
797952.000000
798872.000000
799758.000000
800642.000000
801639.000000
802629.000000
803563.000000
804420.000000
805285.000000
806150.000000
807015.000000
807913.000000
808856.000000
809851.000000
810830.000000
811698.000000
812540.000000
813356.000000
814403.000000
815377.000000
816307.000000
817198.000000
818153.000000
819087.000000
820048.000000
820902.000000
821767.000000
822640.000000
823636.000000
824511.000000
825344.000000
826268.000000
827191.000000
828131.000000
829042.000000
830001.000000
830857.000000
831682.000000
832522.000000
833444.000000
834335.000000
835188.000000
835964.000000
836742.000000
837518.000000
838244.000000
838991.000000
839782.000000
840756.000000
841707.000000
842698.000000
843601.000000
844416.000000
845255.000000
846194.000000
847170.000000
848083.000000
848903.000000
849751.000000
850667.000000
851641.000000
852590.000000
853505.000000
854347.000000
855178.000000
856023.000000
856950.000000
857778.000000
858674.000000
859515.000000
860324.000000
861119.000000
861880.000000
862701.000000
863540.000000
864414.000000
865229.000000
866023.000000
866786.000000
867565.000000
868372.000000
869238.000000
870113.000000
870945.000000
871704.000000
872461.000000
873234.000000
873970.000000
874731.000000
875490.000000
876264.000000
877012.000000
877788.000000
878517.000000
879263.000000
879971.000000
880710.000000
881433.000000
882146.000000
882865.000000
883561.000000
884325.000000
885120.000000
885969.000000
886786.000000
887584.000000
888332.000000
889083.000000
889867.000000
890724.000000
891670.000000
892558.000000
893401.000000
894200.000000
895007.000000
895901.000000
896812.000000
897611.000000
898415.000000
899239.000000
900059.000000
900851.000000
901663.000000
902475.000000
903317.000000
904216.000000
905052.000000
905828.000000
906518.000000
907204.000000
907859.000000
908508.000000
909154.000000
909821.000000
910513.000000
911486.000000
912367.000000
913177.000000
913938.000000
914683.000000
915408.000000
916170.000000
917005.000000
917888.000000
918666.000000
919507.000000
920387.000000
921245.000000
922106.000000
922854.000000
923564.000000
924231.000000
924875.000000
925521.000000
926170.000000
926837.000000
927481.000000
928131.000000
928776.000000
929427.000000
930070.000000
930699.000000
931325.000000
931949.000000
932575.000000
933206.000000
933852.000000
934517.000000
935209.000000
935942.000000
936796.000000
937540.000000
938370.000000
939242.000000
940109.000000
940925.000000
941791.000000
942641.000000
943447.000000
944241.000000
945009.000000
945808.000000
946654.000000
947676.000000
948658.000000
949589.000000
950510.000000
951388.000000
952250.000000
953147.000000
953990.000000
954976.000000
955857.000000
956833.000000
957694.000000
958536.000000
959418.000000
960298.000000
961166.000000
962056.000000
962969.000000
963836.000000
964644.000000
965474.000000
966239.000000
966965.000000
967664.000000
968386.000000
969105.000000
969825.000000
970608.000000
971421.000000
972231.000000
973070.000000
973898.000000
974719.000000
975517.000000
976276.000000
977069.000000
977851.000000
978675.000000
979528.000000
980437.000000
981369.000000
982285.000000
983174.000000
983963.000000
984693.000000
985394.000000
986114.000000
987206.000000
988203.000000
989213.000000
990181.000000
991173.000000
992074.000000
992934.000000
993797.000000
994696.000000
995561.000000
996415.000000
997241.000000
998202.000000
999148.000000
1000114.000000
1001024.000000
1001925.000000
1002819.000000
1003727.000000
1004597.000000
1005499.000000
1006296.000000
1007066.000000
1007787.000000
1008567.000000
1009487.000000
1010537.000000
1011523.000000
1012401.000000
1013245.000000
1013999.000000
1014777.000000
1015501.000000
1016343.000000
1017290.000000
1018261.000000
1019203.000000
1020130.000000
1021016.000000
1021894.000000
1022724.000000
1023498.000000
1024313.000000
1025161.000000
1026161.000000
1027119.000000
1027956.000000
1028793.000000
1029610.000000
1030444.000000
1031277.000000
1032086.000000
1032906.000000
1033725.000000
1034522.000000
1035341.000000
1036137.000000
1036864.000000
1037641.000000
1038512.000000
1039585.000000
1040597.000000
1041527.000000
1042359.000000
1043164.000000
1043932.000000
1044638.000000
1045370.000000
1046092.000000
1046752.000000
1047424.000000
1048109.000000
1048895.000000
1049867.000000
1050761.000000
1051649.000000
1052470.000000
1053229.000000
1053918.000000
1054596.000000
1055237.000000
1055889.000000
1056546.000000
1057211.000000
1058036.000000
1058826.000000
1059635.000000
1060394.000000
1061104.000000
1061771.000000
1062431.000000
1063090.000000
1063752.000000
1064395.000000
1065026.000000
1065655.000000
1066291.000000
1066936.000000
1067585.000000
1068230.000000
1068878.000000
1069524.000000
1070163.000000
1070793.000000
1071422.000000
1072049.000000
1072666.000000
1073285.000000
1073910.000000
1074541.000000
1075180.000000
1075827.000000
1076469.000000
1077121.000000
1077776.000000
1078435.000000
1079076.000000
1079720.000000
1080361.000000
1081002.000000
1081643.000000
1082278.000000
1082914.000000
1083544.000000
1084173.000000
1084805.000000
1085449.000000
1086103.000000
1086768.000000
1087423.000000
1088048.000000
1088678.000000
1089300.000000
1089943.000000
1090607.000000
1091313.000000
1092165.000000
1092995.000000
1093776.000000
1094527.000000
1095254.000000
1095943.000000
1096605.000000
1097268.000000
1097929.000000
1098593.000000
1099250.000000
1099884.000000
1100505.000000
1101124.000000
1101737.000000
1102354.000000
1102971.000000
1103584.000000
1104196.000000
1104805.000000
1105406.000000
1106006.000000
1106605.000000
1107215.000000
1107842.000000
1108500.000000
1109431.000000
1110187.000000
1110994.000000
1111806.000000
1112555.000000
1113314.000000
1114060.000000
1114781.000000
1115464.000000
1116115.000000
1116762.000000
1117418.000000
1118068.000000
1118922.000000
1119936.000000
1120878.000000
1121736.000000
1122485.000000
1123250.000000
1124049.000000
1124869.000000
1125755.000000
1126552.000000
1127323.000000
1128116.000000
1129024.000000
1129855.000000
1130782.000000
1131651.000000
1132432.000000
1133184.000000
1133921.000000
1134688.000000
1135590.000000
1136416.000000
1137185.000000
1137978.000000
1138855.000000
1139697.000000
1140589.000000
1141409.000000
1142177.000000
1142938.000000
1143685.000000
1144391.000000
1145137.000000
1145908.000000
1146700.000000
1147563.000000
1148396.000000
1149210.000000
1150001.000000
1150733.000000
1151463.000000
1152184.000000
1152922.000000
1153688.000000
1154450.000000
1155232.000000
1156059.000000
1156867.000000
1157636.000000
1158384.000000
1159120.000000
1159835.000000
1160561.000000
1161285.000000
1161984.000000
1162688.000000
1163378.000000
1164085.000000
1164868.000000
1165761.000000
1166610.000000
1167415.000000
1168150.000000
1168861.000000
1169538.000000
1170187.000000
1170826.000000
1171443.000000
1172057.000000
1172656.000000
1173255.000000
1173855.000000
1174468.000000
1175089.000000
1175714.000000
1176337.000000
1176961.000000
1177597.000000
1178235.000000
1178908.000000
1179609.000000
1180321.000000
1181077.000000
1181984.000000
1182784.000000
1183557.000000
1184311.000000
1185063.000000
1185821.000000
1186543.000000
1187256.000000
1187962.000000
1188702.000000
1189541.000000
1190498.000000
1191382.000000
1192208.000000
1192991.000000
1193745.000000
1194462.000000
1195183.000000
1195893.000000
1196609.000000
1197320.000000
1198076.000000
1198915.000000
1199773.000000
1200638.000000
1201444.000000
1202302.000000
1203186.000000
1203953.000000
1204700.000000
1205429.000000
1206177.000000
1206945.000000
1207694.000000
1208429.000000
1209144.000000
1209896.000000
1210648.000000
1211446.000000
1212231.000000
1213022.000000
1213793.000000
1214578.000000
1215380.000000
1216147.000000
1216855.000000
1217579.000000
1218294.000000
1219045.000000
1219820.000000
1220547.000000
1221269.000000
1221960.000000
1222728.000000
1223701.000000
1224611.000000
1225488.000000
1226245.000000
1227006.000000
1227759.000000
1228544.000000
1229381.000000
1230188.000000
1230937.000000
1231618.000000
1232321.000000
1233004.000000
1233744.000000
1234570.000000
1235405.000000
1236136.000000
1236810.000000
1237453.000000
1238069.000000
1238692.000000
1239304.000000
1239912.000000
1240528.000000
1241144.000000
1241759.000000
1242367.000000
1242972.000000
1243578.000000
1244188.000000
1244804.000000
1245434.000000
1246099.000000
1247117.000000
1247935.000000
1248706.000000
1249438.000000
1250140.000000
1250830.000000
1251508.000000
1252197.000000
1252972.000000
1253903.000000
1254709.000000
1255506.000000
1256212.000000
1256908.000000
1257591.000000
1258282.000000
1258958.000000
1259621.000000
1260254.000000
1260861.000000
1261452.000000
1262034.000000
1262609.000000
1263172.000000
1263727.000000
1264281.000000
1264826.000000
1265361.000000
1265903.000000
1266446.000000
1266989.000000
1267534.000000
1268092.000000
1268653.000000
1269225.000000
1269807.000000
1270394.000000
1270982.000000
1271595.000000
1272224.000000
1272853.000000
1273474.000000
1274122.000000
1274835.000000
1275857.000000
1276811.000000
1277705.000000
1278449.000000
1279154.000000
1279862.000000
1280598.000000
1281472.000000
1282490.000000
1283459.000000
1284386.000000
1285248.000000
1285992.000000
1286789.000000
1287592.000000
1288474.000000
1289399.000000
1290385.000000
1291287.000000
1292091.000000
1292831.000000
1293526.000000
1294197.000000
1294830.000000
1295463.000000
1296080.000000
1296676.000000
1297261.000000
1297849.000000
1298445.000000
1299065.000000
1299970.000000
1300867.000000
1301691.000000
1302425.000000
1303167.000000
1303928.000000
1304725.000000
1305517.000000
1306269.000000
1307013.000000
1307767.000000
1308540.000000
1309308.000000
1310132.000000
1311028.000000
1311906.000000
1312717.000000
1313538.000000
1314398.000000
1315238.000000
1315994.000000
1316764.000000
1317600.000000
1318553.000000
1319395.000000
1320248.000000
1321060.000000
1321848.000000
1322623.000000
1323359.000000
1324097.000000
1324880.000000
1325809.000000
1326653.000000
1327487.000000
1328386.000000
1329218.000000
1330104.000000
1331021.000000
1331853.000000
1332614.000000
1333377.000000
1334108.000000
1334808.000000
1335569.000000
1336392.000000
1337474.000000
1338467.000000
1339300.000000
1340071.000000
1340806.000000
1341491.000000
1342178.000000
1342886.000000
1343639.000000
1344602.000000
1345446.000000
1346294.000000
1347114.000000
1347866.000000
1348649.000000
1349444.000000
1350247.000000
1351029.000000
1351780.000000
1352484.000000
1353194.000000
1353895.000000
1354620.000000
1355379.000000
1356167.000000
1357000.000000
1357809.000000
1358536.000000
1359269.000000
1359999.000000
1360759.000000
1361559.000000
1362395.000000
1363228.000000
1363993.000000
1364743.000000
1365458.000000
1366141.000000
1366880.000000
1367617.000000
1368381.000000
1369202.000000
1370056.000000
1370899.000000
1371825.000000
1372664.000000
1373448.000000
1374257.000000
1375118.000000
1375987.000000
1376858.000000
1377661.000000
1378449.000000
1379222.000000
1380000.000000
1380814.000000
1381891.000000
1382849.000000
1383786.000000
1384624.000000
1385400.000000
1386148.000000
1386898.000000
1387674.000000
1388476.000000
1389317.000000
1390137.000000
1390874.000000
1391625.000000
1392422.000000
1393307.000000
1394187.000000
1395041.000000
1395845.000000
1396591.000000
1397312.000000
1398039.000000
1398766.000000
1399487.000000
1400236.000000
1400981.000000
1401738.000000
1402536.000000
1403412.000000
1404329.000000
1405121.000000
1405854.000000
1406564.000000
1407252.000000
1407956.000000
1408644.000000
1409325.000000
1410017.000000
1410694.000000
1411380.000000
1412069.000000
1412789.000000
1413754.000000
1414603.000000
1415409.000000
1416194.000000
1416950.000000
1417728.000000
1418565.000000
1419459.000000
1420336.000000
1421163.000000
1421925.000000
1422650.000000
1423345.000000
1424045.000000
1424764.000000
1425547.000000
1426504.000000
1427350.000000
1428216.000000
1429064.000000
1429921.000000
1430738.000000
1431536.000000
1432401.000000
1433256.000000
1434050.000000
1434872.000000
1435789.000000
1436721.000000
1437645.000000
1438515.000000
1439287.000000
1440032.000000
1440729.000000
1441400.000000
1442043.000000
1442682.000000
1443316.000000
1443937.000000
1444568.000000
1445251.000000
1446295.000000
1447173.000000
1448034.000000
1448879.000000
1449641.000000
1450413.000000
1451133.000000
1451799.000000
1452459.000000
1453100.000000
1453731.000000
1454362.000000
1454970.000000
1455578.000000
1456182.000000
1456791.000000
1457409.000000
1458032.000000
1458670.000000
1459336.000000
1460319.000000
1461169.000000
1461977.000000
1462730.000000
1463505.000000
1464269.000000
1465008.000000
1465755.000000
1466496.000000
1467260.000000
1468189.000000
1469032.000000
1469842.000000
1470608.000000
1471386.000000
1472168.000000
1472939.000000
1473722.000000
1474468.000000
1475179.000000
1475898.000000
1476688.000000
1477644.000000
1478613.000000
1479515.000000
1480366.000000
1481182.000000
1481979.000000
1482837.000000
1483699.000000
1484534.000000
1485277.000000
1486008.000000
1486735.000000
1487463.000000
1488151.000000
1488868.000000
1489549.000000
1490219.000000
1490876.000000
1491519.000000
1492156.000000
1492775.000000
1493371.000000
1493969.000000
1494556.000000
1495137.000000
1495720.000000
1496305.000000
1496892.000000
1497481.000000
1498065.000000
1498668.000000
1499271.000000
1499890.000000
1500521.000000
1501187.000000
1501892.000000
1502798.000000
1503577.000000
1504300.000000
1504978.000000
1505658.000000
1506368.000000
1507138.000000
1508145.000000
1508893.000000
1509613.000000
1510342.000000
1511146.000000
1512011.000000
1512825.000000
1513598.000000
1514380.000000
1515240.000000
1516202.000000
1517069.000000
1517963.000000
1518847.000000
1519633.000000
1520446.000000
1521254.000000
1522195.000000
1523123.000000
1523983.000000
1524766.000000
1525564.000000
1526476.000000
1527432.000000
1528329.000000
1529238.000000
1530151.000000
1531064.000000
1531965.000000
1532760.000000
1533473.000000
1534134.000000
1534772.000000
1535397.000000
1536008.000000
1536605.000000
1537193.000000
1537784.000000
1538380.000000
1538984.000000
1539581.000000
1540178.000000
1540779.000000
1541384.000000
1541987.000000
1542590.000000
1543192.000000
1543793.000000
1544400.000000
1545015.000000
1545632.000000
1546270.000000
1546914.000000
1547567.000000
1548227.000000
1548871.000000
1549498.000000
1550114.000000
1550720.000000
1551313.000000
1551904.000000
1552493.000000
1553082.000000
1553690.000000
1554309.000000
1554946.000000
1555597.000000
1556252.000000
1556888.000000
1557529.000000
1558208.000000
1559238.000000
1560181.000000
1561025.000000
1561790.000000
1562496.000000
1563204.000000
1563929.000000
1564728.000000
1565731.000000
1566614.000000
1567400.000000
1568143.000000
1568882.000000
1569603.000000
1570331.000000
1571022.000000
1571745.000000
1572508.000000
1573474.000000
1574410.000000
1575275.000000
1576060.000000
1576825.000000
1577583.000000
1578372.000000
1579205.000000
1580070.000000
1580926.000000
1581731.000000
1582496.000000
1583284.000000
1584069.000000
1585032.000000
1585899.000000
1586762.000000
1587610.000000
1588390.000000
1589171.000000
1589900.000000
1590633.000000
1591330.000000
1592015.000000
1592736.000000
1593529.000000
1594352.000000
1595333.000000
1596241.000000
1597138.000000
1597983.000000
1598805.000000
1599709.000000
1600615.000000
1601545.000000
1602433.000000
1603279.000000
1604088.000000
1604891.000000
1605715.000000
1606526.000000
1607453.000000
1608370.000000
1609199.000000
1610055.000000
1610936.000000
1611724.000000
1612455.000000
1613210.000000
1614027.000000
1614923.000000
1615859.000000
1616769.000000
1617609.000000
1618401.000000
1619191.000000
1619990.000000
1620838.000000
1621723.000000
1622612.000000
1623505.000000
1624335.000000
1625155.000000
1625954.000000
1626900.000000
1627849.000000
1628689.000000
1629548.000000
1630428.000000
1631356.000000
1632226.000000
1633048.000000
1633885.000000
1634748.000000
1635618.000000
1636568.000000
1637513.000000
1638392.000000
1639230.000000
1640091.000000
1641038.000000
1641928.000000
1642794.000000
1643685.000000
1644687.000000
1645653.000000
1646590.000000
1647453.000000
1648257.000000
1649061.000000
1649875.000000
1650731.000000
1651675.000000
1652609.000000
1653452.000000
1654327.000000
1655195.000000
1656004.000000
1656822.000000
1657632.000000
1658412.000000
1659242.000000
1660135.000000
1660957.000000
1661758.000000
1662513.000000
1663229.000000
1663978.000000
1664727.000000
1665552.000000
1666451.000000
1667368.000000
1668245.000000
1669108.000000
1669892.000000
1670688.000000
1671457.000000
1672242.000000
1673048.000000
1673823.000000
1674632.000000
1675630.000000
1676606.000000
1677602.000000
1678490.000000
1679328.000000
1680124.000000
1680905.000000
1681678.000000
1682596.000000
1683730.000000
1684799.000000
1685819.000000
1686794.000000
1687697.000000
1688547.000000
1689382.000000
1690247.000000
1691084.000000
1692095.000000
1693028.000000
1693974.000000
1694836.000000
1695764.000000
1696618.000000
1697455.000000
1698323.000000
1699183.000000
1700165.000000
1701181.000000
1702072.000000
1702949.000000
1703786.000000
1704691.000000
1705645.000000
1706608.000000
1707483.000000
1708411.000000
1709270.000000
1710151.000000
1710982.000000
1711981.000000
1712960.000000
1713959.000000
1714924.000000
1715797.000000
1716667.000000
1717501.000000
1718345.000000
1719268.000000
1720306.000000
1721238.000000
1722189.000000
1723096.000000
1724007.000000
1724943.000000
1725803.000000
1726804.000000
1727799.000000
1728742.000000
1729618.000000
1730425.000000
1731201.000000
1731922.000000
1732663.000000
1733409.000000
1734370.000000
1735350.000000
1736253.000000
1737074.000000
1737862.000000
1738645.000000
1739394.000000
1740152.000000
1740944.000000
1741767.000000
1742594.000000
1743434.000000
1744228.000000
1744944.000000
1745678.000000
1746428.000000
1747282.000000
1748144.000000
1748967.000000
1749776.000000
1750542.000000
1751313.000000
1752090.000000
1752870.000000
1753722.000000
1754668.000000
1755667.000000
1756642.000000
1757538.000000
1758365.000000
1759185.000000
1760060.000000
1760954.000000
1761798.000000
1762641.000000
1763517.000000
1764370.000000
1765303.000000
1766349.000000
1767351.000000
1768218.000000
1769001.000000
1769748.000000
1770478.000000
1771219.000000
1772012.000000
1773161.000000
1774263.000000
1775316.000000
1776291.000000
1777169.000000
1777972.000000
1778725.000000
1779500.000000
1780273.000000
1781401.000000
1782430.000000
1783461.000000
1784441.000000
1785254.000000
1786038.000000
1786909.000000
1787990.000000
1789013.000000
1789887.000000
1790675.000000
1791494.000000
1792500.000000
1793436.000000
1794397.000000
1795394.000000
1796384.000000
1797236.000000
1798040.000000
1798833.000000
1799630.000000
