ECG (ms)
604.000000
1292.000000
1968.000000
2645.000000
3345.000000
4054.000000
4743.000000
5426.000000
6141.000000
6923.000000
7676.000000
8463.000000
9220.000000
9959.000000
10670.000000
11385.000000
12165.000000
12963.000000
13747.000000
14482.000000
15194.000000
15881.000000
16618.000000
17475.000000
18273.000000
19074.000000
19874.000000
20639.000000
21371.000000
22106.000000
22872.000000
23658.000000
24451.000000
25213.000000
25967.000000
26683.000000
27414.000000
28161.000000
28861.000000
29524.000000
30191.000000
30880.000000
31561.000000
32275.000000
33035.000000
33814.000000
34594.000000
35331.000000
36054.000000
36784.000000
37535.000000
38283.000000
39027.000000
39738.000000
40429.000000
41133.000000
41873.000000
42605.000000
43358.000000
44079.000000
44802.000000
45503.000000
46186.000000
46878.000000
47608.000000
48383.000000
49170.000000
49921.000000
50659.000000
51357.000000
52042.000000
52749.000000
53519.000000
54332.000000
55066.000000
55781.000000
56500.000000
57262.000000
58061.000000
58821.000000
59557.000000
60296.000000
61029.000000
61790.000000
62520.000000
63227.000000
63907.000000
64602.000000
65342.000000
66130.000000
66918.000000
67666.000000
68383.000000
69080.000000
69745.000000
70400.000000
71095.000000
71819.000000
72532.000000
73231.000000
73996.000000
74773.000000
75531.000000
76269.000000
76977.000000
77665.000000
78345.000000
79080.000000
79883.000000
80698.000000
81508.000000
82293.000000
83043.000000
83776.000000
84536.000000
85346.000000
86198.000000
87014.000000
87801.000000
88537.000000
89248.000000
89939.000000
90652.000000
91496.000000
92381.000000
93250.000000
94089.000000
94909.000000
95679.000000
96434.000000
97181.000000
97913.000000
98637.000000
99404.000000
100287.000000
101156.000000
102018.000000
102845.000000
103660.000000
104506.000000
105397.000000
106231.000000
107022.000000
107795.000000
108597.000000
109514.000000
110449.000000
111303.000000
112156.000000
113047.000000
113962.000000
114861.000000
115653.000000
116431.000000
117235.000000
118059.000000
118941.000000
119795.000000
120825.000000
121889.000000
122872.000000
123721.000000
124528.000000
125391.000000
126333.000000
127156.000000
128033.000000
129001.000000
129791.000000
130556.000000
131333.000000
132121.000000
132925.000000
133683.000000
134454.000000
135291.000000
136084.000000
136803.000000
137492.000000
138216.000000
138931.000000
139633.000000
140352.000000
141091.000000
141857.000000
142596.000000
143328.000000
144022.000000
144716.000000
145446.000000
146270.000000
147135.000000
147973.000000
148779.000000
149543.000000
150350.000000
151190.000000
152031.000000
152818.000000
153553.000000
154297.000000
155091.000000
155928.000000
156761.000000
157560.000000
158425.000000
159279.000000
160139.000000
160981.000000
161772.000000
162554.000000
163309.000000
164052.000000
164777.000000
165494.000000
166261.000000
167138.000000
168011.000000
168816.000000
169621.000000
170504.000000
171407.000000
172286.000000
173113.000000
173965.000000
174797.000000
175639.000000
176468.000000
177266.000000
178087.000000
178968.000000
179918.000000
180827.000000
181677.000000
182545.000000
183431.000000
184264.000000
185043.000000
185847.000000
186680.000000
187533.000000
188324.000000
189136.000000
189984.000000
190831.000000
191610.000000
192419.000000
193258.000000
194182.000000
195006.000000
195814.000000
196654.000000
197505.000000
198319.000000
199092.000000
199884.000000
200747.000000
201612.000000
202442.000000
203237.000000
204023.000000
204878.000000
205631.000000
206372.000000
207083.000000
207761.000000
208472.000000
209293.000000
210123.000000
210906.000000
211768.000000
212660.000000
213525.000000
214324.000000
215088.000000
215864.000000
216678.000000
217446.000000
218174.000000
218901.000000
219676.000000
220507.000000
221319.000000
222125.000000
222879.000000
223609.000000
224355.000000
225126.000000
225897.000000
226676.000000
227430.000000
228189.000000
228993.000000
229798.000000
230570.000000
231321.000000
232040.000000
232751.000000
233477.000000
234236.000000
234978.000000
235711.000000
236420.000000
237157.000000
237918.000000
238662.000000
239385.000000
240085.000000
240800.000000
241542.000000
242290.000000
243025.000000
243770.000000
244552.000000
245328.000000
246083.000000
246803.000000
247525.000000
248265.000000
249018.000000
249732.000000
250437.000000
251156.000000
251907.000000
252753.000000
253572.000000
254369.000000
255124.000000
255878.000000
256632.000000
257394.000000
258167.000000
258906.000000
259616.000000
260333.000000
261086.000000
261852.000000
262640.000000
263402.000000
264169.000000
264979.000000
265799.000000
266582.000000
267378.000000
268185.000000
269025.000000
269806.000000
270571.000000
271338.000000
272127.000000
272919.000000
273666.000000
274411.000000
275171.000000
275920.000000
276661.000000
277406.000000
278151.000000
278868.000000
279551.000000
280262.000000
280970.000000
281668.000000
282380.000000
283123.000000
283892.000000
284676.000000
285432.000000
286154.000000
286856.000000
287580.000000
288397.000000
289261.000000
290110.000000
290923.000000
291755.000000
292601.000000
293456.000000
294286.000000
295067.000000
295807.000000
296561.000000
297355.000000
298319.000000
299178.000000
299985.000000
300806.000000
301620.000000
302488.000000
303414.000000
304223.000000
305003.000000
305788.000000
306614.000000
307471.000000
308300.000000
309127.000000
310021.000000
310933.000000
311815.000000
312626.000000
313480.000000
314385.000000
315300.000000
316129.000000
316926.000000
317748.000000
318614.000000
319458.000000
320278.000000
321140.000000
322022.000000
322932.000000
323808.000000
324595.000000
325388.000000
326202.000000
327072.000000
328023.000000
328845.000000
329662.000000
330534.000000
331490.000000
332370.000000
333191.000000
333969.000000
334801.000000
335711.000000
336629.000000
337510.000000
338368.000000
339164.000000
340005.000000
340874.000000
341767.000000
342601.000000
343389.000000
344214.000000
345151.000000
346052.000000
346903.000000
347715.000000
348540.000000
349430.000000
350253.000000
351023.000000
351815.000000
352619.000000
353365.000000
354058.000000
354757.000000
355472.000000
356174.000000
356905.000000
357704.000000
358572.000000
359419.000000
360198.000000
360933.000000
361651.000000
362375.000000
363147.000000
363959.000000
364789.000000
365608.000000
366414.000000
367185.000000
368004.000000
368854.000000
369694.000000
370513.000000
371314.000000
372073.000000
372837.000000
373634.000000
374467.000000
375281.000000
376058.000000
376817.000000
377594.000000
378403.000000
379241.000000
380052.000000
380834.000000
381697.000000
382584.000000
383427.000000
384214.000000
385008.000000
385814.000000
386658.000000
387494.000000
388273.000000
389128.000000
390062.000000
390959.000000
391770.000000
392523.000000
393307.000000
394164.000000
395043.000000
395873.000000
396672.000000
397547.000000
398473.000000
399357.000000
400136.000000
400908.000000
401691.000000
402501.000000
403347.000000
404175.000000
404997.000000
405893.000000
406835.000000
407731.000000
408535.000000
409336.000000
410155.000000
411026.000000
411823.000000
412581.000000
413364.000000
414173.000000
414993.000000
415811.000000
416610.000000
417464.000000
418349.000000
419258.000000
420180.000000
421007.000000
421800.000000
422560.000000
423307.000000
424039.000000
424850.000000
425851.000000
426850.000000
427755.000000
428598.000000
429485.000000
430349.000000
431174.000000
431919.000000
432667.000000
433410.000000
434119.000000
434898.000000
435762.000000
436588.000000
437475.000000
438383.000000
439269.000000
440104.000000
440876.000000
441646.000000
442427.000000
443210.000000
444038.000000
444870.000000
445704.000000
446571.000000
447450.000000
448361.000000
449173.000000
450000.000000
450850.000000
451717.000000
452604.000000
453400.000000
454183.000000
455018.000000
455924.000000
456862.000000
457750.000000
458572.000000
459382.000000
460203.000000
461028.000000
461858.000000
462669.000000
463527.000000
464484.000000
465497.000000
466438.000000
467311.000000
468165.000000
469035.000000
469921.000000
470792.000000
471595.000000
472407.000000
473294.000000
474205.000000
475037.000000
475804.000000
476617.000000
477511.000000
478444.000000
479302.000000
480102.000000
480943.000000
481804.000000
482661.000000
483470.000000
484262.000000
485083.000000
485926.000000
486767.000000
487573.000000
488345.000000
489161.000000
489996.000000
490781.000000
491536.000000
492256.000000
492991.000000
493804.000000
494671.000000
495522.000000
496354.000000
497262.000000
498154.000000
499016.000000
499795.000000
500566.000000
501354.000000
502133.000000
502860.000000
503562.000000
504263.000000
504995.000000
505779.000000
506580.000000
507353.000000
508115.000000
508897.000000
509717.000000
510553.000000
511415.000000
512198.000000
512978.000000
513764.000000
514553.000000
515307.000000
516069.000000
516798.000000
517560.000000
518352.000000
519173.000000
520009.000000
520797.000000
521599.000000
522377.000000
523120.000000
523822.000000
524521.000000
525241.000000
525978.000000
526675.000000
527425.000000
528295.000000
529088.000000
529890.000000
530705.000000
531557.000000
532329.000000
533080.000000
533848.000000
534641.000000
535433.000000
536201.000000
536954.000000
537774.000000
538645.000000
539488.000000
540273.000000
541073.000000
541891.000000
542751.000000
543606.000000
544415.000000
545172.000000
545926.000000
546679.000000
547422.000000
548146.000000
548887.000000
549668.000000
550483.000000
551325.000000
552113.000000
552942.000000
553766.000000
554580.000000
555354.000000
556093.000000
556852.000000
557674.000000
558485.000000
559271.000000
560059.000000
560857.000000
561703.000000
562534.000000
563309.000000
564088.000000
564908.000000
565733.000000
566544.000000
567340.000000
568115.000000
568899.000000
569734.000000
570517.000000
571278.000000
572051.000000
572850.000000
573674.000000
574439.000000
575187.000000
575966.000000
576801.000000
577666.000000
578496.000000
579319.000000
580164.000000
581028.000000
581864.000000
582635.000000
583372.000000
584139.000000
584951.000000
585796.000000
586630.000000
587406.000000
588160.000000
588958.000000
589803.000000
590636.000000
591444.000000
592261.000000
593123.000000
594012.000000
594862.000000
595662.000000
596432.000000
597187.000000
597944.000000
598793.000000
599634.000000
600402.000000
601131.000000
601919.000000
602732.000000
603510.000000
604296.000000
605134.000000
606020.000000
606938.000000
607759.000000
608526.000000
609280.000000
610077.000000
610972.000000
611859.000000
612859.000000
613832.000000
614671.000000
615558.000000
616439.000000
617288.000000
618105.000000
618918.000000
619703.000000
620478.000000
621255.000000
622137.000000
623133.000000
624138.000000
625055.000000
625879.000000
626668.000000
627463.000000
628289.000000
629307.000000
630304.000000
631204.000000
632154.000000
633076.000000
633953.000000
634771.000000
635634.000000
636523.000000
637339.000000
638109.000000
638940.000000
639826.000000
640776.000000
641679.000000
642482.000000
643298.000000
644145.000000
645028.000000
645942.000000
646780.000000
647575.000000
648415.000000
649316.000000
650191.000000
650973.000000
651759.000000
652562.000000
653429.000000
654267.000000
655044.000000
655834.000000
656631.000000
657444.000000
658270.000000
659112.000000
660049.000000
661002.000000
661908.000000
662707.000000
663520.000000
664347.000000
665226.000000
666119.000000
666956.000000
667797.000000
668695.000000
669675.000000
670558.000000
671356.000000
672141.000000
672961.000000
673845.000000
674783.000000
675674.000000
676499.000000
677363.000000
678295.000000
679223.000000
680107.000000
680922.000000
681699.000000
682474.000000
683283.000000
684120.000000
684995.000000
685799.000000
686667.000000
687564.000000
688463.000000
689293.000000
690086.000000
690877.000000
691708.000000
692564.000000
693448.000000
694290.000000
695083.000000
695888.000000
696717.000000
697526.000000
698253.000000
698979.000000
699774.000000
700572.000000
701374.000000
702322.000000
703271.000000
704168.000000
704965.000000
705716.000000
706459.000000
707227.000000
708042.000000
708948.000000
709806.000000
710616.000000
711392.000000
712239.000000
713087.000000
713929.000000
714809.000000
715599.000000
716365.000000
717139.000000
717942.000000
718704.000000
719482.000000
720286.000000
721113.000000
721873.000000
722607.000000
723321.000000
724091.000000
724872.000000
725685.000000
726497.000000
727316.000000
728114.000000
728892.000000
729701.000000
730531.000000
731378.000000
732221.000000
733068.000000
733843.000000
734590.000000
735353.000000
736135.000000
736952.000000
737748.000000
738496.000000
739257.000000
740064.000000
740874.000000
741699.000000
742484.000000
743238.000000
744018.000000
744802.000000
745591.000000
746398.000000
747166.000000
747907.000000
748659.000000
749461.000000
750291.000000
751096.000000
751864.000000
752604.000000
753363.000000
754134.000000
754933.000000
755736.000000
756519.000000
757310.000000
758147.000000
759001.000000
759843.000000
760627.000000
761377.000000
762114.000000
762856.000000
763645.000000
764435.000000
765226.000000
765997.000000
766734.000000
767508.000000
768338.000000
769192.000000
770070.000000
770884.000000
771644.000000
772403.000000
773183.000000
773995.000000
774802.000000
775567.000000
776350.000000
777154.000000
777976.000000
778798.000000
779571.000000
780311.000000
781072.000000
781852.000000
782665.000000
783441.000000
784195.000000
784965.000000
785753.000000
786538.000000
787288.000000
788058.000000
788840.000000
789655.000000
790438.000000
791214.000000
792050.000000
792857.000000
793638.000000
794366.000000
795103.000000
795864.000000
796683.000000
797480.000000
798233.000000
799014.000000
799796.000000
800590.000000
801327.000000
802103.000000
802901.000000
803699.000000
804456.000000
805207.000000
806004.000000
806787.000000
807561.000000
808330.000000
809118.000000
809949.000000
810746.000000
811481.000000
812215.000000
812959.000000
813723.000000
814464.000000
815227.000000
816049.000000
816878.000000
817693.000000
818478.000000
819255.000000
820060.000000
820901.000000
821746.000000
822551.000000
823272.000000
823993.000000
824745.000000
825497.000000
826304.000000
827172.000000
828054.000000
828902.000000
829744.000000
830530.000000
831303.000000
832131.000000
832972.000000
833808.000000
834708.000000
835581.000000
836407.000000
837229.000000
838051.000000
838856.000000
839669.000000
840500.000000
841284.000000
842089.000000
842947.000000
843839.000000
844696.000000
845538.000000
846311.000000
847062.000000
847896.000000
848685.000000
849465.000000
850272.000000
851074.000000
851841.000000
852725.000000
853656.000000
854574.000000
855402.000000
856191.000000
857011.000000
857881.000000
858774.000000
859644.000000
860489.000000
861304.000000
862064.000000
862802.000000
863582.000000
864458.000000
865457.000000
866345.000000
867132.000000
867917.000000
868890.000000
869734.000000
870530.000000
871384.000000
872175.000000
872954.000000
873692.000000
874425.000000
875264.000000
876069.000000
876930.000000
877858.000000
878851.000000
879731.000000
880595.000000
881475.000000
882416.000000
883289.000000
884089.000000
884905.000000
885771.000000
886706.000000
887557.000000
888391.000000
889294.000000
890283.000000
891181.000000
892032.000000
892910.000000
893859.000000
894780.000000
895694.000000
896545.000000
897473.000000
898453.000000
899388.000000
900222.000000
901034.000000
901910.000000
902847.000000
903845.000000
904711.000000
905609.000000
906588.000000
907532.000000
908395.000000
909224.000000
910084.000000
910998.000000
911896.000000
912709.000000
913521.000000
914386.000000
915292.000000
916134.000000
916973.000000
917871.000000
918798.000000
919711.000000
920527.000000
921343.000000
922219.000000
923145.000000
924078.000000
924908.000000
925687.000000
926484.000000
927362.000000
928361.000000
929329.000000
930172.000000
931042.000000
932006.000000
932989.000000
933923.000000
934767.000000
935617.000000
936520.000000
937405.000000
938226.000000
939033.000000
939914.000000
940872.000000
941758.000000
942716.000000
943716.000000
944626.000000
945437.000000
946231.000000
947002.000000
947752.000000
948469.000000
949289.000000
950250.000000
951103.000000
951992.000000
952873.000000
953755.000000
954558.000000
955329.000000
956143.000000
956969.000000
957774.000000
958537.000000
959306.000000
960107.000000
961010.000000
961876.000000
962680.000000
963518.000000
964390.000000
965278.000000
966099.000000
966886.000000
967673.000000
968493.000000
969326.000000
970122.000000
970947.000000
971793.000000
972627.000000
973407.000000
974207.000000
975053.000000
975929.000000
976751.000000
977537.000000
978386.000000
979285.000000
980196.000000
981036.000000
981838.000000
982662.000000
983559.000000
984488.000000
985322.000000
986108.000000
986892.000000
987708.000000
988584.000000
989436.000000
990265.000000
991213.000000
992219.000000
993161.000000
993996.000000
994844.000000
995707.000000
996547.000000
997383.000000
998169.000000
998943.000000
999840.000000
1000816.000000
1001798.000000
1002715.000000
1003648.000000
1004638.000000
1005589.000000
1006411.000000
1007217.000000
1008102.000000
1009063.000000
1009939.000000
1010731.000000
1011552.000000
1012451.000000
1013405.000000
1014242.000000
1015191.000000
1016134.000000
1017022.000000
1017859.000000
1018714.000000
1019627.000000
1020537.000000
1021408.000000
1022229.000000
1023107.000000
1024038.000000
1024955.000000
1025792.000000
1026657.000000
1027564.000000
1028509.000000
1029350.000000
1030186.000000
1031050.000000
1032006.000000
1032903.000000
1033753.000000
1034649.000000
1035580.000000
1036509.000000
1037344.000000
1038187.000000
1039045.000000
1039931.000000
1040836.000000
1041652.000000
1042591.000000
1043571.000000
1044591.000000
1045513.000000
1046340.000000
1047170.000000
1048006.000000
1048869.000000
1049701.000000
1050519.000000
1051379.000000
1052162.000000
1052902.000000
1053728.000000
1054694.000000
1055518.000000
1056356.000000
1057188.000000
1058022.000000
1058823.000000
1059585.000000
1060355.000000
1061187.000000
1062073.000000
1062939.000000
1063753.000000
1064516.000000
1065333.000000
1066198.000000
1067088.000000
1067933.000000
1068728.000000
1069509.000000
1070369.000000
1071287.000000
1072186.000000
1073068.000000
1073870.000000
1074719.000000
1075630.000000
1076544.000000
1077396.000000
1078232.000000
1079086.000000
1080002.000000
1080944.000000
1081826.000000
1082759.000000
1083691.000000
1084516.000000
1085294.000000
1086069.000000
1086848.000000
1087637.000000
1088415.000000
1089176.000000
1090026.000000
1090894.000000
1091673.000000
1092411.000000
1093219.000000
1094033.000000
1094809.000000
1095644.000000
1096494.000000
1097366.000000
1098214.000000
1098990.000000
1099738.000000
1100499.000000
1101487.000000
1102456.000000
1103364.000000
1104251.000000
1105112.000000
1105919.000000
1106789.000000
1107614.000000
1108487.000000
1109367.000000
1110199.000000
1111015.000000
1111813.000000
1112650.000000
1113528.000000
1114491.000000
1115402.000000
1116220.000000
1116973.000000
1117761.000000
1118617.000000
1119477.000000
1120296.000000
1121138.000000
1122100.000000
1123075.000000
1123939.000000
1124825.000000
1125772.000000
1126674.000000
1127541.000000
1128356.000000
1129172.000000
1130037.000000
1130937.000000
1131768.000000
1132640.000000
1133537.000000
1134444.000000
1135282.000000
1136168.000000
1137115.000000
1138029.000000
1138865.000000
1139770.000000
1140783.000000
1141768.000000
1142625.000000
1143511.000000
1144385.000000
1145238.000000
1146018.000000
1146850.000000
1147705.000000
1148574.000000
1149387.000000
1150217.000000
1151067.000000
1151920.000000
1152729.000000
1153494.000000
1154287.000000
1155110.000000
1155957.000000
1156772.000000
1157584.000000
1158559.000000
1159516.000000
1160373.000000
1161152.000000
1161931.000000
1162688.000000
1163400.000000
1164083.000000
1164797.000000
1165554.000000
1166313.000000
1167115.000000
1167977.000000
1168872.000000
1169694.000000
1170464.000000
1171279.000000
1172127.000000
1172949.000000
1173723.000000
1174478.000000
1175281.000000
1176122.000000
1176976.000000
1177802.000000
1178609.000000
1179466.000000
1180351.000000
1181316.000000
1182181.000000
1182995.000000
1183757.000000
1184539.000000
1185369.000000
1186241.000000
1187053.000000
1187841.000000
1188701.000000
1189587.000000
1190480.000000
1191298.000000
1192093.000000
1192913.000000
1193733.000000
1194538.000000
1195316.000000
1196169.000000
1197080.000000
1198006.000000
1198840.000000
1199667.000000
1200533.000000
1201475.000000
1202387.000000
1203191.000000
1203997.000000
1204814.000000
1205710.000000
1206569.000000
1207397.000000
1208302.000000
1209274.000000
1210218.000000
1211052.000000
1211897.000000
1212740.000000
1213602.000000
1214400.000000
1215256.000000
1216225.000000
1217217.000000
1218092.000000
1218970.000000
1219938.000000
1220861.000000
1221700.000000
1222549.000000
1223457.000000
1224374.000000
1225236.000000
1226101.000000
1227023.000000
1227946.000000
1228782.000000
1229637.000000
1230547.000000
1231530.000000
1232368.000000
1233187.000000
1234037.000000
1235034.000000
1235910.000000
1236800.000000
1237726.000000
1238601.000000
1239417.000000
1240240.000000
1241096.000000
1242004.000000
1242881.000000
1243641.000000
1244413.000000
1245278.000000
1246164.000000
1247000.000000
1247771.000000
1248535.000000
1249295.000000
1250092.000000
1250907.000000
1251691.000000
1252574.000000
1253477.000000
1254406.000000
1255202.000000
1255958.000000
1256741.000000
1257553.000000
1258384.000000
1259194.000000
1260108.000000
1261028.000000
1261887.000000
1262717.000000
1263603.000000
1264503.000000
1265332.000000
1266128.000000
1266924.000000
1267730.000000
1268492.000000
1269246.000000
1270052.000000
1270911.000000
1271720.000000
1272544.000000
1273403.000000
1274244.000000
1275007.000000
1275792.000000
1276591.000000
1277390.000000
1278148.000000
1278926.000000
1279699.000000
1280490.000000
1281247.000000
1281948.000000
1282625.000000
1283308.000000
1284038.000000
1284855.000000
1285681.000000
1286473.000000
1287240.000000
1288041.000000
1288887.000000
1289745.000000
1290544.000000
1291328.000000
1292145.000000
1292977.000000
1293790.000000
1294564.000000
1295323.000000
1296093.000000
1296902.000000
1297691.000000
1298518.000000
1299453.000000
1300397.000000
1301248.000000
1302137.000000
1303016.000000
1303867.000000
1304664.000000
1305479.000000
1306300.000000
1307177.000000
1308036.000000
1308839.000000
1309712.000000
1310671.000000
1311609.000000
1312520.000000
1313386.000000
1314217.000000
1315081.000000
1315966.000000
1316833.000000
1317663.000000
1318707.000000
1319744.000000
1320777.000000
1321759.000000
1322628.000000
1323533.000000
1324493.000000
1325463.000000
1326441.000000
1327319.000000
1328137.000000
1328908.000000
1329861.000000
1330881.000000
1331841.000000
1332826.000000
1333773.000000
1334702.000000
1335651.000000
1336554.000000
1337390.000000
1338181.000000
1338990.000000
1339835.000000
1340757.000000
1341656.000000
1342489.000000
1343406.000000
1344443.000000
1345401.000000
1346253.000000
1347128.000000
1348052.000000
1348992.000000
1349898.000000
1350754.000000
1351623.000000
1352547.000000
1353488.000000
1354342.000000
1355187.000000
1356039.000000
1356980.000000
1357943.000000
1358831.000000
1359678.000000
1360602.000000
1361599.000000
1362578.000000
1363537.000000
1364388.000000
1365269.000000
1366203.000000
1367156.000000
1368055.000000
1368911.000000
1369862.000000
1370849.000000
1371889.000000
1372791.000000
1373724.000000
1374689.000000
1375617.000000
1376562.000000
1377472.000000
1378485.000000
1379427.000000
1380233.000000
1380993.000000
1381748.000000
1382494.000000
1383254.000000
1384485.000000
1385523.000000
1386413.000000
1387303.000000
1388296.000000
1389213.000000
1390095.000000
1390939.000000
1391748.000000
1392607.000000
1393573.000000
1394538.000000
1395472.000000
1396380.000000
1397213.000000
1397986.000000
1398788.000000
1399811.000000
1400869.000000
1401917.000000
1402792.000000
1403695.000000
1404592.000000
1405446.000000
1406278.000000
1407135.000000
1408008.000000
1408838.000000
1409615.000000
1410424.000000
1411394.000000
1412371.000000
1413305.000000
1414145.000000
1414944.000000
1415780.000000
1416637.000000
1417531.000000
1418423.000000
1419247.000000
1420096.000000
1420970.000000
1421863.000000
1422730.000000
1423554.000000
1424414.000000
1425328.000000
1426220.000000
1427052.000000
1427863.000000
1428706.000000
1429603.000000
1430462.000000
1431251.000000
1432074.000000
1432932.000000
1433800.000000
1434614.000000
1435404.000000
1436203.000000
1437033.000000
1437872.000000
1438655.000000
1439449.000000
1440304.000000
1441166.000000
1442023.000000
1442828.000000
1443605.000000
1444380.000000
1445142.000000
1445855.000000
1446580.000000
1447363.000000
1448127.000000
1448949.000000
1449822.000000
1450715.000000
1451551.000000
1452329.000000
1453072.000000
1453851.000000
1454699.000000
1455610.000000
1456407.000000
1457239.000000
1458104.000000
1458969.000000
1459808.000000
1460583.000000
1461391.000000
1462196.000000
1462988.000000
1463744.000000
1464517.000000
1465322.000000
1466262.000000
1467095.000000
1467922.000000
1468805.000000
1469704.000000
1470586.000000
1471444.000000
1472252.000000
1473083.000000
1473973.000000
1474919.000000
1475798.000000
1476612.000000
1477421.000000
1478325.000000
1479323.000000
1480259.000000
1481112.000000
1481914.000000
1482746.000000
1483599.000000
1484494.000000
1485379.000000
1486196.000000
1487025.000000
1487916.000000
1488900.000000
1489779.000000
1490634.000000
1491523.000000
1492493.000000
1493370.000000
1494151.000000
1494937.000000
1495762.000000
1496701.000000
1497633.000000
1498484.000000
1499407.000000
1500429.000000
1501476.000000
1502404.000000
1503318.000000
1504192.000000
1505040.000000
1505875.000000
1506709.000000
1507648.000000
1508664.000000
1509691.000000
1510646.000000
1511498.000000
1512399.000000
1513374.000000
1514317.000000
1515182.000000
1515997.000000
1516848.000000
1517748.000000
1518667.000000
1519515.000000
1520446.000000
1521373.000000
1522291.000000
1523125.000000
1523922.000000
1524744.000000
1525644.000000
1526549.000000
1527350.000000
1528129.000000
1528933.000000
1529865.000000
1530768.000000
1531669.000000
1532493.000000
1533391.000000
1534292.000000
1535197.000000
1536095.000000
1536926.000000
1537793.000000
1538685.000000
1539607.000000
1540448.000000
1541263.000000
1542091.000000
1542961.000000
1543778.000000
1544560.000000
1545369.000000
1546233.000000
1547149.000000
1548022.000000
1548880.000000
1549829.000000
1550765.000000
1551611.000000
1552431.000000
1553263.000000
1554177.000000
1555070.000000
1555868.000000
1556635.000000
1557392.000000
1558393.000000
1559449.000000
1560459.000000
1561463.000000
1562426.000000
1563349.000000
1564232.000000
1565091.000000
1565899.000000
1566748.000000
1567843.000000
1568816.000000
1569702.000000
1570577.000000
1571531.000000
1572491.000000
1573400.000000
1574256.000000
1575114.000000
1576045.000000
1576997.000000
1577921.000000
1578756.000000
1579608.000000
1580613.000000
1581590.000000
1582567.000000
1583443.000000
1584309.000000
1585205.000000
1586123.000000
1586986.000000
1587794.000000
1588642.000000
1589536.000000
1590469.000000
1591322.000000
1592131.000000
1592946.000000
1593799.000000
1594667.000000
1595481.000000
1596402.000000
1597415.000000
1598365.000000
1599223.000000
1600109.000000
1601009.000000
1601912.000000
1602740.000000
1603559.000000
1604450.000000
1605444.000000
1606326.000000
1607216.000000
1608353.000000
1609522.000000
1610438.000000
1611299.000000
1612145.000000
1613037.000000
1613873.000000
1614701.000000
1615611.000000
1616434.000000
1617218.000000
1618153.000000
1619063.000000
1619936.000000
1620917.000000
1621990.000000
1622926.000000
1623726.000000
1624502.000000
1625282.000000
1626156.000000
1627036.000000
1627866.000000
1628840.000000
1629876.000000
1630873.000000
1631699.000000
1632513.000000
1633384.000000
1634308.000000
1635205.000000
1636114.000000
1637167.000000
1638218.000000
1639154.000000
1640145.000000
1641099.000000
1641991.000000
1642805.000000
1643619.000000
1644515.000000
1645489.000000
1646440.000000
1647336.000000
1648229.000000
1649214.000000
1650166.000000
1651090.000000
1651939.000000
1652802.000000
1653715.000000
1654619.000000
1655461.000000
1656289.000000
1657149.000000
1658050.000000
1658943.000000
1659816.000000
1660702.000000
1661600.000000
1662522.000000
1663436.000000
1664269.000000
1665073.000000
1665894.000000
1666845.000000
1667876.000000
1668788.000000
1669699.000000
1670676.000000
1671679.000000
1672534.000000
1673392.000000
1674269.000000
1675169.000000
1676053.000000
1676892.000000
1677870.000000
1678840.000000
1679742.000000
1680599.000000
1681560.000000
1682598.000000
1683512.000000
1684416.000000
1685324.000000
1686296.000000
1687136.000000
1687953.000000
1688746.000000
1689504.000000
1690315.000000
1691408.000000
1692303.000000
1693145.000000
1694015.000000
1694920.000000
1695771.000000
1696545.000000
1697336.000000
1698194.000000
1699241.000000
1700178.000000
1700998.000000
1701866.000000
1702861.000000
1703844.000000
1704742.000000
1705662.000000
1706603.000000
1707529.000000
1708365.000000
1709226.000000
1710148.000000
1711032.000000
1711849.000000
1712683.000000
1713636.000000
1714618.000000
1715545.000000
1716366.000000
1717205.000000
1718096.000000
1718973.000000
1719794.000000
1720729.000000
1721708.000000
1722779.000000
1723675.000000
1724563.000000
1725492.000000
1726440.000000
1727292.000000
1728146.000000
1729036.000000
1729893.000000
1730680.000000
1731471.000000
1732320.000000
1733251.000000
1734138.000000
1734941.000000
1735777.000000
1736674.000000
1737588.000000
1738435.000000
1739261.000000
1740212.000000
1741158.000000
1742092.000000
1742904.000000
1743762.000000
1744608.000000
1745435.000000
1746213.000000
1747017.000000
1747888.000000
1748868.000000
1749777.000000
1750793.000000
1751792.000000
1752808.000000
1753657.000000
1754487.000000
1755354.000000
1756243.000000
1757104.000000
1757892.000000
1758671.000000
1759555.000000
1760593.000000
1761549.000000
1762436.000000
1763247.000000
1764094.000000
1764892.000000
1765630.000000
1766370.000000
1767185.000000
1768035.000000
1768827.000000
1769670.000000
1770556.000000
1771428.000000
1772231.000000
1773022.000000
1773851.000000
1774707.000000
1775556.000000
1776353.000000
1777229.000000
1778177.000000
1779102.000000
1779930.000000
1780760.000000
1781636.000000
1782579.000000
1783483.000000
1784352.000000
1785258.000000
1786176.000000
1787066.000000
1787950.000000
1788823.000000
1789702.000000
1790512.000000
1791332.000000
1792199.000000
1793118.000000
1793954.000000
1794791.000000
1795892.000000
1796919.000000
1797737.000000
1798571.000000
