ECG (ms)
305.000000
1234.000000
2151.000000
3024.000000
3926.000000
4812.000000
5664.000000
6528.000000
7500.000000
8498.000000
9400.000000
10310.000000
11269.000000
12194.000000
13149.000000
14105.000000
15003.000000
15964.000000
16989.000000
17915.000000
18896.000000
19895.000000
20800.000000
21756.000000
22744.000000
23680.000000
24636.000000
25578.000000
26523.000000
27492.000000
28409.000000
29365.000000
30274.000000
31209.000000
32197.000000
33090.000000
34038.000000
34996.000000
35886.000000
36805.000000
37704.000000
38620.000000
39563.000000
40440.000000
41354.000000
42282.000000
43180.000000
44112.000000
45052.000000
45942.000000
46889.000000
47783.000000
48719.000000
49706.000000
50591.000000
51493.000000
52426.000000
53305.000000
54216.000000
55160.000000
56048.000000
56985.000000
57929.000000
58835.000000
59775.000000
60712.000000
61610.000000
62561.000000
63464.000000
64350.000000
65271.000000
66162.000000
67093.000000
68027.000000
68921.000000
69855.000000
70781.000000
71685.000000
72627.000000
73524.000000
74418.000000
75372.000000
76253.000000
77196.000000
78233.000000
79151.000000
80090.000000
81040.000000
81939.000000
82948.000000
83932.000000
84828.000000
85697.000000
86635.000000
88084.000000
89134.000000
89981.000000
90855.000000
91731.000000
92609.000000
93538.000000
94569.000000
95502.000000
96485.000000
97479.000000
98409.000000
99397.000000
100402.000000
101366.000000
102355.000000
103261.000000
104189.000000
105152.000000
106054.000000
106980.000000
107964.000000
108837.000000
109759.000000
110698.000000
111588.000000
112522.000000
113445.000000
114326.000000
115255.000000
116186.000000
117047.000000
117945.000000
118847.000000
119692.000000
120579.000000
121471.000000
122340.000000
123248.000000
124149.000000
125016.000000
125902.000000
126805.000000
127683.000000
128582.000000
129490.000000
130347.000000
131250.000000
132207.000000
133105.000000
134049.000000
134977.000000
135854.000000
136784.000000
137737.000000
138613.000000
139510.000000
140431.000000
141316.000000
142253.000000
143225.000000
144119.000000
144980.000000
145796.000000
146839.000000
148177.000000
149289.000000
150198.000000
151025.000000
151885.000000
152794.000000
153699.000000
154659.000000
155703.000000
156691.000000
157709.000000
158685.000000
159615.000000
160562.000000
161526.000000
162422.000000
163369.000000
164369.000000
165266.000000
166237.000000
167218.000000
168118.000000
169028.000000
169931.000000
170798.000000
171707.000000
172728.000000
173660.000000
174649.000000
175634.000000
176548.000000
177489.000000
178432.000000
179307.000000
180222.000000
181153.000000
182042.000000
182980.000000
183892.000000
184762.000000
185666.000000
186561.000000
187429.000000
188339.000000
189260.000000
190135.000000
191042.000000
192000.000000
192902.000000
193791.000000
194715.000000
195673.000000
196552.000000
197457.000000
198394.000000
199281.000000
200177.000000
201126.000000
202102.000000
203016.000000
203936.000000
204876.000000
205782.000000
206717.000000
207670.000000
208561.000000
209441.000000
210342.000000
211199.000000
212033.000000
212886.000000
213909.000000
214919.000000
215860.000000
216738.000000
217650.000000
218621.000000
219539.000000
220434.000000
221342.000000
222391.000000
223849.000000
224929.000000
225853.000000
226754.000000
227640.000000
228565.000000
229511.000000
230446.000000
231354.000000
232297.000000
233257.000000
234197.000000
235154.000000
236085.000000
236966.000000
237881.000000
238843.000000
239750.000000
240661.000000
241609.000000
242523.000000
243450.000000
244404.000000
245308.000000
246227.000000
247206.000000
248109.000000
249005.000000
249936.000000
250816.000000
251709.000000
252632.000000
253534.000000
254490.000000
255436.000000
256367.000000
257334.000000
258290.000000
259191.000000
260128.000000
261064.000000
261955.000000
262870.000000
263775.000000
264666.000000
265538.000000
266448.000000
267410.000000
268350.000000
269245.000000
270191.000000
271118.000000
271982.000000
272861.000000
273775.000000
274659.000000
275603.000000
276578.000000
277480.000000
278416.000000
279365.000000
280254.000000
281164.000000
282107.000000
283046.000000
283958.000000
284894.000000
285873.000000
286792.000000
287661.000000
288555.000000
289491.000000
290398.000000
291338.000000
292296.000000
293264.000000
294192.000000
295158.000000
296108.000000
296996.000000
297910.000000
298858.000000
299755.000000
300680.000000
301645.000000
302550.000000
303480.000000
304413.000000
305305.000000
306223.000000
307230.000000
308181.000000
309123.000000
310096.000000
311002.000000
311946.000000
312948.000000
313875.000000
314860.000000
315868.000000
316812.000000
317726.000000
318651.000000
319542.000000
320411.000000
321374.000000
322296.000000
323162.000000
324047.000000
324956.000000
325806.000000
326689.000000
327614.000000
328482.000000
329400.000000
330355.000000
331240.000000
332176.000000
333164.000000
334073.000000
335034.000000
336012.000000
336929.000000
337855.000000
338796.000000
339683.000000
340580.000000
341487.000000
342374.000000
343291.000000
344266.000000
345193.000000
346219.000000
347167.000000
348088.000000
349077.000000
350008.000000
350930.000000
351881.000000
352818.000000
353703.000000
354571.000000
355493.000000
356395.000000
357288.000000
358228.000000
359120.000000
360005.000000
360973.000000
361879.000000
362778.000000
363730.000000
364643.000000
365567.000000
366527.000000
367449.000000
368398.000000
369407.000000
370351.000000
371323.000000
372365.000000
373287.000000
374209.000000
375146.000000
376033.000000
376953.000000
377884.000000
378790.000000
379692.000000
380619.000000
381502.000000
382404.000000
383336.000000
384236.000000
385225.000000
386200.000000
387106.000000
388004.000000
388951.000000
389873.000000
390755.000000
391708.000000
392620.000000
393508.000000
394502.000000
395407.000000
396307.000000
397254.000000
398206.000000
399131.000000
400109.000000
401033.000000
402001.000000
402967.000000
403877.000000
404837.000000
405781.000000
406679.000000
407614.000000
408554.000000
409483.000000
410377.000000
411284.000000
412166.000000
413073.000000
414017.000000
414904.000000
415812.000000
416724.000000
417641.000000
418514.000000
419415.000000
420318.000000
421183.000000
422082.000000
423062.000000
423970.000000
424917.000000
426363.000000
427292.000000
428144.000000
429056.000000
429954.000000
430918.000000
432414.000000
433556.000000
434659.000000
435788.000000
436701.000000
437552.000000
438468.000000
439353.000000
440269.000000
441263.000000
442151.000000
443094.000000
444538.000000
445617.000000
446591.000000
447480.000000
448390.000000
449366.000000
450284.000000
451231.000000
452218.000000
453115.000000
453975.000000
454928.000000
455960.000000
456884.000000
457746.000000
458645.000000
459539.000000
460393.000000
461275.000000
462187.000000
463069.000000
463971.000000
464914.000000
465844.000000
466773.000000
467723.000000
468634.000000
469518.000000
470400.000000
471268.000000
472158.000000
473090.000000
474018.000000
474883.000000
475765.000000
476673.000000
477525.000000
478415.000000
479328.000000
480216.000000
481130.000000
482065.000000
482950.000000
483841.000000
484751.000000
485637.000000
486548.000000
487482.000000
488378.000000
489315.000000
490257.000000
491141.000000
492009.000000
492918.000000
493882.000000
494758.000000
495684.000000
496640.000000
497525.000000
498454.000000
499392.000000
500289.000000
501243.000000
502154.000000
503035.000000
503968.000000
504954.000000
505858.000000
506763.000000
507709.000000
508624.000000
509510.000000
510441.000000
511330.000000
512231.000000
513145.000000
514001.000000
514863.000000
515715.000000
516590.000000
517512.000000
518411.000000
519283.000000
520273.000000
521193.000000
522029.000000
522846.000000
523626.000000
524495.000000
525364.000000
526191.000000
527057.000000
528041.000000
529022.000000
529931.000000
530902.000000
531870.000000
532788.000000
533783.000000
534826.000000
535782.000000
536796.000000
538271.000000
539434.000000
540459.000000
541397.000000
542304.000000
543312.000000
544358.000000
545430.000000
546357.000000
547302.000000
548780.000000
549776.000000
550680.000000
551602.000000
552461.000000
553354.000000
554405.000000
555300.000000
556186.000000
557143.000000
558134.000000
559016.000000
559886.000000
560820.000000
561778.000000
562680.000000
563526.000000
564361.000000
565285.000000
566156.000000
566945.000000
567751.000000
568589.000000
569454.000000
570383.000000
571296.000000
572163.000000
573061.000000
574003.000000
574911.000000
575810.000000
576754.000000
577698.000000
578582.000000
579501.000000
580436.000000
581332.000000
582252.000000
583205.000000
584111.000000
585076.000000
586163.000000
587101.000000
587989.000000
588894.000000
589820.000000
590721.000000
591605.000000
592516.000000
593423.000000
594306.000000
595229.000000
596176.000000
597129.000000
598113.000000
599105.000000
600021.000000
600975.000000
601900.000000
602812.000000
603749.000000
604665.000000
605575.000000
606514.000000
607493.000000
608397.000000
609308.000000
610209.000000
611040.000000
611856.000000
612744.000000
613686.000000
614567.000000
615474.000000
616488.000000
617472.000000
618360.000000
619266.000000
620305.000000
621233.000000
622184.000000
623376.000000
624413.000000
625635.000000
626976.000000
628377.000000
629685.000000
630621.000000
631505.000000
632415.000000
633328.000000
634264.000000
635757.000000
637001.000000
638057.000000
638948.000000
639884.000000
641359.000000
642356.000000
643197.000000
644072.000000
645004.000000
645919.000000
646945.000000
648466.000000
649875.000000
651193.000000
652070.000000
652902.000000
653838.000000
654773.000000
655784.000000
656894.000000
657928.000000
659370.000000
660350.000000
661218.000000
662126.000000
663020.000000
663981.000000
665074.000000
666022.000000
667496.000000
668915.000000
669826.000000
670685.000000
671585.000000
672457.000000
673334.000000
674360.000000
675314.000000
676244.000000
677289.000000
678224.000000
679214.000000
680658.000000
681657.000000
682607.000000
683552.000000
684461.000000
685403.000000
686379.000000
687301.000000
688350.000000
689426.000000
690393.000000
691418.000000
692853.000000
694088.000000
695201.000000
696276.000000
697165.000000
698004.000000
698878.000000
699835.000000
700743.000000
701690.000000
702717.000000
703678.000000
704648.000000
705867.000000
706849.000000
707735.000000
708709.000000
709734.000000
710658.000000
711688.000000
712720.000000
713632.000000
714555.000000
715748.000000
716766.000000
717749.000000
719185.000000
720121.000000
721004.000000
721895.000000
722746.000000
723624.000000
724600.000000
725493.000000
726405.000000
727386.000000
728289.000000
729220.000000
730201.000000
731097.000000
732032.000000
733062.000000
733961.000000
734815.000000
735712.000000
736715.000000
737723.000000
738623.000000
739524.000000
740462.000000
741351.000000
742215.000000
743115.000000
744057.000000
744946.000000
745791.000000
746665.000000
747574.000000
748442.000000
749330.000000
750239.000000
751124.000000
752044.000000
753042.000000
753940.000000
754820.000000
755702.000000
756554.000000
757416.000000
758307.000000
759182.000000
760045.000000
760927.000000
761844.000000
762746.000000
763625.000000
764504.000000
765358.000000
766232.000000
767119.000000
767983.000000
768837.000000
769696.000000
770548.000000
771385.000000
772246.000000
773144.000000
774030.000000
774915.000000
775793.000000
776621.000000
777448.000000
778302.000000
779179.000000
780018.000000
780902.000000
781807.000000
782673.000000
783536.000000
784428.000000
785280.000000
786132.000000
787017.000000
787900.000000
788757.000000
789637.000000
790564.000000
791432.000000
792314.000000
793240.000000
794117.000000
794971.000000
795873.000000
796799.000000
797690.000000
798566.000000
799470.000000
800355.000000
801234.000000
802142.000000
803070.000000
803940.000000
804827.000000
805767.000000
806703.000000
807601.000000
808516.000000
809431.000000
810318.000000
811224.000000
812160.000000
813072.000000
813969.000000
814906.000000
815808.000000
816691.000000
817613.000000
818583.000000
819490.000000
820384.000000
821331.000000
822288.000000
823185.000000
824126.000000
825085.000000
825985.000000
826903.000000
827875.000000
828788.000000
829693.000000
830611.000000
831512.000000
832543.000000
833479.000000
834324.000000
835165.000000
836075.000000
836947.000000
837819.000000
838749.000000
839639.000000
840517.000000
841442.000000
842345.000000
843214.000000
844125.000000
845001.000000
845875.000000
846797.000000
847684.000000
848616.000000
849572.000000
850488.000000
851429.000000
852346.000000
853210.000000
854102.000000
855012.000000
855871.000000
856731.000000
857618.000000
858480.000000
859333.000000
860219.000000
861088.000000
861955.000000
862822.000000
863677.000000
864515.000000
865297.000000
866084.000000
867015.000000
867944.000000
868851.000000
869740.000000
870595.000000
871424.000000
872251.000000
873112.000000
874077.000000
875049.000000
875988.000000
876874.000000
877763.000000
878659.000000
879534.000000
880437.000000
881357.000000
882251.000000
883163.000000
884085.000000
885005.000000
885915.000000
886864.000000
887788.000000
888670.000000
889567.000000
890457.000000
891318.000000
892203.000000
893124.000000
894020.000000
894942.000000
895968.000000
896888.000000
897739.000000
898610.000000
899523.000000
900377.000000
901278.000000
902204.000000
903070.000000
903999.000000
905024.000000
905972.000000
906933.000000
907898.000000
908777.000000
909661.000000
910572.000000
911430.000000
912309.000000
913215.000000
914083.000000
914963.000000
915858.000000
916717.000000
917605.000000
918514.000000
919388.000000
920275.000000
921196.000000
922087.000000
922994.000000
923932.000000
924802.000000
925645.000000
926505.000000
927391.000000
928266.000000
929145.000000
930041.000000
930926.000000
931832.000000
932780.000000
933713.000000
934636.000000
935592.000000
936497.000000
937352.000000
938239.000000
939182.000000
940087.000000
940985.000000
941916.000000
942771.000000
943617.000000
944492.000000
945328.000000
946144.000000
946978.000000
947833.000000
948656.000000
949493.000000
950355.000000
951222.000000
952088.000000
952973.000000
953813.000000
954657.000000
955507.000000
956366.000000
957210.000000
958076.000000
958980.000000
959866.000000
960778.000000
961683.000000
962544.000000
963398.000000
964277.000000
965158.000000
966029.000000
966919.000000
967804.000000
968645.000000
969511.000000
970397.000000
971269.000000
972149.000000
973055.000000
973915.000000
974761.000000
975633.000000
976511.000000
977360.000000
978231.000000
979128.000000
979981.000000
980842.000000
981744.000000
982616.000000
983512.000000
984454.000000
985342.000000
986277.000000
987262.000000
988183.000000
989103.000000
990050.000000
990956.000000
991840.000000
992777.000000
993737.000000
994625.000000
995547.000000
996490.000000
997389.000000
998319.000000
999268.000000
1000237.000000
1001220.000000
1002144.000000
1003019.000000
1003916.000000
1004833.000000
1005695.000000
1006574.000000
1007489.000000
1008352.000000
1009242.000000
1010162.000000
1011057.000000
1011986.000000
1012976.000000
1013911.000000
1014824.000000
1015772.000000
1016692.000000
1017637.000000
1018620.000000
1019599.000000
1020494.000000
1021394.000000
1022310.000000
1023188.000000
1024108.000000
1025067.000000
1025969.000000
1026885.000000
1027810.000000
1028696.000000
1029612.000000
1030557.000000
1031447.000000
1032355.000000
1033329.000000
1034253.000000
1035161.000000
1036106.000000
1037054.000000
1037963.000000
1038790.000000
1039626.000000
1040498.000000
1041354.000000
1042231.000000
1043190.000000
1044087.000000
1045004.000000
1045996.000000
1046890.000000
1047810.000000
1048781.000000
1049700.000000
1050775.000000
1052178.000000
1053114.000000
1053976.000000
1054828.000000
1055651.000000
1056502.000000
1057392.000000
1058258.000000
1059187.000000
1060139.000000
1061120.000000
1062024.000000
1062898.000000
1063799.000000
1064682.000000
1065539.000000
1066425.000000
1067339.000000
1068205.000000
1069093.000000
1070005.000000
1070870.000000
1071732.000000
1072630.000000
1073518.000000
1074420.000000
1075373.000000
1076274.000000
1077198.000000
1078154.000000
1079065.000000
1079929.000000
1080830.000000
1081724.000000
1082597.000000
1083436.000000
1084298.000000
1085173.000000
1086023.000000
1086869.000000
1087772.000000
1088725.000000
1089686.000000
1090554.000000
1091428.000000
1092335.000000
1093240.000000
1094146.000000
1095091.000000
1096010.000000
1096904.000000
1097823.000000
1098739.000000
1099645.000000
1100597.000000
1101563.000000
1102467.000000
1103429.000000
1104335.000000
1105187.000000
1106030.000000
1106904.000000
1107766.000000
1108628.000000
1109533.000000
1110462.000000
1111352.000000
1112249.000000
1113163.000000
1114059.000000
1114958.000000
1115887.000000
1116787.000000
1117632.000000
1118485.000000
1119369.000000
1120236.000000
1121115.000000
1122021.000000
1122888.000000
1123755.000000
1124673.000000
1125579.000000
1126484.000000
1127392.000000
1128329.000000
1129198.000000
1130121.000000
1131085.000000
1132004.000000
1132927.000000
1133886.000000
1134785.000000
1135707.000000
1136650.000000
1137559.000000
1138499.000000
1139445.000000
1140325.000000
1141208.000000
1142114.000000
1143040.000000
1143937.000000
1144873.000000
1145832.000000
1146750.000000
1147633.000000
1148562.000000
1149491.000000
1150381.000000
1151292.000000
1152282.000000
1153227.000000
1154129.000000
1155085.000000
1155997.000000
1156857.000000
1157714.000000
1158600.000000
1159460.000000
1160315.000000
1161191.000000
1162040.000000
1162850.000000
1163665.000000
1164507.000000
1165342.000000
1166148.000000
1166940.000000
1167766.000000
1168598.000000
1169421.000000
1170262.000000
1171107.000000
1171920.000000
1172744.000000
1173590.000000
1174420.000000
1175261.000000
1176125.000000
1176967.000000
1177809.000000
1178666.000000
1179512.000000
1180330.000000
1181157.000000
1181992.000000
1182806.000000
1183625.000000
1184456.000000
1185281.000000
1186092.000000
1186906.000000
1187738.000000
1188559.000000
1189379.000000
1190207.000000
1191024.000000
1191847.000000
1192705.000000
1193580.000000
1194458.000000
1195388.000000
1196297.000000
1197157.000000
1197987.000000
1198859.000000
1199757.000000
1200619.000000
1201462.000000
1202327.000000
1203171.000000
1204012.000000
1204882.000000
1205718.000000
1206508.000000
