ECG (ms)
234.000000
1052.000000
1946.000000
2785.000000
3593.000000
4437.000000
5306.000000
6134.000000
6930.000000
7740.000000
8595.000000
9468.000000
10273.000000
11062.000000
11881.000000
12753.000000
13552.000000
14356.000000
15174.000000
15950.000000
16740.000000
17551.000000
18367.000000
19164.000000
19974.000000
20775.000000
21517.000000
22239.000000
23015.000000
23777.000000
24570.000000
25408.000000
26200.000000
27003.000000
27825.000000
28607.000000
29394.000000
30213.000000
31064.000000
31855.000000
32682.000000
33489.000000
34261.000000
35033.000000
35829.000000
36652.000000
37430.000000
38211.000000
39039.000000
39842.000000
40641.000000
41450.000000
42242.000000
43031.000000
43845.000000
44644.000000
45434.000000
46239.000000
47109.000000
47925.000000
48740.000000
49607.000000
50466.000000
51292.000000
52142.000000
52955.000000
53763.000000
54574.000000
55376.000000
56156.000000
56959.000000
57808.000000
58619.000000
59402.000000
60207.000000
61024.000000
61808.000000
62603.000000
63411.000000
64183.000000
64948.000000
65730.000000
66534.000000
67277.000000
67992.000000
68681.000000
69384.000000
70140.000000
70891.000000
71668.000000
72481.000000
73309.000000
74097.000000
74898.000000
75780.000000
76623.000000
77468.000000
78300.000000
79105.000000
79934.000000
80820.000000
81646.000000
82497.000000
83333.000000
84125.000000
84943.000000
85762.000000
86546.000000
87335.000000
88114.000000
88860.000000
89598.000000
90299.000000
91001.000000
91747.000000
92544.000000
93377.000000
94179.000000
94934.000000
95682.000000
96404.000000
97138.000000
97874.000000
98593.000000
99283.000000
100008.000000
100759.000000
101522.000000
102307.000000
103128.000000
103914.000000
104707.000000
105491.000000
106248.000000
107025.000000
107820.000000
108600.000000
109361.000000
110135.000000
110935.000000
111734.000000
112497.000000
113269.000000
114060.000000
114836.000000
115611.000000
116389.000000
117175.000000
117929.000000
118657.000000
119401.000000
120225.000000
121120.000000
122001.000000
122856.000000
123668.000000
124480.000000
125285.000000
126066.000000
126932.000000
127854.000000
128726.000000
129547.000000
130364.000000
131160.000000
131930.000000
132726.000000
133538.000000
134342.000000
135124.000000
135916.000000
136712.000000
137469.000000
138241.000000
139037.000000
139805.000000
140577.000000
141368.000000
142166.000000
142932.000000
143699.000000
144488.000000
145252.000000
146026.000000
146832.000000
147610.000000
148371.000000
149159.000000
149951.000000
150724.000000
151511.000000
152317.000000
153149.000000
153947.000000
154739.000000
155584.000000
156396.000000
157177.000000
157964.000000
158795.000000
159649.000000
160462.000000
161327.000000
162218.000000
163048.000000
163839.000000
164637.000000
165440.000000
166229.000000
167007.000000
167816.000000
168651.000000
169434.000000
170230.000000
171039.000000
171825.000000
172616.000000
173434.000000
174226.000000
175026.000000
175853.000000
176657.000000
177460.000000
178289.000000
179114.000000
179910.000000
180723.000000
181534.000000
182325.000000
183157.000000
183981.000000
184793.000000
185632.000000
186446.000000
187259.000000
188114.000000
188909.000000
189715.000000
190553.000000
191354.000000
192156.000000
192997.000000
193790.000000
194593.000000
195421.000000
196213.000000
197030.000000
197887.000000
198681.000000
199506.000000
200345.000000
201148.000000
201964.000000
202801.000000
203599.000000
204404.000000
205248.000000
206047.000000
206861.000000
207678.000000
208457.000000
209238.000000
210087.000000
210964.000000
211772.000000
212576.000000
213414.000000
214189.000000
214972.000000
215777.000000
216560.000000
217342.000000
218145.000000
218947.000000
219700.000000
220467.000000
221235.000000
221966.000000
222676.000000
223364.000000
224051.000000
224807.000000
225582.000000
226338.000000
227124.000000
227948.000000
228737.000000
229542.000000
230345.000000
231121.000000
231910.000000
232715.000000
233554.000000
234334.000000
235116.000000
235924.000000
236770.000000
237552.000000
238346.000000
239161.000000
239944.000000
240746.000000
241585.000000
242416.000000
243226.000000
244095.000000
244931.000000
245721.000000
246549.000000
247429.000000
248261.000000
249137.000000
250018.000000
250857.000000
251726.000000
252576.000000
253387.000000
254248.000000
255105.000000
255941.000000
256822.000000
257646.000000
258436.000000
259243.000000
260063.000000
260845.000000
261637.000000
262453.000000
263245.000000
264036.000000
264866.000000
265715.000000
266518.000000
267288.000000
268080.000000
268919.000000
269768.000000
270571.000000
271394.000000
272261.000000
273066.000000
273886.000000
274790.000000
275637.000000
276482.000000
277339.000000
278161.000000
278999.000000
279871.000000
280670.000000
281487.000000
282355.000000
283180.000000
284014.000000
284902.000000
285715.000000
286543.000000
287366.000000
288171.000000
288995.000000
289800.000000
290588.000000
291443.000000
292269.000000
293072.000000
293905.000000
294692.000000
295476.000000
296279.000000
297061.000000
297815.000000
298548.000000
299250.000000
299996.000000
300872.000000
301679.000000
302504.000000
303333.000000
304141.000000
304969.000000
305786.000000
306572.000000
307394.000000
308239.000000
309040.000000
309893.000000
310766.000000
311581.000000
312407.000000
313232.000000
314035.000000
314859.000000
315669.000000
316450.000000
317248.000000
318078.000000
318908.000000
319721.000000
320551.000000
321370.000000
322161.000000
322973.000000
323829.000000
324655.000000
325459.000000
326287.000000
327092.000000
327871.000000
328666.000000
329453.000000
330215.000000
331003.000000
331795.000000
332580.000000
333360.000000
334173.000000
335001.000000
335798.000000
336630.000000
337512.000000
338322.000000
339133.000000
339947.000000
340728.000000
341535.000000
342406.000000
343208.000000
344030.000000
344869.000000
345685.000000
346531.000000
347394.000000
348197.000000
349027.000000
349850.000000
350662.000000
351504.000000
352384.000000
353204.000000
354035.000000
354914.000000
355737.000000
356583.000000
357440.000000
358269.000000
359123.000000
360023.000000
360856.000000
361727.000000
362599.000000
363395.000000
364178.000000
365003.000000
365873.000000
366679.000000
367482.000000
368312.000000
369116.000000
369965.000000
370801.000000
371611.000000
372453.000000
373282.000000
374088.000000
374936.000000
375756.000000
376582.000000
377449.000000
378289.000000
379131.000000
380007.000000
380813.000000
381633.000000
382486.000000
383302.000000
384141.000000
385004.000000
385832.000000
386699.000000
387524.000000
388356.000000
389208.000000
390052.000000
390906.000000
391746.000000
392562.000000
393399.000000
394223.000000
395057.000000
395936.000000
396741.000000
397523.000000
398312.000000
399112.000000
399892.000000
400723.000000
401643.000000
402465.000000
403295.000000
404130.000000
404925.000000
405752.000000
406583.000000
407369.000000
408170.000000
408976.000000
409755.000000
410576.000000
411440.000000
412246.000000
413067.000000
413934.000000
414758.000000
415593.000000
416437.000000
417238.000000
418046.000000
418878.000000
419713.000000
420521.000000
421358.000000
422189.000000
422994.000000
423815.000000
424610.000000
425352.000000
426071.000000
426760.000000
427485.000000
428286.000000
429051.000000
429855.000000
430672.000000
431447.000000
432249.000000
433081.000000
433885.000000
434696.000000
435510.000000
436332.000000
437116.000000
437931.000000
438790.000000
439593.000000
440427.000000
441299.000000
442145.000000
442955.000000
443768.000000
444558.000000
445344.000000
446151.000000
446984.000000
447792.000000
448615.000000
449419.000000
450205.000000
450993.000000
451771.000000
452539.000000
453314.000000
454119.000000
454888.000000
455632.000000
456411.000000
457192.000000
457958.000000
458757.000000
459548.000000
460342.000000
461157.000000
461941.000000
462725.000000
463518.000000
464295.000000
465110.000000
465903.000000
466694.000000
467497.000000
468278.000000
469053.000000
469855.000000
470659.000000
471444.000000
472244.000000
473071.000000
473847.000000
474620.000000
475401.000000
476179.000000
476967.000000
477796.000000
478616.000000
479397.000000
480202.000000
481002.000000
481811.000000
482634.000000
483537.000000
484391.000000
485221.000000
486100.000000
486918.000000
487734.000000
488609.000000
489473.000000
490335.000000
491239.000000
492101.000000
492946.000000
493836.000000
494712.000000
495604.000000
496539.000000
497376.000000
498227.000000
499099.000000
499927.000000
500741.000000
501591.000000
502504.000000
503328.000000
504151.000000
504999.000000
505817.000000
506620.000000
507392.000000
508117.000000
508832.000000
509572.000000
510386.000000
511284.000000
512097.000000
512943.000000
513758.000000
514553.000000
515379.000000
516177.000000
516974.000000
517808.000000
518615.000000
519457.000000
520310.000000
521129.000000
522000.000000
522850.000000
523650.000000
524468.000000
525261.000000
526044.000000
526814.000000
527644.000000
528597.000000
529481.000000
530305.000000
531152.000000
532013.000000
532779.000000
533527.000000
534244.000000
534975.000000
535952.000000
536882.000000
537753.000000
538660.000000
539543.000000
540365.000000
541191.000000
542057.000000
542885.000000
543774.000000
544640.000000
545461.000000
546319.000000
547246.000000
548087.000000
548948.000000
549872.000000
550710.000000
551559.000000
552408.000000
553235.000000
554051.000000
554917.000000
555794.000000
556621.000000
557456.000000
558293.000000
559094.000000
559922.000000
560736.000000
561545.000000
562408.000000
563310.000000
564123.000000
564941.000000
565803.000000
566625.000000
567489.000000
568362.000000
569178.000000
569974.000000
570806.000000
571627.000000
572466.000000
573335.000000
574148.000000
575010.000000
575908.000000
576738.000000
577545.000000
578328.000000
579118.000000
579937.000000
580754.000000
581579.000000
582436.000000
583313.000000
584177.000000
585086.000000
585966.000000
586797.000000
587667.000000
588534.000000
589377.000000
590253.000000
591137.000000
591960.000000
592796.000000
593632.000000
594446.000000
595277.000000
596119.000000
596939.000000
597786.000000
598642.000000
599457.000000
600261.000000
601109.000000
601973.000000
602789.000000
603643.000000
604488.000000
605297.000000
606137.000000
606968.000000
607783.000000
608623.000000
609468.000000
610311.000000
611197.000000
612057.000000
612894.000000
613759.000000
614631.000000
615460.000000
616283.000000
617184.000000
618067.000000
618902.000000
619770.000000
620657.000000
621491.000000
622338.000000
623165.000000
623998.000000
624877.000000
625689.000000
626498.000000
627360.000000
628199.000000
629036.000000
629956.000000
630826.000000
631639.000000
632506.000000
633449.000000
634282.000000
635127.000000
635974.000000
636783.000000
637569.000000
638422.000000
639234.000000
640037.000000
640876.000000
641728.000000
642529.000000
643347.000000
644131.000000
644904.000000
645718.000000
646588.000000
647406.000000
648261.000000
649080.000000
649869.000000
650687.000000
651453.000000
652194.000000
652930.000000
653703.000000
654538.000000
655297.000000
656024.000000
656802.000000
657589.000000
658410.000000
659253.000000
660137.000000
661002.000000
661809.000000
662608.000000
663408.000000
664216.000000
665009.000000
665833.000000
666744.000000
667582.000000
668423.000000
669258.000000
670063.000000
670901.000000
671831.000000
672718.000000
673595.000000
674495.000000
675401.000000
676254.000000
677150.000000
678035.000000
678879.000000
679753.000000
680631.000000
681473.000000
682371.000000
683312.000000
684162.000000
685067.000000
685993.000000
686825.000000
687663.000000
688578.000000
689409.000000
690238.000000
691122.000000
691999.000000
692852.000000
693720.000000
694589.000000
695420.000000
696248.000000
697076.000000
697898.000000
698750.000000
699651.000000
700477.000000
701302.000000
702189.000000
703066.000000
703913.000000
704778.000000
705596.000000
706412.000000
707239.000000
708053.000000
708866.000000
709708.000000
710553.000000
711368.000000
712235.000000
713090.000000
713881.000000
714692.000000
715517.000000
716303.000000
717108.000000
717949.000000
718760.000000
719592.000000
720406.000000
721183.000000
721977.000000
722786.000000
723553.000000
724351.000000
725168.000000
725952.000000
726756.000000
727557.000000
728341.000000
729135.000000
729964.000000
730751.000000
731563.000000
732394.000000
733205.000000
734021.000000
734878.000000
735664.000000
736428.000000
737221.000000
738041.000000
738827.000000
739648.000000
740501.000000
741309.000000
742130.000000
742969.000000
743771.000000
744583.000000
745424.000000
746274.000000
747063.000000
747883.000000
748714.000000
749520.000000
750329.000000
751153.000000
751960.000000
752783.000000
753634.000000
754541.000000
755363.000000
756183.000000
757036.000000
757890.000000
758694.000000
759518.000000
760374.000000
761203.000000
762059.000000
762894.000000
763714.000000
764537.000000
765377.000000
766171.000000
766987.000000
767850.000000
768672.000000
769477.000000
770296.000000
771177.000000
772015.000000
772855.000000
773702.000000
774506.000000
775307.000000
776165.000000
777001.000000
777806.000000
778661.000000
779515.000000
780317.000000
781147.000000
781959.000000
782754.000000
783589.000000
784415.000000
785230.000000
786092.000000
786941.000000
787771.000000
788645.000000
789502.000000
790333.000000
791172.000000
791991.000000
792810.000000
793648.000000
794531.000000
795344.000000
796166.000000
797002.000000
797818.000000
798688.000000
799552.000000
800372.000000
801191.000000
802009.000000
802834.000000
803717.000000
804554.000000
805396.000000
806254.000000
807072.000000
807886.000000
808715.000000
809515.000000
810327.000000
811131.000000
811940.000000
812793.000000
813643.000000
814439.000000
815274.000000
816098.000000
816896.000000
817727.000000
818528.000000
819342.000000
820181.000000
820973.000000
821779.000000
822642.000000
823453.000000
824277.000000
825117.000000
825927.000000
826765.000000
827581.000000
828367.000000
829186.000000
830016.000000
830823.000000
831658.000000
832474.000000
833279.000000
834107.000000
834905.000000
835683.000000
836480.000000
837319.000000
838117.000000
838899.000000
839706.000000
840507.000000
841304.000000
842116.000000
842986.000000
843801.000000
844615.000000
845431.000000
846230.000000
847080.000000
847908.000000
848683.000000
849456.000000
850264.000000
851101.000000
851901.000000
852689.000000
853486.000000
854254.000000
855044.000000
855820.000000
856580.000000
857355.000000
858156.000000
858965.000000
859758.000000
860579.000000
861429.000000
862221.000000
863019.000000
863811.000000
864571.000000
865346.000000
866153.000000
866955.000000
867721.000000
868500.000000
869297.000000
870061.000000
870839.000000
871635.000000
872418.000000
873222.000000
874040.000000
874825.000000
875630.000000
876441.000000
877241.000000
878066.000000
878885.000000
879668.000000
880496.000000
881347.000000
882145.000000
882948.000000
883747.000000
884526.000000
885350.000000
886218.000000
887048.000000
887906.000000
888727.000000
889544.000000
890373.000000
891172.000000
891994.000000
892852.000000
893676.000000
894534.000000
895395.000000
896222.000000
897075.000000
897937.000000
898740.000000
899538.000000
900427.000000
901331.000000
902144.000000
902976.000000
903924.000000
904753.000000
905596.000000
906443.000000
907260.000000
908136.000000
909028.000000
909885.000000
910788.000000
911642.000000
912467.000000
913313.000000
914155.000000
914974.000000
915815.000000
916625.000000
917458.000000
918346.000000
919189.000000
920067.000000
920938.000000
921740.000000
922557.000000
923366.000000
924159.000000
924990.000000
925789.000000
926567.000000
927358.000000
928164.000000
928945.000000
929741.000000
930541.000000
931328.000000
932138.000000
932951.000000
933732.000000
934557.000000
935349.000000
936129.000000
936939.000000
937757.000000
938576.000000
939414.000000
940233.000000
941010.000000
941804.000000
942639.000000
943451.000000
944272.000000
945092.000000
945866.000000
946619.000000
947399.000000
948247.000000
949065.000000
949841.000000
950643.000000
951407.000000
952180.000000
952924.000000
953651.000000
954346.000000
955034.000000
955737.000000
956446.000000
957156.000000
957892.000000
958620.000000
959334.000000
960028.000000
960772.000000
961582.000000
962405.000000
963256.000000
964064.000000
964831.000000
965605.000000
966358.000000
967097.000000
967808.000000
968566.000000
969435.000000
970329.000000
971197.000000
972019.000000
972810.000000
973569.000000
974331.000000
975122.000000
975973.000000
976820.000000
977614.000000
978425.000000
979248.000000
980121.000000
980932.000000
981762.000000
982614.000000
983423.000000
984219.000000
985030.000000
985869.000000
986691.000000
987516.000000
988337.000000
989144.000000
989926.000000
990721.000000
991541.000000
992342.000000
993156.000000
993991.000000
994820.000000
995616.000000
996410.000000
997209.000000
998001.000000
998841.000000
999701.000000
1000516.000000
1001361.000000
1002212.000000
1003011.000000
1003820.000000
1004636.000000
1005461.000000
1006308.000000
1007154.000000
1007958.000000
1008784.000000
1009610.000000
1010408.000000
1011232.000000
1012076.000000
1012882.000000
1013708.000000
1014548.000000
1015328.000000
1016119.000000
1016945.000000
1017750.000000
1018581.000000
1019429.000000
1020245.000000
1021071.000000
1021949.000000
1022768.000000
1023587.000000
1024405.000000
1025228.000000
1026020.000000
1026851.000000
1027698.000000
1028493.000000
1029319.000000
1030166.000000
1030960.000000
1031771.000000
1032588.000000
1033380.000000
1034197.000000
1035023.000000
1035813.000000
1036641.000000
1037475.000000
1038267.000000
1039093.000000
1039981.000000
1040809.000000
1041636.000000
1042516.000000
1043342.000000
1044167.000000
1045012.000000
1045815.000000
1046617.000000
1047484.000000
1048317.000000
1049151.000000
1050012.000000
1050841.000000
1051660.000000
1052507.000000
1053321.000000
1054124.000000
1054945.000000
1055768.000000
1056552.000000
1057345.000000
1058150.000000
1058979.000000
1059758.000000
1060547.000000
1061304.000000
1062074.000000
1062870.000000
1063756.000000
1064568.000000
1065385.000000
1066202.000000
1066986.000000
1067785.000000
1068634.000000
1069432.000000
1070265.000000
1071104.000000
1071926.000000
1072748.000000
1073570.000000
1074372.000000
1075151.000000
1075952.000000
1076761.000000
1077546.000000
1078350.000000
1079202.000000
1080069.000000
1080883.000000
1081723.000000
1082536.000000
1083307.000000
1084110.000000
1084940.000000
1085741.000000
1086543.000000
1087379.000000
1088161.000000
1088962.000000
1089796.000000
1090589.000000
1091352.000000
1092146.000000
1092968.000000
1093743.000000
1094500.000000
1095270.000000
1096070.000000
1096882.000000
1097665.000000
1098444.000000
1099246.000000
1099987.000000
1100694.000000
1101415.000000
1102151.000000
1102919.000000
1103717.000000
1104548.000000
1105330.000000
1106111.000000
1106894.000000
1107690.000000
1108467.000000
1109247.000000
1110051.000000
1110841.000000
1111663.000000
1112483.000000
1113275.000000
1114084.000000
1114902.000000
1115730.000000
1116543.000000
1117398.000000
1118256.000000
1119056.000000
1119880.000000
1120739.000000
1121550.000000
1122392.000000
1123258.000000
1124076.000000
1124925.000000
1125774.000000
1126597.000000
1127437.000000
1128287.000000
1129077.000000
1129895.000000
1130722.000000
1131509.000000
1132320.000000
1133144.000000
1133934.000000
1134738.000000
1135540.000000
1136317.000000
1137121.000000
1137974.000000
1138761.000000
1139577.000000
1140408.000000
1141209.000000
1142023.000000
1142838.000000
1143634.000000
1144450.000000
1145303.000000
1146108.000000
1146938.000000
1147808.000000
1148614.000000
1149432.000000
1150296.000000
1151104.000000
1151921.000000
1152754.000000
1153547.000000
1154346.000000
1155153.000000
1155942.000000
1156769.000000
1157603.000000
1158420.000000
1159224.000000
1160028.000000
1160804.000000
1161582.000000
1162361.000000
1163117.000000
1163912.000000
1164718.000000
1165498.000000
1166317.000000
1167138.000000
1167927.000000
1168747.000000
1169555.000000
1170348.000000
1171171.000000
1172007.000000
1172805.000000
1173611.000000
1174448.000000
1175238.000000
1176091.000000
1177003.000000
1177833.000000
1178653.000000
1179505.000000
1180316.000000
1181137.000000
1182024.000000
1182925.000000
1183774.000000
1184643.000000
1185487.000000
1186314.000000
1187169.000000
1188037.000000
1188872.000000
1189716.000000
1190567.000000
1191373.000000
1192192.000000
1193051.000000
1193872.000000
1194673.000000
1195424.000000
1196139.000000
1196894.000000
1197690.000000
1198515.000000
1199362.000000
1200171.000000
1200990.000000
1201805.000000
1202597.000000
1203420.000000
1204252.000000
1205053.000000
