ECG (ms)
46.000000
814.000000
1597.000000
2382.000000
3178.000000
3988.000000
4816.000000
5662.000000
6514.000000
7352.000000
8182.000000
9005.000000
9810.000000
10592.000000
11365.000000
12134.000000
12900.000000
13662.000000
14414.000000
15161.000000
15893.000000
16618.000000
17337.000000
18064.000000
18786.000000
19513.000000
20241.000000
20970.000000
21693.000000
22412.000000
23132.000000
23871.000000
24629.000000
25430.000000
26249.000000
27067.000000
27926.000000
28787.000000
29659.000000
30513.000000
31359.000000
32183.000000
32985.000000
33763.000000
34539.000000
35309.000000
36075.000000
36843.000000
37631.000000
38423.000000
39225.000000
40021.000000
40822.000000
41631.000000
42443.000000
43245.000000
44042.000000
44842.000000
45628.000000
46412.000000
47170.000000
47949.000000
48754.000000
49568.000000
50370.000000
51171.000000
51962.000000
52744.000000
53512.000000
54275.000000
55040.000000
55809.000000
56577.000000
57346.000000
58116.000000
58903.000000
59687.000000
60486.000000
61285.000000
62080.000000
62884.000000
63690.000000
64505.000000
65305.000000
66100.000000
66889.000000
67686.000000
68491.000000
69298.000000
70098.000000
70905.000000
71712.000000
72511.000000
73306.000000
74091.000000
74874.000000
75656.000000
76454.000000
77258.000000
78061.000000
78846.000000
79630.000000
80405.000000
81170.000000
81939.000000
82712.000000
83483.000000
84262.000000
85037.000000
85802.000000
86584.000000
87365.000000
88145.000000
88928.000000
89711.000000
90508.000000
91312.000000
92113.000000
92922.000000
93730.000000
94531.000000
95331.000000
96116.000000
96891.000000
97661.000000
98442.000000
99229.000000
100027.000000
100830.000000
101622.000000
102425.000000
103223.000000
104027.000000
104823.000000
105610.000000
106400.000000
107187.000000
107970.000000
108743.000000
109522.000000
110301.000000
111093.000000
111886.000000
112681.000000
113492.000000
114317.000000
115155.000000
115988.000000
116806.000000
117613.000000
118421.000000
119222.000000
120023.000000
120817.000000
121607.000000
122411.000000
123195.000000
123995.000000
124780.000000
125562.000000
126333.000000
127104.000000
127875.000000
128647.000000
129417.000000
130186.000000
130942.000000
131693.000000
132452.000000
133217.000000
133997.000000
134776.000000
135553.000000
136344.000000
137145.000000
137962.000000
138759.000000
139549.000000
140336.000000
141125.000000
141915.000000
142699.000000
143478.000000
144263.000000
145056.000000
145841.000000
146628.000000
147422.000000
148214.000000
149009.000000
149790.000000
150563.000000
151347.000000
152132.000000
152920.000000
153701.000000
154477.000000
155247.000000
156019.000000
156824.000000
157644.000000
158459.000000
159276.000000
160089.000000
160890.000000
161695.000000
162500.000000
163297.000000
164087.000000
164873.000000
165648.000000
166419.000000
167183.000000
167942.000000
168706.000000
169476.000000
170267.000000
171063.000000
171867.000000
172664.000000
173463.000000
174250.000000
175020.000000
175775.000000
176537.000000
177301.000000
178066.000000
178828.000000
179584.000000
180346.000000
181120.000000
181909.000000
182701.000000
183499.000000
184316.000000
185143.000000
185998.000000
186867.000000
187734.000000
188585.000000
189425.000000
190255.000000
191063.000000
191878.000000
192689.000000
193499.000000
194308.000000
195101.000000
195893.000000
196693.000000
197499.000000
198318.000000
199146.000000
199971.000000
200797.000000
201618.000000
202452.000000
203291.000000
204133.000000
204963.000000
205824.000000
206691.000000
207555.000000
208406.000000
209246.000000
210052.000000
210855.000000
211666.000000
212475.000000
213285.000000
214095.000000
214910.000000
215761.000000
216630.000000
217518.000000
218412.000000
219339.000000
220280.000000
221198.000000
222120.000000
223036.000000
223920.000000
224801.000000
225663.000000
226511.000000
227340.000000
228144.000000
228958.000000
229769.000000
230568.000000
231372.000000
232163.000000
232967.000000
233753.000000
234528.000000
235314.000000
236099.000000
236892.000000
237695.000000
238505.000000
239310.000000
240114.000000
240925.000000
241726.000000
242534.000000
243341.000000
244134.000000
244913.000000
245680.000000
246443.000000
247219.000000
248001.000000
248792.000000
249582.000000
250375.000000
251171.000000
251966.000000
252762.000000
253551.000000
254336.000000
255143.000000
255958.000000
256778.000000
257601.000000
258427.000000
259267.000000
260108.000000
260959.000000
261843.000000
262730.000000
263615.000000
264471.000000
265328.000000
266170.000000
266994.000000
267805.000000
268599.000000
269378.000000
270165.000000
270955.000000
271746.000000
272529.000000
273342.000000
274179.000000
275037.000000
275904.000000
276760.000000
277632.000000
278491.000000
279363.000000
280235.000000
281110.000000
281984.000000
282831.000000
283661.000000
284489.000000
285306.000000
286106.000000
286903.000000
287709.000000
288510.000000
289304.000000
290100.000000
290897.000000
291700.000000
292515.000000
293331.000000
294145.000000
294965.000000
295812.000000
296671.000000
297512.000000
298358.000000
299211.000000
300065.000000
300916.000000
301750.000000
302571.000000
303380.000000
304176.000000
305003.000000
305844.000000
306721.000000
307601.000000
308475.000000
309343.000000
310199.000000
311024.000000
311840.000000
312643.000000
313427.000000
314211.000000
314999.000000
315794.000000
316599.000000
317410.000000
318241.000000
319087.000000
319945.000000
320801.000000
321650.000000
322507.000000
323361.000000
324206.000000
325031.000000
325854.000000
326678.000000
327499.000000
328324.000000
329143.000000
329956.000000
330775.000000
331599.000000
332432.000000
333246.000000
334038.000000
334826.000000
335600.000000
336374.000000
337132.000000
337885.000000
338631.000000
339376.000000
340122.000000
340867.000000
341614.000000
342359.000000
343099.000000
343829.000000
344553.000000
345274.000000
345988.000000
346709.000000
347451.000000
348213.000000
349012.000000
349803.000000
350606.000000
351423.000000
352245.000000
353076.000000
353890.000000
354702.000000
355511.000000
356313.000000
357096.000000
357886.000000
358664.000000
359438.000000
360219.000000
360991.000000
361765.000000
362552.000000
363336.000000
364130.000000
364923.000000
365707.000000
366497.000000
367286.000000
368067.000000
368842.000000
369627.000000
370408.000000
371203.000000
372006.000000
372805.000000
373605.000000
374438.000000
375268.000000
376115.000000
376976.000000
377807.000000
378635.000000
379470.000000
380295.000000
381114.000000
381928.000000
382730.000000
383543.000000
384349.000000
385136.000000
385931.000000
386726.000000
387509.000000
388282.000000
389047.000000
389793.000000
390532.000000
391261.000000
391986.000000
392715.000000
393486.000000
394303.000000
395153.000000
396060.000000
397013.000000
397990.000000
398967.000000
399934.000000
400883.000000
401802.000000
402683.000000
403555.000000
404397.000000
405219.000000
406054.000000
406871.000000
407726.000000
408612.000000
409496.000000
410388.000000
411273.000000
412136.000000
412972.000000
413819.000000
414652.000000
415497.000000
416337.000000
417220.000000
418107.000000
418983.000000
419862.000000
420713.000000
421538.000000
422343.000000
423138.000000
423928.000000
424717.000000
425515.000000
426321.000000
427137.000000
427971.000000
428821.000000
429662.000000
430494.000000
431336.000000
432172.000000
432992.000000
433789.000000
434586.000000
435395.000000
436198.000000
437011.000000
437829.000000
438653.000000
439472.000000
440289.000000
441090.000000
441878.000000
442672.000000
443461.000000
444268.000000
445081.000000
445903.000000
446751.000000
447618.000000
448509.000000
449395.000000
450279.000000
451170.000000
452053.000000
452919.000000
453768.000000
454619.000000
455470.000000
456316.000000
457140.000000
457983.000000
458830.000000
459690.000000
460532.000000
461352.000000
462156.000000
463005.000000
463855.000000
464716.000000
465574.000000
466420.000000
467259.000000
468099.000000
468926.000000
469742.000000
470543.000000
471346.000000
472156.000000
472974.000000
473810.000000
474658.000000
475493.000000
476329.000000
477178.000000
478021.000000
478859.000000
479688.000000
480518.000000
481357.000000
482208.000000
483059.000000
483899.000000
484750.000000
485586.000000
486405.000000
487209.000000
488028.000000
488845.000000
489654.000000
490451.000000
491252.000000
492055.000000
492853.000000
493662.000000
494472.000000
495267.000000
496071.000000
496874.000000
497674.000000
498474.000000
499269.000000
500057.000000
500862.000000
501675.000000
502496.000000
503331.000000
504156.000000
504972.000000
505794.000000
506612.000000
507438.000000
508254.000000
509087.000000
509924.000000
510771.000000
511644.000000
512519.000000
513377.000000
514239.000000
515086.000000
515922.000000
516752.000000
517568.000000
518382.000000
519198.000000
519998.000000
520791.000000
521594.000000
522407.000000
523241.000000
524088.000000
524955.000000
525829.000000
526703.000000
527570.000000
528411.000000
529263.000000
530104.000000
530937.000000
531773.000000
532594.000000
533402.000000
534201.000000
535009.000000
535815.000000
536615.000000
537406.000000
538185.000000
538976.000000
539765.000000
540550.000000
541346.000000
542138.000000
542937.000000
543739.000000
544536.000000
545320.000000
546103.000000
546894.000000
547683.000000
548476.000000
549261.000000
550037.000000
550824.000000
551610.000000
552415.000000
553235.000000
554069.000000
554908.000000
555755.000000
556597.000000
557428.000000
558249.000000
559072.000000
559899.000000
560714.000000
561562.000000
562411.000000
563278.000000
564111.000000
564924.000000
565745.000000
566568.000000
567378.000000
568172.000000
568957.000000
569729.000000
570495.000000
571258.000000
572012.000000
572764.000000
573519.000000
574282.000000
575057.000000
575845.000000
576646.000000
577483.000000
578344.000000
579242.000000
580170.000000
581097.000000
582025.000000
582930.000000
583828.000000
584707.000000
585580.000000
586420.000000
587251.000000
588089.000000
588935.000000
589788.000000
590637.000000
591500.000000
592371.000000
593245.000000
594123.000000
594994.000000
595861.000000
596708.000000
597541.000000
598379.000000
599218.000000
600069.000000
600908.000000
601748.000000
602602.000000
603459.000000
604306.000000
605148.000000
605998.000000
606863.000000
607731.000000
608592.000000
609443.000000
610296.000000
611145.000000
611995.000000
612845.000000
613688.000000
614540.000000
615400.000000
616249.000000
617113.000000
617983.000000
618846.000000
619699.000000
620555.000000
621404.000000
622237.000000
623061.000000
623873.000000
624686.000000
625506.000000
626329.000000
627139.000000
627953.000000
628762.000000
629576.000000
630386.000000
631197.000000
632000.000000
632798.000000
633601.000000
634408.000000
635225.000000
636034.000000
636841.000000
637667.000000
638508.000000
639368.000000
640228.000000
641083.000000
641931.000000
642779.000000
643620.000000
644444.000000
645246.000000
646037.000000
646852.000000
647643.000000
648495.000000
649355.000000
650230.000000
651098.000000
651945.000000
652788.000000
653623.000000
654453.000000
655273.000000
656080.000000
656875.000000
657671.000000
658462.000000
659253.000000
660040.000000
660824.000000
661606.000000
662403.000000
663211.000000
664052.000000
664896.000000
665741.000000
666600.000000
667467.000000
668328.000000
669188.000000
670046.000000
670901.000000
671748.000000
672588.000000
673407.000000
674225.000000
675046.000000
675873.000000
676705.000000
677532.000000
678369.000000
679211.000000
680057.000000
680888.000000
681725.000000
682580.000000
683447.000000
684334.000000
685220.000000
686084.000000
686938.000000
687790.000000
688631.000000
689451.000000
690270.000000
691095.000000
691917.000000
692734.000000
693570.000000
694407.000000
695243.000000
696082.000000
696943.000000
697789.000000
698614.000000
699423.000000
700244.000000
701047.000000
701849.000000
702653.000000
703442.000000
704235.000000
705025.000000
705815.000000
706605.000000
707400.000000
708188.000000
708977.000000
709768.000000
710559.000000
711361.000000
712166.000000
712983.000000
713794.000000
714597.000000
715417.000000
716237.000000
717075.000000
717924.000000
718764.000000
719607.000000
720442.000000
721263.000000
722063.000000
722849.000000
723635.000000
724415.000000
725205.000000
725997.000000
726788.000000
727603.000000
728426.000000
729264.000000
730101.000000
730934.000000
731781.000000
732633.000000
733494.000000
734348.000000
735208.000000
736070.000000
736930.000000
737786.000000
738637.000000
739492.000000
740344.000000
741206.000000
742065.000000
742917.000000
743783.000000
744664.000000
745531.000000
746406.000000
747290.000000
748171.000000
749030.000000
749898.000000
750760.000000
751621.000000
752459.000000
753292.000000
754138.000000
754986.000000
755838.000000
756672.000000
757526.000000
758374.000000
759216.000000
760038.000000
760861.000000
761668.000000
762466.000000
763271.000000
764063.000000
764848.000000
765639.000000
766433.000000
767236.000000
768043.000000
768845.000000
769663.000000
770485.000000
771298.000000
772106.000000
772919.000000
773739.000000
774559.000000
775370.000000
776183.000000
777016.000000
777874.000000
778728.000000
779571.000000
780390.000000
781189.000000
781996.000000
782821.000000
783633.000000
784443.000000
785248.000000
786038.000000
786833.000000
787631.000000
788430.000000
789232.000000
790023.000000
790810.000000
791593.000000
792383.000000
793180.000000
793992.000000
794824.000000
795668.000000
796513.000000
797365.000000
798227.000000
799096.000000
799963.000000
800818.000000
801681.000000
802545.000000
803416.000000
804288.000000
805172.000000
806064.000000
806951.000000
807815.000000
808665.000000
809517.000000
810360.000000
811193.000000
812021.000000
812862.000000
813697.000000
814540.000000
815374.000000
816212.000000
817058.000000
817897.000000
818748.000000
819612.000000
820480.000000
821353.000000
822198.000000
823038.000000
823875.000000
824713.000000
825565.000000
826419.000000
827256.000000
828094.000000
828938.000000
829784.000000
830644.000000
831507.000000
832362.000000
833212.000000
834057.000000
834898.000000
835740.000000
836578.000000
837417.000000
838261.000000
839100.000000
839961.000000
840834.000000
841729.000000
842609.000000
843490.000000
844358.000000
845207.000000
846046.000000
846880.000000
847712.000000
848534.000000
849348.000000
850162.000000
850968.000000
851768.000000
852574.000000
853382.000000
854201.000000
855031.000000
855854.000000
856691.000000
857538.000000
858402.000000
859268.000000
860127.000000
860999.000000
861879.000000
862762.000000
863644.000000
864514.000000
865398.000000
866281.000000
867153.000000
868007.000000
868869.000000
869735.000000
870612.000000
871471.000000
872320.000000
873192.000000
874069.000000
874945.000000
875809.000000
876697.000000
877581.000000
878441.000000
879286.000000
880128.000000
880970.000000
881808.000000
882636.000000
883476.000000
884316.000000
885130.000000
885938.000000
886748.000000
887569.000000
888401.000000
889228.000000
890068.000000
890926.000000
891790.000000
892640.000000
893490.000000
894340.000000
895182.000000
895992.000000
896806.000000
897617.000000
898408.000000
899195.000000
899999.000000
