ECG (ms)
306.000000
1189.000000
2076.000000
2967.000000
3853.000000
4714.000000
5578.000000
6435.000000
7272.000000
8081.000000
8872.000000
9675.000000
10526.000000
11384.000000
12251.000000
13130.000000
14028.000000
14914.000000
15811.000000
16691.000000
17548.000000
18428.000000
19326.000000
20226.000000
21105.000000
21966.000000
22854.000000
23741.000000
24618.000000
25490.000000
26370.000000
27264.000000
28189.000000
29074.000000
30020.000000
30923.000000
31857.000000
32762.000000
33667.000000
34570.000000
35453.000000
36347.000000
37239.000000
38100.000000
38975.000000
39866.000000
40762.000000
41654.000000
42503.000000
43357.000000
44237.000000
45112.000000
45991.000000
46861.000000
47716.000000
48595.000000
49514.000000
50421.000000
51307.000000
52168.000000
53051.000000
53939.000000
54828.000000
55712.000000
56578.000000
57452.000000
58344.000000
59233.000000
60123.000000
60984.000000
61868.000000
62742.000000
63638.000000
64531.000000
65422.000000
66300.000000
67172.000000
68053.000000
68908.000000
69722.000000
70556.000000
71384.000000
72219.000000
73084.000000
73940.000000
74803.000000
75676.000000
76546.000000
77441.000000
78363.000000
79305.000000
80211.000000
81098.000000
82008.000000
82901.000000
83772.000000
84624.000000
85493.000000
86360.000000
87241.000000
88152.000000
89079.000000
89971.000000
90867.000000
91840.000000
92791.000000
93723.000000
94619.000000
95489.000000
96376.000000
97263.000000
98154.000000
99028.000000
99874.000000
100723.000000
101596.000000
102468.000000
103363.000000
104251.000000
105108.000000
105983.000000
106860.000000
107748.000000
108635.000000
109519.000000
110392.000000
111262.000000
112154.000000
113052.000000
113946.000000
114838.000000
115726.000000
116598.000000
117493.000000
118383.000000
119282.000000
120184.000000
121079.000000
121977.000000
122880.000000
123780.000000
124677.000000
125574.000000
126481.000000
127376.000000
128268.000000
129151.000000
130028.000000
130922.000000
131833.000000
132724.000000
133588.000000
134474.000000
135353.000000
136249.000000
137147.000000
138047.000000
138925.000000
139812.000000
140716.000000
141612.000000
142515.000000
143404.000000
144286.000000
145175.000000
146077.000000
146970.000000
147840.000000
148728.000000
149637.000000
150544.000000
151448.000000
152324.000000
153212.000000
154116.000000
155019.000000
155909.000000
156782.000000
157617.000000
158488.000000
159375.000000
160278.000000
161184.000000
162094.000000
162994.000000
163905.000000
164806.000000
165724.000000
166586.000000
167473.000000
168417.000000
169310.000000
170219.000000
171126.000000
172011.000000
172894.000000
173797.000000
174711.000000
175628.000000
176542.000000
177426.000000
178311.000000
179205.000000
180112.000000
181030.000000
181955.000000
182858.000000
183739.000000
184640.000000
185532.000000
186422.000000
187330.000000
188236.000000
189139.000000
190034.000000
190951.000000
191867.000000
192783.000000
193680.000000
194569.000000
195472.000000
196384.000000
197295.000000
198214.000000
199104.000000
199988.000000
200883.000000
201794.000000
202700.000000
203579.000000
204469.000000
205392.000000
206313.000000
207210.000000
208109.000000
209018.000000
209934.000000
210848.000000
211727.000000
212618.000000
213528.000000
214443.000000
215344.000000
216230.000000
217125.000000
218037.000000
218942.000000
219824.000000
220718.000000
221627.000000
222543.000000
223443.000000
224333.000000
225236.000000
226131.000000
227027.000000
227925.000000
228826.000000
229791.000000
230691.000000
231614.000000
232515.000000
233415.000000
234300.000000
235146.000000
235973.000000
236610.000000
237707.000000
238552.000000
239401.000000
240287.000000
241187.000000
242103.000000
243009.000000
243898.000000
244855.000000
245781.000000
246649.000000
247545.000000
248476.000000
248997.000000
250350.000000
251234.000000
252098.000000
252979.000000
253880.000000
254784.000000
255678.000000
256571.000000
257476.000000
258373.000000
259256.000000
260130.000000
261076.000000
262019.000000
262961.000000
263871.000000
264770.000000
265682.000000
266602.000000
267484.000000
268368.000000
269254.000000
270161.000000
271076.000000
271988.000000
272880.000000
273799.000000
274724.000000
275648.000000
276550.000000
277447.000000
278365.000000
279286.000000
280186.000000
281078.000000
281991.000000
282905.000000
283822.000000
284718.000000
285593.000000
286493.000000
287397.000000
288308.000000
289225.000000
290113.000000
291012.000000
291920.000000
292828.000000
293720.000000
294592.000000
295472.000000
296359.000000
296981.000000
298160.000000
299014.000000
299863.000000
300705.000000
301197.000000
302357.000000
303284.000000
304173.000000
305072.000000
306001.000000
306931.000000
307854.000000
308759.000000
309654.000000
310543.000000
311448.000000
312345.000000
313251.000000
314148.000000
315026.000000
315906.000000
316797.000000
317692.000000
318586.000000
319491.000000
320381.000000
321258.000000
322142.000000
322954.000000
323929.000000
324815.000000
325690.000000
326568.000000
327468.000000
328370.000000
329265.000000
330142.000000
331016.000000
331895.000000
332803.000000
333719.000000
334624.000000
335507.000000
336408.000000
337319.000000
338229.000000
339134.000000
340019.000000
340911.000000
341810.000000
342714.000000
343610.000000
344477.000000
345370.000000
346266.000000
347163.000000
348054.000000
348928.000000
349810.000000
350701.000000
351595.000000
352476.000000
353351.000000
354250.000000
355159.000000
356055.000000
356944.000000
357823.000000
358712.000000
359615.000000
360533.000000
361456.000000
362345.000000
363232.000000
364134.000000
365039.000000
365945.000000
366836.000000
367708.000000
368592.000000
369477.000000
370337.000000
371179.000000
371997.000000
372810.000000
373647.000000
374498.000000
375353.000000
376230.000000
377118.000000
378022.000000
378934.000000
379830.000000
380697.000000
381601.000000
382594.000000
383533.000000
384483.000000
385429.000000
386347.000000
387265.000000
388206.000000
389161.000000
390098.000000
391054.000000
391965.000000
392867.000000
393786.000000
394775.000000
395676.000000
396628.000000
397567.000000
398489.000000
399409.000000
400310.000000
401252.000000
402200.000000
403148.000000
404087.000000
405027.000000
405978.000000
406935.000000
407890.000000
408832.000000
409792.000000
410719.000000
411638.000000
412588.000000
413529.000000
414490.000000
415443.000000
416377.000000
417254.000000
418130.000000
419061.000000
420034.000000
420989.000000
421938.000000
422835.000000
423748.000000
424679.000000
425604.000000
426532.000000
427462.000000
428371.000000
429289.000000
430218.000000
431134.000000
432050.000000
432954.000000
433847.000000
434760.000000
435672.000000
436577.000000
437493.000000
438402.000000
439287.000000
440181.000000
441097.000000
442011.000000
442925.000000
443838.000000
444721.000000
445604.000000
446509.000000
447420.000000
448350.000000
449272.000000
450185.000000
451080.000000
451990.000000
452554.000000
453703.000000
454724.000000
455628.000000
456517.000000
457421.000000
458342.000000
459265.000000
460190.000000
461110.000000
462006.000000
462897.000000
463813.000000
464737.000000
465663.000000
466586.000000
467498.000000
468408.000000
469298.000000
470211.000000
471123.000000
472034.000000
472949.000000
473876.000000
474770.000000
475655.000000
476559.000000
477474.000000
478398.000000
479325.000000
480240.000000
481149.000000
482044.000000
482935.000000
483852.000000
484770.000000
485698.000000
486630.000000
487558.000000
488457.000000
489360.000000
490276.000000
491202.000000
492118.000000
493040.000000
493944.000000
494835.000000
495738.000000
496656.000000
497593.000000
498520.000000
499455.000000
500380.000000
501279.000000
502170.000000
503076.000000
503991.000000
504908.000000
505832.000000
506767.000000
507682.000000
508583.000000
509483.000000
510393.000000
511316.000000
512241.000000
513160.000000
514076.000000
514965.000000
515827.000000
516717.000000
517620.000000
518524.000000
519445.000000
520344.000000
521234.000000
522097.000000
522934.000000
523749.000000
524611.000000
525463.000000
526333.000000
527222.000000
528126.000000
529045.000000
529972.000000
530890.000000
531796.000000
532705.000000
533621.000000
534544.000000
535463.000000
536373.000000
537270.000000
538160.000000
539084.000000
540012.000000
540932.000000
541868.000000
542795.000000
543701.000000
545515.000000
546410.000000
547325.000000
548250.000000
549154.000000
550046.000000
550957.000000
551895.000000
552826.000000
553761.000000
554688.000000
555601.000000
556507.000000
557417.000000
558330.000000
559253.000000
560169.000000
561078.000000
561981.000000
562886.000000
563803.000000
564729.000000
565653.000000
566583.000000
567491.000000
568380.000000
569274.000000
570192.000000
571105.000000
572017.000000
572937.000000
573850.000000
574738.000000
575639.000000
576560.000000
577493.000000
578436.000000
579365.000000
580268.000000
581159.000000
582074.000000
583012.000000
583942.000000
584878.000000
585805.000000
586717.000000
587641.000000
588582.000000
589528.000000
590477.000000
591439.000000
592392.000000
593312.000000
594221.000000
595156.000000
596087.000000
597036.000000
597960.000000
598874.000000
599780.000000
600714.000000
601652.000000
602591.000000
603524.000000
604449.000000
605358.000000
606263.000000
607201.000000
608139.000000
609072.000000
610008.000000
610931.000000
611839.000000
612734.000000
613662.000000
614601.000000
615550.000000
616498.000000
617436.000000
618340.000000
619244.000000
620173.000000
621112.000000
622051.000000
622989.000000
623919.000000
624830.000000
625720.000000
626609.000000
627515.000000
628428.000000
629365.000000
630294.000000
631231.000000
632132.000000
633022.000000
633935.000000
634851.000000
635781.000000
636717.000000
637195.000000
638407.000000
639363.000000
640306.000000
641201.000000
642116.000000
643037.000000
643963.000000
644864.000000
645755.000000
646662.000000
647592.000000
648527.000000
649458.000000
650389.000000
651291.000000
652168.000000
653065.000000
653985.000000
654906.000000
655827.000000
656755.000000
657696.000000
658630.000000
659567.000000
660500.000000
661435.000000
662365.000000
663285.000000
664193.000000
665094.000000
666020.000000
666964.000000
667924.000000
668892.000000
669838.000000
670792.000000
671735.000000
672695.000000
673655.000000
674609.000000
675564.000000
676496.000000
677451.000000
678398.000000
679337.000000
680286.000000
681238.000000
682169.000000
683085.000000
684013.000000
684949.000000
685892.000000
686827.000000
687775.000000
688697.000000
689612.000000
690551.000000
691490.000000
692432.000000
693362.000000
694267.000000
695187.000000
696119.000000
697059.000000
697996.000000
698909.000000
699803.000000
700712.000000
701640.000000
702575.000000
703514.000000
704428.000000
705361.000000
706309.000000
707267.000000
708216.000000
709145.000000
710082.000000
711009.000000
711954.000000
712898.000000
713828.000000
714767.000000
715702.000000
716652.000000
717574.000000
718488.000000
719435.000000
720374.000000
721312.000000
722219.000000
723121.000000
724031.000000
724958.000000
725874.000000
726768.000000
727662.000000
728564.000000
729473.000000
730372.000000
731267.000000
732148.000000
733052.000000
733978.000000
734905.000000
735819.000000
736723.000000
737615.000000
738535.000000
739456.000000
740392.000000
741322.000000
742227.000000
743116.000000
744035.000000
744948.000000
745870.000000
746798.000000
747712.000000
748593.000000
749471.000000
750367.000000
751247.000000
752112.000000
752964.000000
753784.000000
754607.000000
755454.000000
756303.000000
757185.000000
758090.000000
759018.000000
759943.000000
760854.000000
761737.000000
762631.000000
763550.000000
764467.000000
765401.000000
766325.000000
767230.000000
768139.000000
769079.000000
770030.000000
770980.000000
771917.000000
772834.000000
773751.000000
774682.000000
775617.000000
776582.000000
777538.000000
778458.000000
779376.000000
780302.000000
781243.000000
782175.000000
783107.000000
784035.000000
784940.000000
785828.000000
786720.000000
787624.000000
788537.000000
789442.000000
790356.000000
791264.000000
792161.000000
793060.000000
793972.000000
794895.000000
795827.000000
796743.000000
797668.000000
798577.000000
799490.000000
800404.000000
801341.000000
802286.000000
803239.000000
804179.000000
805091.000000
806004.000000
806934.000000
807865.000000
808797.000000
809730.000000
810645.000000
811552.000000
812476.000000
813415.000000
814351.000000
815297.000000
816260.000000
817171.000000
818092.000000
819034.000000
819984.000000
820936.000000
821874.000000
822797.000000
823727.000000
824651.000000
825589.000000
826535.000000
827488.000000
828441.000000
829390.000000
830323.000000
831252.000000
832195.000000
833157.000000
834107.000000
835048.000000
835967.000000
836896.000000
837823.000000
838762.000000
839706.000000
840647.000000
841549.000000
842445.000000
843374.000000
844308.000000
845249.000000
846172.000000
847072.000000
847992.000000
848941.000000
849886.000000
850826.000000
851731.000000
852635.000000
853570.000000
854512.000000
855444.000000
856371.000000
857274.000000
858180.000000
859098.000000
860036.000000
860952.000000
861852.000000
862754.000000
863676.000000
864584.000000
865486.000000
866374.000000
867277.000000
868177.000000
869077.000000
869972.000000
870859.000000
871783.000000
872715.000000
873650.000000
874558.000000
875449.000000
876373.000000
877304.000000
878254.000000
879181.000000
880077.000000
880976.000000
881868.000000
882782.000000
883418.000000
884580.000000
885452.000000
886326.000000
887226.000000
888120.000000
889002.000000
889890.000000
890783.000000
891693.000000
892578.000000
893467.000000
894338.000000
895176.000000
896001.000000
896832.000000
897688.000000
898547.000000
899424.000000
900334.000000
