ECG (ms)
501.000000
1230.000000
2001.000000
2772.000000
3540.000000
4286.000000
5018.000000
5738.000000
6422.000000
7126.000000
7888.000000
8694.000000
9492.000000
10287.000000
11059.000000
11823.000000
12568.000000
13300.000000
14017.000000
14756.000000
15536.000000
16344.000000
17159.000000
17943.000000
18702.000000
19439.000000
20190.000000
20993.000000
21775.000000
22588.000000
23436.000000
24372.000000
25178.000000
25942.000000
26696.000000
27536.000000
28488.000000
29356.000000
30182.000000
30964.000000
31726.000000
32522.000000
33309.000000
34101.000000
34894.000000
35673.000000
36432.000000
37199.000000
37959.000000
38715.000000
39496.000000
40268.000000
41037.000000
41800.000000
42561.000000
43306.000000
44048.000000
44799.000000
45552.000000
46305.000000
47057.000000
47811.000000
48600.000000
49343.000000
50069.000000
50793.000000
51524.000000
52259.000000
52978.000000
53715.000000
54438.000000
55132.000000
55864.000000
56616.000000
57343.000000
58043.000000
58779.000000
59542.000000
60325.000000
61108.000000
61873.000000
62621.000000
63395.000000
64179.000000
64976.000000
65796.000000
66595.000000
67353.000000
68099.000000
68831.000000
69609.000000
70412.000000
71235.000000
72036.000000
72799.000000
73578.000000
74348.000000
75126.000000
75916.000000
76712.000000
77482.000000
78237.000000
78999.000000
79764.000000
80563.000000
81330.000000
82076.000000
82796.000000
83540.000000
84304.000000
85061.000000
85815.000000
86562.000000
87309.000000
88065.000000
88847.000000
89656.000000
90485.000000
91268.000000
92053.000000
92829.000000
93608.000000
94383.000000
95153.000000
95931.000000
96718.000000
97505.000000
98294.000000
99073.000000
99840.000000
100592.000000
101435.000000
102230.000000
103045.000000
103840.000000
104635.000000
105407.000000
106177.000000
106954.000000
107739.000000
108530.000000
109324.000000
110110.000000
110880.000000
111661.000000
112420.000000
113189.000000
113974.000000
114760.000000
115553.000000
116352.000000
117135.000000
117902.000000
118661.000000
119419.000000
120185.000000
120984.000000
121767.000000
122532.000000
123282.000000
124013.000000
124740.000000
125495.000000
126269.000000
127059.000000
127858.000000
128639.000000
129406.000000
130172.000000
130950.000000
131757.000000
132553.000000
133351.000000
134143.000000
134913.000000
135668.000000
136422.000000
137220.000000
138024.000000
138872.000000
139762.000000
140561.000000
141341.000000
142100.000000
142909.000000
143699.000000
144480.000000
145330.000000
146114.000000
146877.000000
147600.000000
148284.000000
148969.000000
149707.000000
150473.000000
151224.000000
151990.000000
152735.000000
153480.000000
154218.000000
154894.000000
155561.000000
156274.000000
157026.000000
157739.000000
158398.000000
159077.000000
159818.000000
160626.000000
161400.000000
162161.000000
162900.000000
163661.000000
164434.000000
165229.000000
166005.000000
166760.000000
167543.000000
168326.000000
169113.000000
169872.000000
170613.000000
171341.000000
172098.000000
172900.000000
173699.000000
174474.000000
175242.000000
175983.000000
176722.000000
177492.000000
178302.000000
179097.000000
179876.000000
180627.000000
181352.000000
182051.000000
182785.000000
183610.000000
184418.000000
185212.000000
185978.000000
186726.000000
187491.000000
188275.000000
189073.000000
189876.000000
190672.000000
191426.000000
192164.000000
192925.000000
193698.000000
194483.000000
195288.000000
196063.000000
196813.000000
197581.000000
198349.000000
199136.000000
199903.000000
200656.000000
201408.000000
202203.000000
203002.000000
203868.000000
204680.000000
205477.000000
206251.000000
207050.000000
207821.000000
208599.000000
209373.000000
210147.000000
210917.000000
211698.000000
212466.000000
213239.000000
214027.000000
214822.000000
215599.000000
216372.000000
217142.000000
217903.000000
218705.000000
219505.000000
220269.000000
221052.000000
221797.000000
222572.000000
223345.000000
224110.000000
224886.000000
225665.000000
226431.000000
227187.000000
228019.000000
228782.000000
229554.000000
230341.000000
231098.000000
231842.000000
232567.000000
233302.000000
234065.000000
234834.000000
235598.000000
236366.000000
237118.000000
237858.000000
238623.000000
239362.000000
240143.000000
240916.000000
241664.000000
242393.000000
243123.000000
243887.000000
244676.000000
245472.000000
246268.000000
247029.000000
247776.000000
248540.000000
249300.000000
250065.000000
250816.000000
251552.000000
252319.000000
253117.000000
253911.000000
254688.000000
255455.000000
256218.000000
256983.000000
257749.000000
258520.000000
259289.000000
260060.000000
260829.000000
261595.000000
262353.000000
263126.000000
263881.000000
264630.000000
265411.000000
266159.000000
266939.000000
267721.000000
268455.000000
269152.000000
269837.000000
270512.000000
271165.000000
271795.000000
272446.000000
273122.000000
273839.000000
274547.000000
275245.000000
275924.000000
276551.000000
277162.000000
277804.000000
278484.000000
279194.000000
279939.000000
280701.000000
281427.000000
282141.000000
282891.000000
283659.000000
284439.000000
285224.000000
286018.000000
286800.000000
287549.000000
288289.000000
289038.000000
289802.000000
290556.000000
291285.000000
292010.000000
292746.000000
293498.000000
294278.000000
295052.000000
295798.000000
296533.000000
297312.000000
298091.000000
298867.000000
299624.000000
300360.000000
301130.000000
301918.000000
302714.000000
303492.000000
304243.000000
304992.000000
305777.000000
306590.000000
307407.000000
308186.000000
308947.000000
309678.000000
310448.000000
311249.000000
312045.000000
312824.000000
313585.000000
314370.000000
315170.000000
315974.000000
316742.000000
317492.000000
318255.000000
319053.000000
319854.000000
320649.000000
321434.000000
322227.000000
323031.000000
323833.000000
324611.000000
325374.000000
326164.000000
326957.000000
327759.000000
328543.000000
329301.000000
330017.000000
330780.000000
331588.000000
332395.000000
333179.000000
333940.000000
334731.000000
335537.000000
336319.000000
337080.000000
337834.000000
338603.000000
339377.000000
340179.000000
340970.000000
341735.000000
342497.000000
343289.000000
344076.000000
344857.000000
345623.000000
346389.000000
347170.000000
347960.000000
348758.000000
349519.000000
350295.000000
351078.000000
351867.000000
352645.000000
353423.000000
354197.000000
354977.000000
355791.000000
356604.000000
357382.000000
358160.000000
358959.000000
359780.000000
360592.000000
361370.000000
362129.000000
362893.000000
363685.000000
364459.000000
365217.000000
366004.000000
366809.000000
367598.000000
368347.000000
369073.000000
369833.000000
370636.000000
371423.000000
372184.000000
372932.000000
373704.000000
374467.000000
375223.000000
375976.000000
376719.000000
377438.000000
378213.000000
379036.000000
379863.000000
380654.000000
381413.000000
382111.000000
382747.000000
383362.000000
383981.000000
384866.000000
385726.000000
386638.000000
387457.000000
388257.000000
389057.000000
389847.000000
390668.000000
391470.000000
392260.000000
393049.000000
393823.000000
394622.000000
395395.000000
396148.000000
396923.000000
397692.000000
398444.000000
399186.000000
399931.000000
400669.000000
401407.000000
402159.000000
402909.000000
403660.000000
404447.000000
405215.000000
405971.000000
406759.000000
407567.000000
408349.000000
409109.000000
409849.000000
410606.000000
411342.000000
412099.000000
412857.000000
413593.000000
414346.000000
415131.000000
415919.000000
416679.000000
417414.000000
418160.000000
418919.000000
419694.000000
420462.000000
421202.000000
421939.000000
422700.000000
423462.000000
424224.000000
424969.000000
425758.000000
426565.000000
427342.000000
428085.000000
428809.000000
429552.000000
430327.000000
431118.000000
431887.000000
432656.000000
433406.000000
434171.000000
434959.000000
435731.000000
436477.000000
437224.000000
437976.000000
438746.000000
439509.000000
440248.000000
440976.000000
441715.000000
442476.000000
443269.000000
444054.000000
444816.000000
445543.000000
446283.000000
447067.000000
447855.000000
448614.000000
449349.000000
450107.000000
450868.000000
451678.000000
452436.000000
453178.000000
453888.000000
454660.000000
455471.000000
456267.000000
457030.000000
457782.000000
458508.000000
459254.000000
460012.000000
460754.000000
461504.000000
462295.000000
463102.000000
463866.000000
464671.000000
465423.000000
466196.000000
466983.000000
467759.000000
468504.000000
469255.000000
470042.000000
470855.000000
471622.000000
472362.000000
473096.000000
473855.000000
474658.000000
475452.000000
476213.000000
476980.000000
477754.000000
478541.000000
479308.000000
480036.000000
480766.000000
481551.000000
482360.000000
483190.000000
484015.000000
484814.000000
485600.000000
486437.000000
487294.000000
488140.000000
488930.000000
489693.000000
490458.000000
491232.000000
491998.000000
492744.000000
493465.000000
494185.000000
494936.000000
495681.000000
496415.000000
497110.000000
497770.000000
498412.000000
499043.000000
499677.000000
500338.000000
501058.000000
501802.000000
502532.000000
503217.000000
503909.000000
504617.000000
505368.000000
506178.000000
506960.000000
507718.000000
508467.000000
509216.000000
509966.000000
510769.000000
511540.000000
512259.000000
512962.000000
513689.000000
514421.000000
515196.000000
515936.000000
516667.000000
517400.000000
518175.000000
518982.000000
519740.000000
520509.000000
521303.000000
522099.000000
522887.000000
523676.000000
524463.000000
525251.000000
526048.000000
526859.000000
527672.000000
528480.000000
529291.000000
530103.000000
530877.000000
531623.000000
532396.000000
533199.000000
533992.000000
534760.000000
535522.000000
536314.000000
537113.000000
537873.000000
538627.000000
539397.000000
540169.000000
540956.000000
541713.000000
542465.000000
543282.000000
544130.000000
544983.000000
545785.000000
546560.000000
547356.000000
548182.000000
548989.000000
549767.000000
550503.000000
551263.000000
552049.000000
552817.000000
553568.000000
554296.000000
555062.000000
555863.000000
556679.000000
557502.000000
558300.000000
559072.000000
559871.000000
560676.000000
561480.000000
562228.000000
562958.000000
563699.000000
564454.000000
565239.000000
565987.000000
566768.000000
567581.000000
568434.000000
569263.000000
570049.000000
570888.000000
571729.000000
572558.000000
573363.000000
574149.000000
574955.000000
575785.000000
576614.000000
577449.000000
578231.000000
579041.000000
579875.000000
580744.000000
581580.000000
582373.000000
583196.000000
584010.000000
584837.000000
585644.000000
586427.000000
587206.000000
588020.000000
588842.000000
589660.000000
590469.000000
591268.000000
592078.000000
592888.000000
593666.000000
594442.000000
595242.000000
596057.000000
596871.000000
597644.000000
598394.000000
599183.000000
599988.000000
600778.000000
601533.000000
602298.000000
603096.000000
603873.000000
604629.000000
605361.000000
606124.000000
606918.000000
607685.000000
608427.000000
609164.000000
609942.000000
610722.000000
611486.000000
612237.000000
613014.000000
613808.000000
614576.000000
615314.000000
616042.000000
616810.000000
617607.000000
618476.000000
619307.000000
620093.000000
620899.000000
621727.000000
622531.000000
623329.000000
624122.000000
624931.000000
625747.000000
626561.000000
627357.000000
628142.000000
628937.000000
629729.000000
630515.000000
631256.000000
631987.000000
632731.000000
633512.000000
634270.000000
635013.000000
635768.000000
636539.000000
637299.000000
638051.000000
638805.000000
639579.000000
640367.000000
641130.000000
641881.000000
642621.000000
643387.000000
644181.000000
644933.000000
645678.000000
646397.000000
647151.000000
647947.000000
648741.000000
649506.000000
650264.000000
651028.000000
651825.000000
652637.000000
653400.000000
654140.000000
654905.000000
655683.000000
656467.000000
657226.000000
657980.000000
658753.000000
659551.000000
660342.000000
661106.000000
661865.000000
662627.000000
663407.000000
664180.000000
664939.000000
665710.000000
666528.000000
667335.000000
668165.000000
668948.000000
669728.000000
670529.000000
671332.000000
672132.000000
672899.000000
673667.000000
674478.000000
675297.000000
676101.000000
676883.000000
677674.000000
678501.000000
679320.000000
680095.000000
680854.000000
681626.000000
682420.000000
683184.000000
683954.000000
684759.000000
685574.000000
686380.000000
687149.000000
687969.000000
688761.000000
689537.000000
690320.000000
691115.000000
691908.000000
692705.000000
693517.000000
694299.000000
695089.000000
695873.000000
696674.000000
697445.000000
698222.000000
699019.000000
699815.000000
700601.000000
701372.000000
702187.000000
702974.000000
703706.000000
704428.000000
705166.000000
705922.000000
706698.000000
707424.000000
708165.000000
708953.000000
709728.000000
710475.000000
711209.000000
711996.000000
712782.000000
713568.000000
714315.000000
715056.000000
715834.000000
716627.000000
717383.000000
718126.000000
718923.000000
719739.000000
720544.000000
721306.000000
722062.000000
722839.000000
723620.000000
724391.000000
725145.000000
725938.000000
726756.000000
727607.000000
728460.000000
729263.000000
730054.000000
730880.000000
731710.000000
732520.000000
733312.000000
734092.000000
734910.000000
735747.000000
736567.000000
737357.000000
738150.000000
738969.000000
739777.000000
740556.000000
741313.000000
742109.000000
742905.000000
743716.000000
744480.000000
745224.000000
746008.000000
746810.000000
747611.000000
748368.000000
749120.000000
749896.000000
750686.000000
751492.000000
752245.000000
752976.000000
753711.000000
754474.000000
755229.000000
755968.000000
756672.000000
757467.000000
758282.000000
759068.000000
759823.000000
760585.000000
761400.000000
762230.000000
763021.000000
763781.000000
764520.000000
765310.000000
766114.000000
766925.000000
767702.000000
768477.000000
769273.000000
770086.000000
770861.000000
771611.000000
772348.000000
773105.000000
773854.000000
774568.000000
775260.000000
775960.000000
776718.000000
777503.000000
778279.000000
778951.000000
779585.000000
780295.000000
781214.000000
782027.000000
782819.000000
783599.000000
784437.000000
785388.000000
786226.000000
787031.000000
787846.000000
788651.000000
789453.000000
790251.000000
791036.000000
791806.000000
792572.000000
793349.000000
794135.000000
794928.000000
795712.000000
796507.000000
797283.000000
798078.000000
798868.000000
799658.000000
800440.000000
801221.000000
802001.000000
802790.000000
803595.000000
804511.000000
805427.000000
806248.000000
807080.000000
807919.000000
808754.000000
809572.000000
810369.000000
811175.000000
811994.000000
812837.000000
813678.000000
814481.000000
815276.000000
816088.000000
816899.000000
817707.000000
818482.000000
819271.000000
820125.000000
820971.000000
821826.000000
822632.000000
823402.000000
824196.000000
825042.000000
825907.000000
826762.000000
827564.000000
828349.000000
829191.000000
830040.000000
830891.000000
831679.000000
832457.000000
833274.000000
834133.000000
834994.000000
835821.000000
836623.000000
837421.000000
838253.000000
839123.000000
839982.000000
840790.000000
841585.000000
842403.000000
843236.000000
844066.000000
844888.000000
845694.000000
846473.000000
847289.000000
848102.000000
848915.000000
849714.000000
850484.000000
851301.000000
852143.000000
852981.000000
853797.000000
854591.000000
855417.000000
856270.000000
857127.000000
857979.000000
858810.000000
859626.000000
860412.000000
861234.000000
862054.000000
862909.000000
863728.000000
864539.000000
865317.000000
866121.000000
866964.000000
867805.000000
868660.000000
869471.000000
870269.000000
871104.000000
871947.000000
872772.000000
873586.000000
874386.000000
875157.000000
875982.000000
876816.000000
877647.000000
878449.000000
879226.000000
880031.000000
880854.000000
881671.000000
882472.000000
883255.000000
884045.000000
884869.000000
885692.000000
886484.000000
887262.000000
888051.000000
888861.000000
889661.000000
890452.000000
891237.000000
892060.000000
892871.000000
893658.000000
894434.000000
895215.000000
896020.000000
896856.000000
897690.000000
898490.000000
899268.000000
900073.000000
900875.000000
901669.000000
902449.000000
903210.000000
904008.000000
904825.000000
905620.000000
906394.000000
907168.000000
907952.000000
908748.000000
909525.000000
910275.000000
911062.000000
911864.000000
912635.000000
913396.000000
914177.000000
914989.000000
915780.000000
916548.000000
917321.000000
918102.000000
918889.000000
919671.000000
920444.000000
921186.000000
921931.000000
922687.000000
923437.000000
924190.000000
924955.000000
925756.000000
926545.000000
927318.000000
928087.000000
928859.000000
929639.000000
930419.000000
931193.000000
931958.000000
932721.000000
933492.000000
934284.000000
935065.000000
935846.000000
936634.000000
937435.000000
938241.000000
939029.000000
939833.000000
940641.000000
941449.000000
942241.000000
943026.000000
943802.000000
944590.000000
945393.000000
946219.000000
947048.000000
947859.000000
948654.000000
949440.000000
950251.000000
951053.000000
951907.000000
952707.000000
953485.000000
954244.000000
955028.000000
955864.000000
956659.000000
957457.000000
958251.000000
959033.000000
959820.000000
960606.000000
961395.000000
962186.000000
962975.000000
963754.000000
964554.000000
965370.000000
966221.000000
967043.000000
967846.000000
968657.000000
969451.000000
970261.000000
971060.000000
971873.000000
972693.000000
973516.000000
974345.000000
975152.000000
975976.000000
976806.000000
977644.000000
978464.000000
979262.000000
980066.000000
980862.000000
981678.000000
982472.000000
983266.000000
984064.000000
984885.000000
985736.000000
986546.000000
987375.000000
988224.000000
989037.000000
989829.000000
990605.000000
991322.000000
991949.000000
992558.000000
993187.000000
994154.000000
995017.000000
995979.000000
996889.000000
997710.000000
998517.000000
999317.000000
1000107.000000
1000903.000000
1001720.000000
1002558.000000
1003376.000000
1004181.000000
1005002.000000
1005814.000000
1006600.000000
1007376.000000
1008179.000000
1008981.000000
1009784.000000
1010573.000000
1011385.000000
1012228.000000
1013056.000000
1013848.000000
1014625.000000
1015414.000000
1016235.000000
1017043.000000
1017813.000000
1018564.000000
1019352.000000
1020175.000000
1020992.000000
1021757.000000
1022487.000000
1023261.000000
1024063.000000
1024868.000000
1025656.000000
1026442.000000
1027262.000000
1028073.000000
1028871.000000
1029633.000000
1030396.000000
1031187.000000
1031998.000000
1032762.000000
1033456.000000
1034124.000000
1034786.000000
1035461.000000
1036223.000000
1036962.000000
1037657.000000
1038401.000000
1039175.000000
1039984.000000
1040713.000000
1041411.000000
1042152.000000
1042928.000000
1043698.000000
1044429.000000
1045155.000000
1045925.000000
1046707.000000
1047452.000000
1048189.000000
1048951.000000
1049784.000000
1050593.000000
1051369.000000
1052138.000000
1052915.000000
1053718.000000
1054484.000000
1055237.000000
1056018.000000
1056802.000000
1057581.000000
1058326.000000
1059079.000000
1059846.000000
1060626.000000
1061372.000000
1062117.000000
1062906.000000
1063718.000000
1064527.000000
1065304.000000
1066086.000000
1066904.000000
1067735.000000
1068540.000000
1069319.000000
1070107.000000
1070912.000000
1071719.000000
1072505.000000
1073267.000000
1074062.000000
1074887.000000
1075703.000000
1076478.000000
1077261.000000
1078057.000000
1078865.000000
1079633.000000
1080380.000000
1081138.000000
1081948.000000
1082761.000000
1083558.000000
1084330.000000
1085098.000000
1085894.000000
1086684.000000
1087430.000000
1088153.000000
1088871.000000
1089620.000000
1090396.000000
1091221.000000
1092027.000000
1092805.000000
1093610.000000
1094422.000000
1095216.000000
1095982.000000
1096748.000000
1097556.000000
1098400.000000
1099264.000000
1100180.000000
1101029.000000
1101861.000000
1102703.000000
1103517.000000
1104336.000000
1105180.000000
1106040.000000
1106928.000000
1107870.000000
1108681.000000
1109476.000000
1110282.000000
1111089.000000
1111856.000000
1112642.000000
1113447.000000
1114280.000000
1115091.000000
1115867.000000
1116648.000000
1117457.000000
1118287.000000
1119091.000000
1119853.000000
1120657.000000
1121462.000000
1122249.000000
1123007.000000
1123733.000000
1124463.000000
1125224.000000
1125997.000000
1126761.000000
1127510.000000
1128291.000000
1129065.000000
1129826.000000
1130571.000000
1131338.000000
1132126.000000
1132923.000000
1133674.000000
1134467.000000
1135282.000000
1136068.000000
1136841.000000
1137599.000000
1138392.000000
1139190.000000
1139973.000000
1140736.000000
1141500.000000
1142291.000000
1143095.000000
1143911.000000
1144702.000000
1145498.000000
1146325.000000
1147149.000000
1147958.000000
1148758.000000
1149568.000000
1150382.000000
1151205.000000
1152008.000000
1152820.000000
1153639.000000
1154469.000000
1155272.000000
1156074.000000
1156880.000000
1157687.000000
1158488.000000
1159276.000000
1160068.000000
1160872.000000
1161676.000000
1162475.000000
1163271.000000
1164060.000000
1164857.000000
1165670.000000
1166488.000000
1167285.000000
1168080.000000
1168883.000000
1169769.000000
1170592.000000
1171388.000000
1172190.000000
1173014.000000
1173817.000000
1174608.000000
1175395.000000
1176184.000000
1176974.000000
1177775.000000
1178575.000000
1179383.000000
1180193.000000
1180996.000000
1181802.000000
1182587.000000
1183381.000000
1184160.000000
1184961.000000
1185741.000000
1186546.000000
1187350.000000
1188141.000000
1188936.000000
1189760.000000
1190577.000000
1191471.000000
1192305.000000
1193116.000000
1193936.000000
1194742.000000
