ECG (ms)
542.000000
1262.000000
2007.000000
2731.000000
3456.000000
4207.000000
4967.000000
5738.000000
6512.000000
7254.000000
7976.000000
8704.000000
9472.000000
10245.000000
11052.000000
11839.000000
12593.000000
13313.000000
14031.000000
14763.000000
15492.000000
16200.000000
16959.000000
17755.000000
18539.000000
19331.000000
20142.000000
20918.000000
21665.000000
22395.000000
23089.000000
23778.000000
24469.000000
25158.000000
25853.000000
26559.000000
27273.000000
27992.000000
28726.000000
29473.000000
30189.000000
30875.000000
31539.000000
32197.000000
32859.000000
33502.000000
34193.000000
34925.000000
35642.000000
36369.000000
37106.000000
37880.000000
38687.000000
39478.000000
40196.000000
40880.000000
41568.000000
42266.000000
42969.000000
43714.000000
44457.000000
45197.000000
45963.000000
46723.000000
47476.000000
48221.000000
48938.000000
49639.000000
50342.000000
51035.000000
51733.000000
52464.000000
53217.000000
53963.000000
54728.000000
55480.000000
56261.000000
57070.000000
57845.000000
58613.000000
59379.000000
60109.000000
60826.000000
61530.000000
62239.000000
62964.000000
63710.000000
64455.000000
65227.000000
66017.000000
66775.000000
67532.000000
68287.000000
69016.000000
69737.000000
70456.000000
71177.000000
71915.000000
72675.000000
73442.000000
74170.000000
74895.000000
75620.000000
76323.000000
77042.000000
77800.000000
78557.000000
79303.000000
80055.000000
80803.000000
81547.000000
82307.000000
83047.000000
83776.000000
84511.000000
85242.000000
85972.000000
86704.000000
87449.000000
88200.000000
88979.000000
89735.000000
90478.000000
91214.000000
91939.000000
92664.000000
93432.000000
94229.000000
95007.000000
95794.000000
96597.000000
97386.000000
98171.000000
98913.000000
99630.000000
100348.000000
101090.000000
101869.000000
102634.000000
103407.000000
104247.000000
105046.000000
105815.000000
106587.000000
107345.000000
108097.000000
108862.000000
109620.000000
110370.000000
111130.000000
111897.000000
112659.000000
113417.000000
114136.000000
114848.000000
115577.000000
116304.000000
117024.000000
117790.000000
118610.000000
119390.000000
120186.000000
120964.000000
121712.000000
122451.000000
123189.000000
123914.000000
124648.000000
125396.000000
126125.000000
126853.000000
127580.000000
128302.000000
129016.000000
129734.000000
130460.000000
131184.000000
131906.000000
132650.000000
133390.000000
134132.000000
134868.000000
135602.000000
136311.000000
137020.000000
137742.000000
138458.000000
139162.000000
139867.000000
140579.000000
141314.000000
142048.000000
142798.000000
143536.000000
144259.000000
144966.000000
145685.000000
146389.000000
147090.000000
147813.000000
148550.000000
149308.000000
150077.000000
150835.000000
151575.000000
152308.000000
153038.000000
153763.000000
154505.000000
155239.000000
155974.000000
156692.000000
157400.000000
158113.000000
158830.000000
159597.000000
160338.000000
161075.000000
161800.000000
162508.000000
163204.000000
163899.000000
164580.000000
165267.000000
165982.000000
166754.000000
167534.000000
168316.000000
169121.000000
169932.000000
170736.000000
171543.000000
172331.000000
173100.000000
173857.000000
174627.000000
175405.000000
176224.000000
177044.000000
177828.000000
178643.000000
179497.000000
180299.000000
181063.000000
181834.000000
182580.000000
183325.000000
184118.000000
184901.000000
185674.000000
186450.000000
187216.000000
187961.000000
188683.000000
189413.000000
190174.000000
190940.000000
191701.000000
192497.000000
193320.000000
194127.000000
194901.000000
195692.000000
196521.000000
197318.000000
198083.000000
198855.000000
199611.000000
200340.000000
201081.000000
201835.000000
202585.000000
203329.000000
204089.000000
204834.000000
205581.000000
206338.000000
207099.000000
207849.000000
208577.000000
209324.000000
210070.000000
210821.000000
211604.000000
212406.000000
213202.000000
214001.000000
214804.000000
215562.000000
216291.000000
217041.000000
217822.000000
218603.000000
219402.000000
220254.000000
221067.000000
221849.000000
222627.000000
223392.000000
224154.000000
224934.000000
225736.000000
226524.000000
227331.000000
228104.000000
228861.000000
229616.000000
230356.000000
231088.000000
231821.000000
232552.000000
233285.000000
234032.000000
234791.000000
235526.000000
236261.000000
237011.000000
237762.000000
238499.000000
239250.000000
240060.000000
240860.000000
241626.000000
242398.000000
243156.000000
243898.000000
244620.000000
245344.000000
246079.000000
246820.000000
247583.000000
248388.000000
249172.000000
249948.000000
250734.000000
251517.000000
252279.000000
253035.000000
253786.000000
254535.000000
255286.000000
256041.000000
256795.000000
257560.000000
258354.000000
259128.000000
259878.000000
260643.000000
261414.000000
262152.000000
262902.000000
263653.000000
264402.000000
265159.000000
265938.000000
266723.000000
267468.000000
268217.000000
268961.000000
269695.000000
270425.000000
271168.000000
271927.000000
272670.000000
273408.000000
274166.000000
274939.000000
275690.000000
276438.000000
277197.000000
277945.000000
278683.000000
279447.000000
280231.000000
280980.000000
281715.000000
282461.000000
283220.000000
283968.000000
284733.000000
285538.000000
286368.000000
287193.000000
288051.000000
288849.000000
289629.000000
290405.000000
291169.000000
291903.000000
292626.000000
293355.000000
294103.000000
294843.000000
295591.000000
296373.000000
297209.000000
297984.000000
298751.000000
299532.000000
300290.000000
301029.000000
301767.000000
302543.000000
303293.000000
304040.000000
304807.000000
305587.000000
306333.000000
307076.000000
307833.000000
308612.000000
309353.000000
310083.000000
310817.000000
311548.000000
312282.000000
313068.000000
313874.000000
314660.000000
315445.000000
316262.000000
317057.000000
317826.000000
318593.000000
319377.000000
320144.000000
320893.000000
321676.000000
322459.000000
323219.000000
323987.000000
324764.000000
325525.000000
326279.000000
327049.000000
327805.000000
328541.000000
329285.000000
330042.000000
330781.000000
331522.000000
332283.000000
333049.000000
333796.000000
334540.000000
335291.000000
336037.000000
336765.000000
337502.000000
338241.000000
338960.000000
339679.000000
340420.000000
341168.000000
341905.000000
342645.000000
343392.000000
344129.000000
344844.000000
345577.000000
346324.000000
347038.000000
347709.000000
348375.000000
349054.000000
349739.000000
350451.000000
351222.000000
351968.000000
352716.000000
353491.000000
354249.000000
354994.000000
355772.000000
356543.000000
357266.000000
357970.000000
358687.000000
359416.000000
360160.000000
360943.000000
361775.000000
362569.000000
363350.000000
364154.000000
364946.000000
365698.000000
366460.000000
367241.000000
368010.000000
368786.000000
369596.000000
370390.000000
371173.000000
372003.000000
372792.000000
373581.000000
374357.000000
375110.000000
375839.000000
376577.000000
377348.000000
378107.000000
378881.000000
379663.000000
380436.000000
381209.000000
381979.000000
382718.000000
383445.000000
384164.000000
384876.000000
385575.000000
386262.000000
386967.000000
387707.000000
388470.000000
389216.000000
389936.000000
390657.000000
391423.000000
392176.000000
392940.000000
393727.000000
394515.000000
395292.000000
396074.000000
396824.000000
397566.000000
398306.000000
399034.000000
399764.000000
400525.000000
401285.000000
402039.000000
402810.000000
403596.000000
404362.000000
405134.000000
405950.000000
406725.000000
407502.000000
408288.000000
409056.000000
409812.000000
410560.000000
411306.000000
412048.000000
412818.000000
413625.000000
414415.000000
415230.000000
416036.000000
416810.000000
417555.000000
418309.000000
419068.000000
419812.000000
420564.000000
421372.000000
422153.000000
422951.000000
423782.000000
424618.000000
425460.000000
426296.000000
427090.000000
427859.000000
428626.000000
429396.000000
430170.000000
430996.000000
431814.000000
432627.000000
433454.000000
434256.000000
435017.000000
435790.000000
436542.000000
437305.000000
438110.000000
438899.000000
439683.000000
440474.000000
441264.000000
442034.000000
442815.000000
443603.000000
444375.000000
445149.000000
445957.000000
446770.000000
447576.000000
448375.000000
449151.000000
449909.000000
450669.000000
451433.000000
452191.000000
452942.000000
453719.000000
454521.000000
455274.000000
455998.000000
456750.000000
457506.000000
458249.000000
459016.000000
459818.000000
460600.000000
461374.000000
462180.000000
462978.000000
463748.000000
464517.000000
465275.000000
466031.000000
466774.000000
467538.000000
468376.000000
469197.000000
469969.000000
470741.000000
471521.000000
472272.000000
473002.000000
473752.000000
474536.000000
475312.000000
476054.000000
476800.000000
477567.000000
478336.000000
479086.000000
479835.000000
480603.000000
481383.000000
482129.000000
482861.000000
483613.000000
484354.000000
485076.000000
485791.000000
486528.000000
487280.000000
488025.000000
488796.000000
489567.000000
490316.000000
491051.000000
491799.000000
492534.000000
493270.000000
494026.000000
494782.000000
495526.000000
496258.000000
497012.000000
497774.000000
498514.000000
499263.000000
500038.000000
500796.000000
501541.000000
502305.000000
503097.000000
503855.000000
504584.000000
505322.000000
506064.000000
506788.000000
507490.000000
508207.000000
508971.000000
509721.000000
510458.000000
511221.000000
512006.000000
512750.000000
513464.000000
514181.000000
514917.000000
515645.000000
516362.000000
517104.000000
517905.000000
518691.000000
519472.000000
520263.000000
521042.000000
521781.000000
522507.000000
523246.000000
523977.000000
524692.000000
525408.000000
526157.000000
526897.000000
527630.000000
528396.000000
529163.000000
529911.000000
530658.000000
531422.000000
532186.000000
532944.000000
533712.000000
534482.000000
535222.000000
535957.000000
536732.000000
537511.000000
538270.000000
539038.000000
539808.000000
540554.000000
541302.000000
542068.000000
542832.000000
543591.000000
544361.000000
545118.000000
545855.000000
546598.000000
547361.000000
548125.000000
548883.000000
549657.000000
550439.000000
551218.000000
552017.000000
552827.000000
553598.000000
554373.000000
555207.000000
555986.000000
556736.000000
557500.000000
558280.000000
559022.000000
559747.000000
560498.000000
561273.000000
562029.000000
562798.000000
563573.000000
564324.000000
565069.000000
565846.000000
566640.000000
567408.000000
568171.000000
568959.000000
569725.000000
570466.000000
571211.000000
571946.000000
572658.000000
573356.000000
574077.000000
574811.000000
575545.000000
576309.000000
577130.000000
577937.000000
578714.000000
579500.000000
580258.000000
581008.000000
581767.000000
582530.000000
583268.000000
584006.000000
584764.000000
585542.000000
586304.000000
587074.000000
587850.000000
588599.000000
589332.000000
590059.000000
590779.000000
591499.000000
592226.000000
592992.000000
593783.000000
594543.000000
595295.000000
596062.000000
596824.000000
597584.000000
598363.000000
599148.000000
599919.000000
