ECG (ms)
114.000000
1086.000000
2059.000000
3022.000000
3969.000000
4934.000000
5896.000000
6856.000000
7820.000000
8777.000000
9720.000000
10679.000000
11641.000000
12610.000000
13581.000000
14532.000000
15485.000000
16455.000000
17423.000000
18393.000000
19368.000000
20342.000000
21310.000000
22269.000000
23232.000000
24210.000000
25183.000000
26161.000000
27129.000000
28083.000000
29032.000000
29991.000000
30949.000000
31913.000000
32875.000000
33828.000000
34781.000000
35745.000000
36708.000000
37670.000000
38634.000000
39586.000000
40530.000000
41488.000000
42453.000000
43418.000000
44383.000000
45356.000000
46320.000000
47273.000000
48247.000000
49220.000000
50199.000000
51179.000000
52140.000000
53106.000000
54093.000000
55079.000000
56065.000000
57040.000000
58007.000000
58992.000000
59978.000000
60961.000000
61944.000000
62910.000000
63875.000000
64847.000000
65813.000000
66781.000000
67736.000000
68673.000000
69620.000000
70573.000000
71536.000000
72515.000000
73493.000000
74461.000000
75423.000000
76409.000000
77395.000000
78388.000000
79377.000000
80339.000000
81295.000000
82265.000000
83232.000000
84193.000000
85144.000000
86085.000000
87027.000000
87981.000000
88935.000000
89897.000000
90846.000000
91792.000000
92751.000000
93715.000000
94679.000000
95641.000000
96589.000000
97531.000000
98478.000000
99431.000000
100381.000000
101332.000000
102268.000000
103194.000000
104134.000000
105068.000000
106003.000000
106943.000000
107870.000000
108796.000000
109733.000000
110677.000000
111629.000000
112591.000000
113549.000000
114497.000000
115449.000000
116411.000000
117375.000000
118343.000000
119312.000000
120264.000000
121214.000000
122175.000000
123139.000000
124101.000000
125062.000000
126013.000000
126957.000000
127900.000000
128851.000000
129807.000000
130766.000000
131725.000000
132671.000000
133611.000000
134564.000000
135513.000000
136465.000000
137422.000000
138380.000000
139323.000000
140278.000000
141238.000000
142213.000000
143201.000000
144191.000000
145164.000000
146137.000000
147129.000000
148120.000000
149104.000000
150088.000000
151045.000000
151998.000000
152967.000000
153936.000000
154911.000000
155894.000000
156852.000000
157815.000000
158790.000000
159756.000000
160722.000000
161675.000000
162618.000000
163578.000000
164543.000000
165508.000000
166477.000000
167437.000000
168397.000000
169346.000000
170303.000000
171268.000000
172232.000000
173191.000000
174148.000000
175099.000000
176035.000000
176976.000000
177930.000000
178892.000000
179862.000000
180834.000000
181804.000000
182756.000000
183716.000000
184676.000000
185633.000000
186585.000000
187542.000000
188490.000000
189430.000000
190381.000000
191329.000000
192273.000000
193219.000000
194157.000000
195086.000000
196013.000000
196956.000000
197896.000000
198836.000000
199763.000000
200694.000000
201641.000000
202586.000000
203537.000000
204485.000000
205428.000000
206378.000000
207330.000000
208288.000000
209255.000000
210222.000000
211184.000000
212140.000000
213106.000000
214051.000000
214987.000000
215919.000000
216844.000000
217767.000000
218702.000000
219634.000000
220570.000000
221511.000000
222436.000000
223351.000000
224283.000000
225221.000000
226168.000000
227116.000000
228031.000000
228948.000000
229876.000000
230818.000000
231759.000000
232686.000000
233612.000000
234554.000000
235513.000000
236467.000000
237396.000000
238318.000000
239251.000000
240183.000000
241117.000000
242040.000000
242953.000000
243872.000000
244817.000000
245769.000000
246721.000000
247685.000000
248640.000000
249584.000000
250520.000000
251466.000000
252414.000000
253360.000000
254304.000000
255239.000000
256158.000000
257082.000000
258021.000000
258962.000000
259910.000000
260836.000000
261773.000000
262732.000000
263692.000000
264651.000000
265602.000000
266535.000000
267467.000000
268429.000000
269394.000000
270362.000000
271307.000000
272244.000000
273198.000000
274151.000000
275108.000000
276066.000000
277008.000000
277941.000000
278892.000000
279842.000000
280788.000000
281733.000000
282686.000000
283640.000000
284572.000000
285503.000000
286444.000000
287387.000000
288335.000000
289286.000000
290234.000000
291168.000000
292097.000000
293034.000000
293974.000000
294910.000000
295821.000000
296726.000000
297639.000000
298573.000000
299517.000000
300435.000000
301358.000000
302297.000000
303246.000000
304190.000000
305112.000000
306034.000000
306974.000000
307917.000000
308867.000000
309822.000000
310768.000000
311722.000000
312686.000000
313658.000000
314636.000000
315621.000000
316612.000000
317593.000000
318577.000000
319546.000000
320514.000000
321477.000000
322442.000000
323404.000000
324350.000000
325288.000000
326255.000000
327228.000000
328195.000000
329131.000000
330064.000000
331016.000000
331980.000000
332941.000000
333874.000000
334800.000000
335744.000000
336704.000000
337642.000000
338568.000000
339513.000000
340478.000000
341442.000000
342378.000000
343323.000000
344294.000000
345268.000000
346235.000000
347181.000000
348151.000000
349126.000000
350101.000000
351053.000000
352008.000000
352982.000000
353950.000000
354916.000000
355884.000000
356828.000000
357762.000000
358703.000000
359645.000000
360594.000000
361554.000000
362517.000000
363469.000000
364431.000000
365413.000000
366393.000000
367372.000000
368347.000000
369310.000000
370261.000000
371224.000000
372187.000000
373144.000000
374115.000000
375080.000000
376052.000000
377002.000000
377951.000000
378905.000000
379866.000000
380828.000000
381789.000000
382725.000000
383659.000000
384604.000000
385547.000000
386491.000000
387439.000000
388368.000000
389304.000000
390263.000000
391225.000000
392190.000000
393126.000000
394061.000000
395018.000000
395983.000000
396949.000000
397913.000000
398856.000000
399800.000000
400757.000000
401722.000000
402692.000000
403628.000000
404571.000000
405534.000000
406490.000000
407446.000000
408380.000000
409326.000000
410283.000000
411235.000000
412183.000000
413131.000000
414078.000000
415039.000000
416010.000000
416982.000000
417949.000000
418908.000000
419845.000000
420795.000000
421755.000000
422706.000000
423652.000000
424577.000000
425504.000000
426452.000000
427407.000000
428361.000000
429288.000000
430217.000000
431166.000000
432111.000000
433059.000000
433987.000000
434927.000000
435873.000000
436822.000000
437746.000000
438691.000000
439640.000000
440587.000000
441518.000000
442472.000000
443430.000000
444389.000000
445340.000000
446279.000000
447221.000000
448182.000000
449147.000000
450092.000000
451023.000000
451970.000000
452919.000000
453867.000000
454797.000000
455728.000000
456680.000000
457634.000000
458585.000000
459530.000000
460467.000000
461412.000000
462368.000000
463316.000000
464249.000000
465178.000000
466141.000000
467108.000000
468078.000000
469026.000000
469977.000000
470948.000000
471911.000000
472871.000000
473816.000000
474754.000000
475710.000000
476665.000000
477609.000000
478545.000000
479469.000000
480414.000000
481362.000000
482311.000000
483232.000000
484161.000000
485108.000000
486057.000000
487014.000000
487956.000000
488887.000000
489844.000000
490798.000000
491745.000000
492670.000000
493593.000000
494529.000000
495462.000000
496392.000000
497324.000000
498242.000000
499171.000000
500113.000000
501057.000000
501998.000000
502928.000000
503859.000000
504805.000000
505759.000000
506723.000000
507680.000000
508617.000000
509562.000000
510519.000000
511471.000000
512421.000000
513368.000000
514307.000000
515246.000000
516195.000000
517146.000000
518085.000000
519022.000000
519944.000000
520867.000000
521798.000000
522724.000000
523634.000000
524545.000000
525473.000000
526403.000000
527340.000000
528260.000000
529182.000000
530123.000000
531061.000000
532004.000000
532921.000000
533842.000000
534782.000000
535722.000000
536658.000000
537594.000000
538512.000000
539439.000000
540390.000000
541339.000000
542296.000000
543255.000000
544192.000000
545134.000000
546095.000000
547046.000000
547993.000000
548940.000000
549869.000000
550805.000000
551753.000000
552698.000000
553640.000000
554583.000000
555507.000000
556434.000000
557378.000000
558322.000000
559270.000000
560208.000000
561143.000000
562087.000000
563039.000000
563994.000000
564948.000000
565879.000000
566820.000000
567776.000000
568737.000000
569696.000000
570658.000000
571594.000000
572533.000000
573491.000000
574455.000000
575432.000000
576403.000000
577350.000000
578297.000000
579262.000000
580227.000000
581183.000000
582116.000000
583047.000000
583996.000000
584950.000000
585898.000000
586850.000000
587790.000000
588727.000000
589685.000000
590644.000000
591604.000000
592560.000000
593496.000000
594433.000000
595382.000000
596336.000000
597288.000000
598216.000000
599147.000000
600105.000000
601077.000000
602044.000000
603013.000000
603962.000000
604920.000000
605897.000000
606873.000000
607853.000000
608818.000000
609772.000000
610744.000000
611707.000000
612673.000000
613617.000000
614556.000000
615514.000000
616487.000000
617457.000000
618397.000000
619336.000000
620287.000000
621238.000000
622183.000000
623130.000000
624057.000000
624989.000000
625945.000000
626905.000000
627868.000000
628837.000000
629805.000000
630750.000000
631697.000000
632654.000000
633609.000000
634566.000000
635505.000000
636440.000000
637398.000000
638349.000000
639303.000000
640238.000000
641177.000000
642133.000000
643088.000000
644051.000000
645017.000000
645964.000000
646909.000000
647876.000000
648841.000000
649801.000000
650744.000000
651686.000000
652632.000000
653589.000000
654536.000000
655484.000000
656415.000000
657345.000000
658292.000000
659243.000000
660197.000000
661155.000000
662087.000000
663023.000000
663973.000000
664921.000000
665876.000000
666812.000000
667742.000000
668684.000000
669630.000000
670575.000000
671516.000000
672439.000000
673368.000000
674316.000000
675263.000000
676215.000000
677162.000000
678094.000000
679024.000000
679972.000000
680925.000000
681875.000000
682816.000000
683754.000000
684712.000000
685666.000000
686625.000000
687582.000000
688516.000000
689454.000000
690410.000000
691368.000000
692318.000000
693245.000000
694171.000000
695108.000000
696043.000000
696974.000000
697903.000000
698824.000000
699759.000000
700708.000000
701665.000000
702616.000000
703571.000000
704515.000000
705465.000000
706430.000000
707393.000000
708352.000000
709323.000000
710303.000000
711263.000000
712223.000000
713197.000000
714176.000000
715157.000000
716133.000000
717083.000000
718030.000000
718984.000000
719935.000000
720886.000000
721825.000000
722744.000000
723654.000000
724585.000000
725520.000000
726455.000000
727374.000000
728298.000000
729252.000000
730219.000000
731171.000000
732106.000000
733040.000000
733991.000000
734939.000000
735890.000000
736817.000000
737756.000000
738707.000000
739656.000000
740606.000000
741558.000000
742498.000000
743443.000000
744391.000000
745320.000000
746251.000000
747163.000000
748070.000000
748990.000000
749909.000000
750821.000000
751731.000000
752638.000000
753550.000000
754492.000000
755443.000000
756408.000000
757377.000000
758318.000000
759258.000000
760218.000000
761173.000000
762124.000000
763068.000000
763995.000000
764930.000000
765872.000000
766824.000000
767773.000000
768697.000000
769623.000000
770569.000000
771519.000000
772467.000000
773407.000000
774334.000000
775270.000000
776216.000000
777161.000000
778106.000000
779054.000000
779984.000000
780916.000000
781869.000000
782816.000000
783764.000000
784717.000000
785661.000000
786586.000000
787514.000000
788472.000000
789420.000000
790371.000000
791303.000000
792234.000000
793184.000000
794143.000000
795108.000000
796078.000000
797024.000000
797961.000000
798915.000000
799873.000000
800834.000000
801797.000000
802744.000000
803694.000000
804663.000000
805629.000000
806603.000000
807550.000000
808499.000000
809469.000000
810436.000000
811397.000000
812341.000000
813274.000000
814221.000000
815178.000000
816131.000000
817095.000000
818049.000000
818996.000000
819968.000000
820934.000000
821898.000000
822860.000000
823808.000000
824747.000000
825694.000000
826652.000000
827604.000000
828556.000000
829485.000000
830415.000000
831364.000000
832312.000000
833271.000000
834209.000000
835147.000000
836107.000000
837067.000000
838025.000000
838970.000000
839897.000000
840837.000000
841786.000000
842730.000000
843665.000000
844582.000000
845505.000000
846444.000000
847390.000000
848335.000000
849281.000000
850213.000000
851158.000000
852114.000000
853064.000000
854012.000000
854950.000000
855881.000000
856825.000000
857784.000000
858730.000000
859679.000000
860624.000000
861560.000000
862486.000000
863419.000000
864349.000000
865284.000000
866227.000000
867159.000000
868096.000000
869051.000000
870018.000000
870985.000000
871952.000000
872898.000000
873839.000000
874795.000000
875754.000000
876718.000000
877698.000000
878673.000000
879638.000000
880602.000000
881561.000000
882531.000000
883503.000000
884479.000000
885449.000000
886405.000000
887350.000000
888305.000000
889280.000000
890249.000000
891194.000000
892131.000000
893091.000000
894073.000000
895055.000000
896023.000000
896976.000000
897937.000000
898914.000000
899886.000000
900862.000000
901831.000000
902799.000000
