ECG (ms)
581.000000
1487.000000
2386.000000
3296.000000
4216.000000
5095.000000
6015.000000
6891.000000
7661.000000
8449.000000
9196.000000
9903.000000
10642.000000
11429.000000
12293.000000
13317.000000
14334.000000
15259.000000
16110.000000
17088.000000
18043.000000
18990.000000
19836.000000
20695.000000
21633.000000
22583.000000
23457.000000
24334.000000
25253.000000
26146.000000
26970.000000
27882.000000
28816.000000
29727.000000
30544.000000
31329.000000
32115.000000
33004.000000
33998.000000
34965.000000
35888.000000
36718.000000
37516.000000
38272.000000
39053.000000
39992.000000
40925.000000
41857.000000
42799.000000
43714.000000
44527.000000
45281.000000
46058.000000
46906.000000
47837.000000
48731.000000
49537.000000
50370.000000
51292.000000
52272.000000
53237.000000
54118.000000
55050.000000
56012.000000
56941.000000
57790.000000
58733.000000
59691.000000
60608.000000
61464.000000
62334.000000
63265.000000
64163.000000
65023.000000
65798.000000
66585.000000
67477.000000
68402.000000
69342.000000
70185.000000
70970.000000
71816.000000
72675.000000
73557.000000
74399.000000
75198.000000
76067.000000
76986.000000
77818.000000
78646.000000
79565.000000
80505.000000
81380.000000
82203.000000
83101.000000
84031.000000
84906.000000
85797.000000
86703.000000
87579.000000
88398.000000
89291.000000
90207.000000
91145.000000
92001.000000
92815.000000
93632.000000
94531.000000
95470.000000
96416.000000
97329.000000
98160.000000
98985.000000
99899.000000
100822.000000
101778.000000
102735.000000
103678.000000
104543.000000
105333.000000
106134.000000
107046.000000
108056.000000
109024.000000
109892.000000
110757.000000
111747.000000
112691.000000
113561.000000
114372.000000
115205.000000
115956.000000
116670.000000
117553.000000
118498.000000
119337.000000
120107.000000
120898.000000
121774.000000
122748.000000
123716.000000
124604.000000
125523.000000
126528.000000
127499.000000
128376.000000
129310.000000
130283.000000
131178.000000
132145.000000
133148.000000
134143.000000
135079.000000
135954.000000
136934.000000
137977.000000
138983.000000
139892.000000
140839.000000
141898.000000
142867.000000
143786.000000
144826.000000
145862.000000
146875.000000
147782.000000
148703.000000
149729.000000
150764.000000
151782.000000
152720.000000
153685.000000
154730.000000
155760.000000
156741.000000
157622.000000
158544.000000
159525.000000
160504.000000
161417.000000
162450.000000
163518.000000
164555.000000
165546.000000
166582.000000
167641.000000
168625.000000
169543.000000
170559.000000
171585.000000
172564.000000
173453.000000
174384.000000
175366.000000
176326.000000
177210.000000
178131.000000
178949.000000
179790.000000
180685.000000
181511.000000
182424.000000
183357.000000
184282.000000
185151.000000
186081.000000
187052.000000
187947.000000
188857.000000
189859.000000
190874.000000
191774.000000
192703.000000
193719.000000
194746.000000
195678.000000
196702.000000
197756.000000
198725.000000
199729.000000
200736.000000
201742.000000
202652.000000
203619.000000
204597.000000
205491.000000
206501.000000
207495.000000
208413.000000
209405.000000
210425.000000
211363.000000
212263.000000
213236.000000
214243.000000
215136.000000
216106.000000
217138.000000
218072.000000
219020.000000
220019.000000
220973.000000
221833.000000
222768.000000
223713.000000
224683.000000
225590.000000
226519.000000
227499.000000
228457.000000
229345.000000
230320.000000
231307.000000
232210.000000
233075.000000
234014.000000
235005.000000
235989.000000
236930.000000
237792.000000
238576.000000
239303.000000
240058.000000
240819.000000
241780.000000
242784.000000
243789.000000
244784.000000
245767.000000
246738.000000
247744.000000
248731.000000
249634.000000
250548.000000
251506.000000
252431.000000
253400.000000
254313.000000
255230.000000
256200.000000
257177.000000
258159.000000
259063.000000
259929.000000
260867.000000
261821.000000
262754.000000
263675.000000
264678.000000
265683.000000
266595.000000
267512.000000
268447.000000
269391.000000
270249.000000
271159.000000
272116.000000
273013.000000
273870.000000
274795.000000
275757.000000
276629.000000
277563.000000
278499.000000
279331.000000
280162.000000
281037.000000
281910.000000
282730.000000
283549.000000
284456.000000
285339.000000
286110.000000
286989.000000
288011.000000
288920.000000
289839.000000
290875.000000
291919.000000
292920.000000
293806.000000
294636.000000
295492.000000
296509.000000
297600.000000
298680.000000
299685.000000
300604.000000
301638.000000
302738.000000
303805.000000
304807.000000
305711.000000
306642.000000
307672.000000
308744.000000
309739.000000
310624.000000
311627.000000
312649.000000
313633.000000
314546.000000
315529.000000
316544.000000
317555.000000
318472.000000
319295.000000
320158.000000
321202.000000
322259.000000
323265.000000
324189.000000
325067.000000
326002.000000
327067.000000
328115.000000
329081.000000
330010.000000
331039.000000
332060.000000
332974.000000
333929.000000
334915.000000
335870.000000
336761.000000
337682.000000
338705.000000
339741.000000
340727.000000
341669.000000
342686.000000
343687.000000
344617.000000
345536.000000
346482.000000
347425.000000
348293.000000
349288.000000
350306.000000
351256.000000
352151.000000
353135.000000
354108.000000
355023.000000
356034.000000
357053.000000
358036.000000
358924.000000
359825.000000
360719.000000
361657.000000
362513.000000
363407.000000
364363.000000
365271.000000
366120.000000
367057.000000
368025.000000
368921.000000
369821.000000
370782.000000
371762.000000
372703.000000
373549.000000
374445.000000
375393.000000
376333.000000
377210.000000
378139.000000
379117.000000
380007.000000
380935.000000
381889.000000
382778.000000
383580.000000
384433.000000
385349.000000
386239.000000
387114.000000
388090.000000
389091.000000
389999.000000
390919.000000
391888.000000
392773.000000
393582.000000
394415.000000
395315.000000
396201.000000
397093.000000
398071.000000
399071.000000
399980.000000
400886.000000
401772.000000
402533.000000
403282.000000
404302.000000
405299.000000
406174.000000
407059.000000
408091.000000
409104.000000
410109.000000
411039.000000
411888.000000
412771.000000
413756.000000
414777.000000
415786.000000
416703.000000
417617.000000
418640.000000
419686.000000
420649.000000
421618.000000
422642.000000
423660.000000
424592.000000
425628.000000
426658.000000
427698.000000
428621.000000
429508.000000
430502.000000
431542.000000
432517.000000
433451.000000
434503.000000
435560.000000
436550.000000
437518.000000
438551.000000
439612.000000
440591.000000
441490.000000
442509.000000
443580.000000
444566.000000
445557.000000
446611.000000
447670.000000
448613.000000
449607.000000
450630.000000
451586.000000
452624.000000
453714.000000
454693.000000
455707.000000
456728.000000
457716.000000
458673.000000
459697.000000
460694.000000
461606.000000
462564.000000
463602.000000
464588.000000
465548.000000
466581.000000
467629.000000
468607.000000
469536.000000
470488.000000
471505.000000
472448.000000
473436.000000
474529.000000
475562.000000
476566.000000
477656.000000
478697.000000
479624.000000
480620.000000
481630.000000
482610.000000
483475.000000
484384.000000
485396.000000
486367.000000
487273.000000
488109.000000
488963.000000
489926.000000
490957.000000
491987.000000
492947.000000
493839.000000
494766.000000
495750.000000
496759.000000
497774.000000
498760.000000
499676.000000
500642.000000
501651.000000
502641.000000
503549.000000
504524.000000
505538.000000
506574.000000
507523.000000
508481.000000
509497.000000
510471.000000
511352.000000
512302.000000
513295.000000
514123.000000
514902.000000
515797.000000
516648.000000
517772.000000
518847.000000
519751.000000
520597.000000
521582.000000
522531.000000
523368.000000
524280.000000
525277.000000
526157.000000
527045.000000
528019.000000
528940.000000
529772.000000
530685.000000
531689.000000
532629.000000
533491.000000
534437.000000
535493.000000
536435.000000
537352.000000
538342.000000
539316.000000
540231.000000
541189.000000
542097.000000
542985.000000
543959.000000
544922.000000
545779.000000
546718.000000
547701.000000
548567.000000
549447.000000
550426.000000
551332.000000
552166.000000
553115.000000
554120.000000
555010.000000
555962.000000
556967.000000
557888.000000
558808.000000
559785.000000
560704.000000
561546.000000
562469.000000
563453.000000
564344.000000
565312.000000
566328.000000
567277.000000
568232.000000
569249.000000
570232.000000
571118.000000
572049.000000
573008.000000
573878.000000
574740.000000
575748.000000
576779.000000
577733.000000
578700.000000
579718.000000
580720.000000
581631.000000
582469.000000
583383.000000
584407.000000
585459.000000
586407.000000
587431.000000
588449.000000
589423.000000
590313.000000
591211.000000
592183.000000
593165.000000
594056.000000
595013.000000
596053.000000
596989.000000
597988.000000
599024.000000
599970.000000
601005.000000
601995.000000
602918.000000
603926.000000
604904.000000
605794.000000
606805.000000
607804.000000
608696.000000
609672.000000
610647.000000
611528.000000
612527.000000
613524.000000
614450.000000
615484.000000
616524.000000
617466.000000
618471.000000
619522.000000
620519.000000
621446.000000
622411.000000
623394.000000
624354.000000
625268.000000
626236.000000
627247.000000
628165.000000
629091.000000
630052.000000
630978.000000
631857.000000
632856.000000
633876.000000
634857.000000
635746.000000
636611.000000
637585.000000
638628.000000
639573.000000
640456.000000
641403.000000
642428.000000
643450.000000
644330.000000
645258.000000
646256.000000
647228.000000
648116.000000
649097.000000
650195.000000
651174.000000
652108.000000
653109.000000
654082.000000
654955.000000
655900.000000
656862.000000
657760.000000
658745.000000
659734.000000
660693.000000
661603.000000
662562.000000
663567.000000
664482.000000
665382.000000
666348.000000
667301.000000
668176.000000
669105.000000
670083.000000
671041.000000
671947.000000
672922.000000
673940.000000
674884.000000
675817.000000
676795.000000
677749.000000
678643.000000
679629.000000
680598.000000
681513.000000
682385.000000
683371.000000
684359.000000
685341.000000
686251.000000
687225.000000
688236.000000
689165.000000
690047.000000
691014.000000
692033.000000
692985.000000
693874.000000
694863.000000
695907.000000
696915.000000
697876.000000
698873.000000
699856.000000
700760.000000
701680.000000
702680.000000
703638.000000
704557.000000
705598.000000
706595.000000
707538.000000
708495.000000
709448.000000
710321.000000
711209.000000
712159.000000
713154.000000
714040.000000
715016.000000
716016.000000
716955.000000
717937.000000
718967.000000
719983.000000
720940.000000
721779.000000
722574.000000
723341.000000
724127.000000
725200.000000
726242.000000
727282.000000
728301.000000
729241.000000
730224.000000
731274.000000
732293.000000
733335.000000
734322.000000
735246.000000
736195.000000
737170.000000
738104.000000
738896.000000
739667.000000
740601.000000
741503.000000
742313.000000
743213.000000
744237.000000
745220.000000
746092.000000
746960.000000
747975.000000
748972.000000
749882.000000
750864.000000
751872.000000
752906.000000
753811.000000
754725.000000
755672.000000
756552.000000
757373.000000
758249.000000
759221.000000
760164.000000
760997.000000
761851.000000
762806.000000
763753.000000
764589.000000
765505.000000
766524.000000
767442.000000
768398.000000
769378.000000
770296.000000
771279.000000
772270.000000
773174.000000
774098.000000
775043.000000
775973.000000
776882.000000
777874.000000
778848.000000
779773.000000
780754.000000
781725.000000
782616.000000
783562.000000
784528.000000
785396.000000
786282.000000
787241.000000
788229.000000
789176.000000
790028.000000
790997.000000
792023.000000
793061.000000
793998.000000
794925.000000
795875.000000
796836.000000
797723.000000
798595.000000
799612.000000
800639.000000
801648.000000
802577.000000
803563.000000
804582.000000
805526.000000
806485.000000
807499.000000
808531.000000
809477.000000
810422.000000
811426.000000
812426.000000
813390.000000
814263.000000
815183.000000
816203.000000
817251.000000
818217.000000
819214.000000
820199.000000
821115.000000
822046.000000
823036.000000
823936.000000
824837.000000
825815.000000
826778.000000
827706.000000
828643.000000
829541.000000
830396.000000
831294.000000
832249.000000
833102.000000
833953.000000
834961.000000
836012.000000
836985.000000
837982.000000
839021.000000
840063.000000
841032.000000
842048.000000
843100.000000
844094.000000
845015.000000
846022.000000
847021.000000
847975.000000
848845.000000
849767.000000
850742.000000
851714.000000
852604.000000
853553.000000
854494.000000
855355.000000
856340.000000
857350.000000
858281.000000
859279.000000
860320.000000
861302.000000
862270.000000
863258.000000
864255.000000
865155.000000
866103.000000
867091.000000
868030.000000
868924.000000
869851.000000
870821.000000
871686.000000
872603.000000
873601.000000
874590.000000
875607.000000
876632.000000
877634.000000
878523.000000
879479.000000
880447.000000
881319.000000
882341.000000
883337.000000
884221.000000
885277.000000
886324.000000
887275.000000
888340.000000
889370.000000
890286.000000
891323.000000
892374.000000
893305.000000
894349.000000
895412.000000
896404.000000
897379.000000
898412.000000
899396.000000
900404.000000
901506.000000
902512.000000
903503.000000
904553.000000
905560.000000
906551.000000
907590.000000
908604.000000
909567.000000
910626.000000
911637.000000
912543.000000
913543.000000
914573.000000
915517.000000
916572.000000
917635.000000
918582.000000
919624.000000
920675.000000
921645.000000
922710.000000
923745.000000
924703.000000
925755.000000
926773.000000
927729.000000
928771.000000
929830.000000
930817.000000
931842.000000
932908.000000
933902.000000
934897.000000
935963.000000
936979.000000
937964.000000
939013.000000
940046.000000
940965.000000
941953.000000
943001.000000
944036.000000
944954.000000
945960.000000
946974.000000
947925.000000
948877.000000
949914.000000
950938.000000
951920.000000
952962.000000
953969.000000
954950.000000
955981.000000
957012.000000
957940.000000
958945.000000
959921.000000
960880.000000
961780.000000
962857.000000
963898.000000
964865.000000
965921.000000
966983.000000
967932.000000
968948.000000
970000.000000
970930.000000
971912.000000
972923.000000
973845.000000
974767.000000
975789.000000
976783.000000
977710.000000
978737.000000
979751.000000
980673.000000
981653.000000
982692.000000
983627.000000
984627.000000
985662.000000
986653.000000
987561.000000
988541.000000
989506.000000
990391.000000
991380.000000
992387.000000
993286.000000
994243.000000
995248.000000
996160.000000
997019.000000
997969.000000
998984.000000
999916.000000
1000876.000000
1001835.000000
1002743.000000
1003580.000000
1004467.000000
1005433.000000
1006345.000000
1007236.000000
1008189.000000
1009152.000000
1010013.000000
1010896.000000
1011805.000000
1012745.000000
1013615.000000
1014562.000000
1015561.000000
1016491.000000
1017457.000000
1018473.000000
1019411.000000
1020280.000000
1021213.000000
1022200.000000
1023087.000000
1024025.000000
1025048.000000
1025945.000000
1026876.000000
1027830.000000
1028703.000000
1029601.000000
1030589.000000
1031526.000000
1032369.000000
1033384.000000
1034398.000000
1035294.000000
1036232.000000
1037281.000000
1038239.000000
1039122.000000
1040120.000000
1041118.000000
1042014.000000
1042987.000000
1044019.000000
1044987.000000
1045962.000000
1047004.000000
1048014.000000
1049003.000000
1050045.000000
1051039.000000
1051977.000000
1052988.000000
1054046.000000
1054988.000000
1056058.000000
1057125.000000
1058125.000000
1059211.000000
1060251.000000
1061224.000000
1062274.000000
1063326.000000
1064307.000000
1065319.000000
1066380.000000
1067393.000000
1068279.000000
1069097.000000
1069898.000000
1070702.000000
1071617.000000
1072702.000000
1073767.000000
1074796.000000
1075811.000000
1076892.000000
1077966.000000
1079012.000000
1080017.000000
1081070.000000
1082121.000000
1083142.000000
1084166.000000
1085147.000000
1086027.000000
1086980.000000
1087979.000000
1088924.000000
1089846.000000
1090823.000000
1091810.000000
1092740.000000
1093741.000000
1094772.000000
1095694.000000
1096665.000000
1097665.000000
1098575.000000
1099594.000000
1100624.000000
1101561.000000
1102564.000000
1103645.000000
1104659.000000
1105558.000000
1106520.000000
1107435.000000
1108224.000000
1109018.000000
1109789.000000
1110577.000000
1111335.000000
1112080.000000
1113187.000000
1114131.000000
1115060.000000
1116079.000000
1117089.000000
1118015.000000
1118971.000000
1119947.000000
1120941.000000
1121811.000000
1122715.000000
1123676.000000
1124601.000000
1125447.000000
1126436.000000
1127473.000000
1128363.000000
1129270.000000
1130286.000000
1131271.000000
1132153.000000
1133151.000000
1134190.000000
1135081.000000
1135975.000000
1136961.000000
1137896.000000
1138771.000000
1139753.000000
1140788.000000
1141722.000000
1142667.000000
1143668.000000
1144650.000000
1145557.000000
1146564.000000
1147567.000000
1148542.000000
1149420.000000
1150368.000000
1151422.000000
1152349.000000
1153320.000000
1154345.000000
1155356.000000
1156386.000000
1157458.000000
1158444.000000
1159483.000000
1160531.000000
1161462.000000
1162427.000000
1163467.000000
1164454.000000
1165401.000000
1166479.000000
1167559.000000
1168544.000000
1169555.000000
1170573.000000
1171518.000000
1172508.000000
1173546.000000
1174489.000000
1175456.000000
1176470.000000
1177393.000000
1178384.000000
1179450.000000
1180405.000000
1181460.000000
1182509.000000
1183443.000000
1184471.000000
1185488.000000
1186401.000000
1187370.000000
1188393.000000
1189315.000000
1190312.000000
1191336.000000
1192249.000000
1193228.000000
1194271.000000
1195268.000000
1196168.000000
1197157.000000
1198189.000000
1199201.000000
1200155.000000
1201193.000000
1202227.000000
1203158.000000
1204195.000000
1205240.000000
1206204.000000
1207222.000000
1208266.000000
1209215.000000
1210120.000000
1211131.000000
1212192.000000
1213221.000000
1214225.000000
1215275.000000
1216288.000000
1217233.000000
1218290.000000
1219322.000000
1220294.000000
1221325.000000
1222329.000000
1223250.000000
1224194.000000
1225161.000000
1226026.000000
