ECG (ms)
39.000000
577.000000
1661.000000
2440.000000
3233.000000
4072.000000
4974.000000
5843.000000
6775.000000
7786.000000
8774.000000
9716.000000
10664.000000
11604.000000
12506.000000
13357.000000
14228.000000
15125.000000
16085.000000
17017.000000
17967.000000
18940.000000
19929.000000
20872.000000
21809.000000
22768.000000
23709.000000
24580.000000
25501.000000
26554.000000
27536.000000
28452.000000
29406.000000
30389.000000
31318.000000
32167.000000
33017.000000
33949.000000
34932.000000
35887.000000
36779.000000
37724.000000
38697.000000
39635.000000
40499.000000
41343.000000
42209.000000
43116.000000
43972.000000
44842.000000
45778.000000
46782.000000
47748.000000
48706.000000
49668.000000
50599.000000
51462.000000
52401.000000
53439.000000
54432.000000
55396.000000
56414.000000
57443.000000
58408.000000
59311.000000
60244.000000
61180.000000
62079.000000
62964.000000
63889.000000
64822.000000
65686.000000
66587.000000
67522.000000
68420.000000
69299.000000
70232.000000
71180.000000
72065.000000
72968.000000
73909.000000
74812.000000
75673.000000
76582.000000
77509.000000
78385.000000
79193.000000
80047.000000
80963.000000
81905.000000
82796.000000
83730.000000
84667.000000
85554.000000
86396.000000
87288.000000
88187.000000
89055.000000
89923.000000
90835.000000
91749.000000
92611.000000
93479.000000
94412.000000
95361.000000
96264.000000
97168.000000
98092.000000
98970.000000
99746.000000
100495.000000
101200.000000
101912.000000
102624.000000
103354.000000
104129.000000
104938.000000
105738.000000
106552.000000
107331.000000
108103.000000
108849.000000
109551.000000
110023.000000
110954.000000
111638.000000
112309.000000
113006.000000
113747.000000
114495.000000
115319.000000
116167.000000
116968.000000
117743.000000
118587.000000
119454.000000
120308.000000
121196.000000
122044.000000
122901.000000
123770.000000
124525.000000
125259.000000
126031.000000
126858.000000
127635.000000
128421.000000
129277.000000
130200.000000
131201.000000
132245.000000
133189.000000
134034.000000
134828.000000
135608.000000
136383.000000
137207.000000
137972.000000
138794.000000
139704.000000
140650.000000
141593.000000
142522.000000
143336.000000
144112.000000
144917.000000
145722.000000
146526.000000
147296.000000
148028.000000
148756.000000
149207.000000
150446.000000
151419.000000
152498.000000
153537.000000
154521.000000
155428.000000
156343.000000
157290.000000
158249.000000
159204.000000
160095.000000
160914.000000
161710.000000
162590.000000
163585.000000
164638.000000
165682.000000
166710.000000
167714.000000
168663.000000
169593.000000
170496.000000
171376.000000
172287.000000
173245.000000
174199.000000
175112.000000
176022.000000
176988.000000
177907.000000
178740.000000
179608.000000
180487.000000
181340.000000
182156.000000
182993.000000
183887.000000
184730.000000
185528.000000
186290.000000
187140.000000
188035.000000
188908.000000
189712.000000
190532.000000
191368.000000
192253.000000
193083.000000
193870.000000
194701.000000
195595.000000
196510.000000
197414.000000
198357.000000
199334.000000
200245.000000
201101.000000
201975.000000
202863.000000
203727.000000
204580.000000
205468.000000
206380.000000
207243.000000
208158.000000
209117.000000
210041.000000
210968.000000
211901.000000
212790.000000
213630.000000
214504.000000
215413.000000
216281.000000
217179.000000
218117.000000
219036.000000
219931.000000
220897.000000
221823.000000
222690.000000
223578.000000
224531.000000
225486.000000
226380.000000
227293.000000
228219.000000
229081.000000
229858.000000
230574.000000
231325.000000
232174.000000
233143.000000
233995.000000
234760.000000
235592.000000
236480.000000
237339.000000
238231.000000
239153.000000
240055.000000
240907.000000
241778.000000
242653.000000
243533.000000
244369.000000
245219.000000
246118.000000
247038.000000
247910.000000
248767.000000
249719.000000
250739.000000
251707.000000
252663.000000
253638.000000
254597.000000
255514.000000
256474.000000
257423.000000
258309.000000
259158.000000
260048.000000
260961.000000
261827.000000
262749.000000
263621.000000
264408.000000
265196.000000
265996.000000
266766.000000
267513.000000
268270.000000
269015.000000
269474.000000
270533.000000
271238.000000
271978.000000
272746.000000
273514.000000
274328.000000
275283.000000
276361.000000
277335.000000
278338.000000
279302.000000
280200.000000
281122.000000
282064.000000
282996.000000
283861.000000
284728.000000
285613.000000
286480.000000
287309.000000
288163.000000
289158.000000
290185.000000
291172.000000
292195.000000
293233.000000
294199.000000
295171.000000
296155.000000
297065.000000
297944.000000
298869.000000
299827.000000
300751.000000
301687.000000
302611.000000
303512.000000
304403.000000
305340.000000
306326.000000
307269.000000
308173.000000
309142.000000
310187.000000
311193.000000
312146.000000
313108.000000
314081.000000
315030.000000
315906.000000
316792.000000
317744.000000
318717.000000
319601.000000
320523.000000
321492.000000
322442.000000
323352.000000
324280.000000
325235.000000
326119.000000
327008.000000
327932.000000
328834.000000
329693.000000
330644.000000
331700.000000
332744.000000
333763.000000
334787.000000
335728.000000
336644.000000
337574.000000
338449.000000
339259.000000
340067.000000
340890.000000
341765.000000
342684.000000
343670.000000
344765.000000
345725.000000
346670.000000
347675.000000
348677.000000
349589.000000
350500.000000
351444.000000
352335.000000
353137.000000
353917.000000
354706.000000
355545.000000
356354.000000
357199.000000
358194.000000
359165.000000
360091.000000
361080.000000
362090.000000
363026.000000
363969.000000
364947.000000
365907.000000
366784.000000
367629.000000
368519.000000
369424.000000
370278.000000
371147.000000
372100.000000
373052.000000
373964.000000
374869.000000
375815.000000
376700.000000
377528.000000
378366.000000
379218.000000
380051.000000
380873.000000
381755.000000
382722.000000
383619.000000
384470.000000
385363.000000
386269.000000
387113.000000
387937.000000
388804.000000
389671.000000
390503.000000
391325.000000
392219.000000
393162.000000
394069.000000
394986.000000
395921.000000
396850.000000
397701.000000
398561.000000
399428.000000
400290.000000
401125.000000
402011.000000
402963.000000
403865.000000
404710.000000
405616.000000
406561.000000
407438.000000
408355.000000
409369.000000
410361.000000
411312.000000
412289.000000
413250.000000
414134.000000
415026.000000
416000.000000
416988.000000
417918.000000
418912.000000
419997.000000
421004.000000
421934.000000
422944.000000
423997.000000
424993.000000
425907.000000
426722.000000
427485.000000
428197.000000
428980.000000
430286.000000
431403.000000
432504.000000
433553.000000
434438.000000
435251.000000
436087.000000
436971.000000
437898.000000
438773.000000
439601.000000
440463.000000
441397.000000
442358.000000
443288.000000
444210.000000
445172.000000
446134.000000
447086.000000
447988.000000
448823.000000
449673.000000
450565.000000
451529.000000
452509.000000
453444.000000
454338.000000
455284.000000
456267.000000
457254.000000
458199.000000
459138.000000
460083.000000
461013.000000
461921.000000
462861.000000
463842.000000
464820.000000
465790.000000
466767.000000
467739.000000
468651.000000
469580.000000
470533.000000
471453.000000
472349.000000
473268.000000
474179.000000
475021.000000
475798.000000
476605.000000
477510.000000
478458.000000
479371.000000
480418.000000
481478.000000
482414.000000
483327.000000
484220.000000
485053.000000
485857.000000
486709.000000
487605.000000
488445.000000
489319.000000
490255.000000
491176.000000
492046.000000
492941.000000
493853.000000
494701.000000
495547.000000
496434.000000
497326.000000
498189.000000
499068.000000
499955.000000
500818.000000
501626.000000
502443.000000
503342.000000
504288.000000
505207.000000
506180.000000
507171.000000
508087.000000
508995.000000
509951.000000
510864.000000
511745.000000
512672.000000
513627.000000
514528.000000
515459.000000
516430.000000
517359.000000
518238.000000
519150.000000
520087.000000
520975.000000
521845.000000
522785.000000
523744.000000
524644.000000
525592.000000
526584.000000
527494.000000
528362.000000
529304.000000
530259.000000
531138.000000
532010.000000
532890.000000
533752.000000
534588.000000
535507.000000
536502.000000
537446.000000
538276.000000
539159.000000
540076.000000
540990.000000
541907.000000
542877.000000
543856.000000
544702.000000
545529.000000
546321.000000
547071.000000
547799.000000
548500.000000
549229.000000
549976.000000
550759.000000
551520.000000
552308.000000
553119.000000
553960.000000
554769.000000
555552.000000
556355.000000
557190.000000
558045.000000
558896.000000
559777.000000
560723.000000
561646.000000
562605.000000
563577.000000
564514.000000
565388.000000
566290.000000
567213.000000
568146.000000
569015.000000
569888.000000
570756.000000
571667.000000
572565.000000
573411.000000
574248.000000
575154.000000
576131.000000
577128.000000
578075.000000
579061.000000
580101.000000
581106.000000
582047.000000
583019.000000
584021.000000
584971.000000
585878.000000
586827.000000
587784.000000
588696.000000
589562.000000
590444.000000
591403.000000
592348.000000
593254.000000
594242.000000
595242.000000
596208.000000
597109.000000
598070.000000
599054.000000
599973.000000
600858.000000
601780.000000
602782.000000
603739.000000
604680.000000
605675.000000
606710.000000
607656.000000
608620.000000
609611.000000
610562.000000
611465.000000
612402.000000
613389.000000
614382.000000
615335.000000
616353.000000
617382.000000
618320.000000
619247.000000
620226.000000
621202.000000
622119.000000
623090.000000
624118.000000
625064.000000
626017.000000
627020.000000
628004.000000
628924.000000
629882.000000
630847.000000
631753.000000
632694.000000
633653.000000
634567.000000
635490.000000
636454.000000
637392.000000
638284.000000
639224.000000
640173.000000
641069.000000
641923.000000
642821.000000
643773.000000
644679.000000
645583.000000
646542.000000
647492.000000
648384.000000
649302.000000
650263.000000
651198.000000
652140.000000
653119.000000
654072.000000
654961.000000
655884.000000
656823.000000
657693.000000
658567.000000
659488.000000
660423.000000
661317.000000
662234.000000
663188.000000
664110.000000
664993.000000
665888.000000
666762.000000
667589.000000
668443.000000
669357.000000
670259.000000
671125.000000
672040.000000
673000.000000
673911.000000
674796.000000
675710.000000
676614.000000
677455.000000
678289.000000
679138.000000
680017.000000
680866.000000
681728.000000
682634.000000
683518.000000
684370.000000
685277.000000
686155.000000
686971.000000
687789.000000
688614.000000
689411.000000
690189.000000
690967.000000
691781.000000
692603.000000
693412.000000
694248.000000
695123.000000
695959.000000
696787.000000
697674.000000
698598.000000
699453.000000
700288.000000
701154.000000
702045.000000
702888.000000
703759.000000
704670.000000
705587.000000
706447.000000
707351.000000
708298.000000
709227.000000
710107.000000
711016.000000
711950.000000
712828.000000
713667.000000
714526.000000
715424.000000
716327.000000
717184.000000
718054.000000
718940.000000
719852.000000
720714.000000
721529.000000
722333.000000
723101.000000
723867.000000
724665.000000
725464.000000
726486.000000
727529.000000
728575.000000
729527.000000
730407.000000
731171.000000
731892.000000
732624.000000
733390.000000
734149.000000
734912.000000
735359.000000
736551.000000
737340.000000
738085.000000
738856.000000
739682.000000
740591.000000
741561.000000
742491.000000
743477.000000
744491.000000
745451.000000
746390.000000
747353.000000
748321.000000
749240.000000
750187.000000
751166.000000
752138.000000
753031.000000
753881.000000
754785.000000
755744.000000
756703.000000
757608.000000
758527.000000
759439.000000
760294.000000
761134.000000
762011.000000
763025.000000
764011.000000
764982.000000
765989.000000
766977.000000
767897.000000
768830.000000
769781.000000
770670.000000
771506.000000
772391.000000
773330.000000
774206.000000
775110.000000
776085.000000
777030.000000
777913.000000
778857.000000
779829.000000
780704.000000
781545.000000
782395.000000
783252.000000
784066.000000
784867.000000
785713.000000
786632.000000
787504.000000
788371.000000
789279.000000
790193.000000
791048.000000
791907.000000
792800.000000
793687.000000
794521.000000
795339.000000
796208.000000
797098.000000
797960.000000
798779.000000
799649.000000
800584.000000
801475.000000
802374.000000
803351.000000
804329.000000
805297.000000
806234.000000
807197.000000
808175.000000
809078.000000
809959.000000
810873.000000
811807.000000
812695.000000
813596.000000
814563.000000
815506.000000
816383.000000
817330.000000
818329.000000
819286.000000
820168.000000
821072.000000
822021.000000
822954.000000
823834.000000
824701.000000
825636.000000
826598.000000
827507.000000
828414.000000
829377.000000
830330.000000
831210.000000
832095.000000
833083.000000
834119.000000
835043.000000
836027.000000
837053.000000
837972.000000
838856.000000
839808.000000
840770.000000
841661.000000
842485.000000
843364.000000
844347.000000
845330.000000
846297.000000
847361.000000
848393.000000
849344.000000
850369.000000
851391.000000
852322.000000
853225.000000
854135.000000
855022.000000
855856.000000
856723.000000
857614.000000
858471.000000
859312.000000
860214.000000
861193.000000
862102.000000
862973.000000
863945.000000
864988.000000
865929.000000
866939.000000
868007.000000
868966.000000
869984.000000
870978.000000
871880.000000
872803.000000
873699.000000
874564.000000
875368.000000
876192.000000
877055.000000
877959.000000
878860.000000
879894.000000
880940.000000
881917.000000
882952.000000
883979.000000
884917.000000
885838.000000
886806.000000
887756.000000
888644.000000
889539.000000
890456.000000
891346.000000
892182.000000
893071.000000
894056.000000
895052.000000
895987.000000
896982.000000
897995.000000
898968.000000
899875.000000
900821.000000
901784.000000
902696.000000
903568.000000
904503.000000
905479.000000
906400.000000
907347.000000
908365.000000
909338.000000
910266.000000
911249.000000
912175.000000
913052.000000
913967.000000
914903.000000
915768.000000
916619.000000
917535.000000
918445.000000
919315.000000
920243.000000
921200.000000
922081.000000
922932.000000
923840.000000
924766.000000
925672.000000
926547.000000
927475.000000
928457.000000
929383.000000
930369.000000
931412.000000
932415.000000
933348.000000
934202.000000
935131.000000
936110.000000
937143.000000
938122.000000
939184.000000
940307.000000
941387.000000
942424.000000
942913.000000
943508.000000
944490.000000
945463.000000
946479.000000
947507.000000
948512.000000
949447.000000
950464.000000
951502.000000
952485.000000
953486.000000
954470.000000
955432.000000
956347.000000
957187.000000
958092.000000
959081.000000
960042.000000
960977.000000
962014.000000
963094.000000
964071.000000
965048.000000
966074.000000
967076.000000
968008.000000
968915.000000
969867.000000
970782.000000
971666.000000
972669.000000
973725.000000
974693.000000
975557.000000
976475.000000
977477.000000
978464.000000
979392.000000
980437.000000
981492.000000
982455.000000
983396.000000
984376.000000
985319.000000
986205.000000
987086.000000
987994.000000
988897.000000
989753.000000
990602.000000
991514.000000
992455.000000
993353.000000
994273.000000
995231.000000
996181.000000
997060.000000
997996.000000
998903.000000
999745.000000
1000531.000000
1001326.000000
1002144.000000
1002977.000000
1003793.000000
1004601.000000
1005467.000000
1006497.000000
1007564.000000
1008602.000000
1009555.000000
1010430.000000
1011277.000000
1012089.000000
1012881.000000
1013666.000000
1014509.000000
1015446.000000
1016289.000000
1017034.000000
1017792.000000
1018599.000000
1019449.000000
1020249.000000
1021040.000000
1021926.000000
1022856.000000
1023787.000000
1024715.000000
1025614.000000
1026509.000000
1027414.000000
1028333.000000
1029216.000000
1030102.000000
1031000.000000
1031909.000000
1032797.000000
1033674.000000
1034675.000000
1035724.000000
1036721.000000
1037647.000000
1038616.000000
1039619.000000
1040598.000000
1041476.000000
1042359.000000
1043317.000000
1044297.000000
1045167.000000
1046039.000000
1047381.000000
1048494.000000
1049552.000000
1050683.000000
1051774.000000
1052803.000000
1053725.000000
1054652.000000
1055589.000000
1056538.000000
1057452.000000
1058303.000000
1059237.000000
1060372.000000
1061433.000000
1062456.000000
1063546.000000
1064595.000000
1065561.000000
1066530.000000
1067513.000000
1068467.000000
1069376.000000
1070401.000000
1071663.000000
1072789.000000
1073818.000000
1074893.000000
1075939.000000
1076914.000000
1077818.000000
1078756.000000
1079731.000000
1080668.000000
1081568.000000
1082462.000000
1083322.000000
1084128.000000
1084968.000000
1085868.000000
1086824.000000
1087654.000000
1088439.000000
1089169.000000
1089881.000000
1090674.000000
1091535.000000
1092427.000000
1093375.000000
1094345.000000
1095260.000000
1096165.000000
1097059.000000
1097963.000000
1098835.000000
1099709.000000
1100644.000000
1101634.000000
1102617.000000
1103553.000000
1104517.000000
1105530.000000
1106591.000000
1107629.000000
1108562.000000
1109535.000000
1110545.000000
1111570.000000
1112506.000000
1113512.000000
1114557.000000
1115624.000000
1116634.000000
1117553.000000
1118511.000000
1119720.000000
1120836.000000
1121876.000000
1123022.000000
1124137.000000
1125154.000000
1126168.000000
1127191.000000
1128163.000000
1129123.000000
1130312.000000
1131443.000000
1132474.000000
1133479.000000
1134695.000000
1135893.000000
1136981.000000
1137936.000000
1138863.000000
1139829.000000
1140970.000000
1142020.000000
1143347.000000
1144582.000000
1145685.000000
1146772.000000
1147858.000000
1148856.000000
1149748.000000
1150699.000000
1151677.000000
1152615.000000
1153514.000000
1154355.000000
1155331.000000
1156680.000000
1157756.000000
1158775.000000
1159810.000000
1160814.000000
1161766.000000
1162674.000000
1163642.000000
1164663.000000
1165645.000000
1166534.000000
1167481.000000
1168482.000000
1169552.000000
1170567.000000
1171534.000000
1172541.000000
1173591.000000
1174647.000000
1175620.000000
1176599.000000
1177626.000000
1178573.000000
1179447.000000
1180477.000000
1181662.000000
1182757.000000
1184051.000000
1185224.000000
1186253.000000
1187202.000000
1188198.000000
1189223.000000
1190191.000000
1191242.000000
1192358.000000
1193377.000000
1194332.000000
1195368.000000
1196469.000000
1197493.000000
1198538.000000
1199631.000000
1200667.000000
1201641.000000
1202646.000000
1203680.000000
1204633.000000
1205659.000000
1206713.000000
1207702.000000
1208596.000000
1209521.000000
1210846.000000
1211967.000000
1213034.000000
1214167.000000
1215247.000000
1216233.000000
1217180.000000
1218162.000000
1219096.000000
1220008.000000
1220983.000000
1221977.000000
1222896.000000
1223767.000000
1224665.000000
1225622.000000
1226637.000000
1227647.000000
1228612.000000
1229626.000000
1230643.000000
1231609.000000
1232524.000000
1233465.000000
1234472.000000
1235403.000000
1236295.000000
1237230.000000
1238577.000000
1239713.000000
1240734.000000
1241806.000000
1242909.000000
1243987.000000
1244981.000000
1245893.000000
1246808.000000
1247731.000000
1248666.000000
1249552.000000
1250669.000000
1251761.000000
1252902.000000
1253917.000000
1254974.000000
1256040.000000
1257079.000000
1257998.000000
1258833.000000
1259720.000000
1261167.000000
1262380.000000
1263483.000000
1263929.000000
1264642.000000
1265692.000000
1266817.000000
1267960.000000
1269062.000000
1270073.000000
1271045.000000
1272055.000000
1273071.000000
1274064.000000
1275021.000000
1276008.000000
1276960.000000
1277871.000000
1278721.000000
1279638.000000
1280871.000000
1281980.000000
1283025.000000
1284111.000000
1285269.000000
1286314.000000
1287269.000000
1288206.000000
1289233.000000
1290262.000000
1291210.000000
1292121.000000
1293064.000000
1294000.000000
1294912.000000
1295785.000000
1296765.000000
1297828.000000
1298862.000000
1299823.000000
1300859.000000
1301893.000000
1302897.000000
1303834.000000
1304767.000000
1305711.000000
1306705.000000
1307617.000000
1308504.000000
1309445.000000
1310457.000000
1311491.000000
1312457.000000
1313372.000000
1314352.000000
1315346.000000
1316295.000000
1317201.000000
1318142.000000
1319135.000000
1320133.000000
1321112.000000
1322033.000000
1323079.000000
1324151.000000
1325168.000000
1326112.000000
1327140.000000
1328196.000000
1329257.000000
1330263.000000
1331168.000000
1332188.000000
1333216.000000
1334240.000000
1335169.000000
1336143.000000
1337196.000000
1338183.000000
1339072.000000
1339968.000000
1341068.000000
1342182.000000
1343218.000000
1344267.000000
1345313.000000
1346317.000000
1347296.000000
1348243.000000
1349256.000000
1350375.000000
1351454.000000
1352423.000000
1353443.000000
1354591.000000
1355660.000000
1356760.000000
1357816.000000
1358815.000000
1359727.000000
1360699.000000
1361840.000000
1362939.000000
1363947.000000
1364871.000000
1365950.000000
1367187.000000
1368305.000000
1369299.000000
1370248.000000
1371242.000000
1372242.000000
1373225.000000
1374113.000000
1374964.000000
1375877.000000
1376897.000000
1377958.000000
1378935.000000
1380199.000000
1381319.000000
1382349.000000
1383309.000000
1384293.000000
1385243.000000
1386125.000000
1387096.000000
1388138.000000
1389185.000000
1390182.000000
1391143.000000
1392156.000000
1393114.000000
1394043.000000
1395069.000000
1396042.000000
1397022.000000
1398016.000000
1399031.000000
1400017.000000
1400953.000000
1401912.000000
1402865.000000
1403818.000000
1404738.000000
1405599.000000
1406577.000000
1407651.000000
1408654.000000
1409580.000000
1410573.000000
1411636.000000
1412671.000000
1413606.000000
1414590.000000
1415685.000000
1416144.000000
1416749.000000
1417531.000000
1418354.000000
1419662.000000
1420746.000000
1421834.000000
1423014.000000
1424200.000000
1425227.000000
1426401.000000
1427586.000000
1428682.000000
1429598.000000
1430463.000000
1431438.000000
1432765.000000
1433846.000000
1434809.000000
1435915.000000
1437047.000000
1438151.000000
1439146.000000
1440136.000000
1441228.000000
1441736.000000
1442335.000000
1443237.000000
1444139.000000
1445057.000000
1446004.000000
1446950.000000
1447861.000000
1448711.000000
1449553.000000
1450450.000000
1451421.000000
1452425.000000
1453367.000000
1454322.000000
1455252.000000
1456160.000000
1457085.000000
1458418.000000
1459534.000000
1460548.000000
1461519.000000
1462585.000000
1463711.000000
1464761.000000
1465711.000000
1466647.000000
1467633.000000
1468662.000000
1469644.000000
1470541.000000
1471502.000000
1472528.000000
1473531.000000
1474486.000000
1475360.000000
1476270.000000
1477208.000000
1478173.000000
1479197.000000
1480164.000000
1481066.000000
1482056.000000
1483214.000000
1484269.000000
1485221.000000
1486204.000000
1487258.000000
1488239.000000
1489151.000000
1490131.000000
1491217.000000
1492263.000000
1493181.000000
1494212.000000
1495371.000000
1496487.000000
1497478.000000
1498476.000000
1499470.000000
1500395.000000
1501263.000000
1502164.000000
1503205.000000
1504288.000000
1505258.000000
1506301.000000
1507379.000000
1508411.000000
1509393.000000
1510347.000000
1511260.000000
1512171.000000
1512996.000000
1513771.000000
1514722.000000
1516172.000000
1517422.000000
1518664.000000
1519965.000000
1521164.000000
1522342.000000
1523428.000000
1524435.000000
1525370.000000
1526373.000000
1527408.000000
1528445.000000
1529411.000000
1530332.000000
1531254.000000
1532218.000000
1533172.000000
1534135.000000
1535287.000000
1536393.000000
1537449.000000
1538473.000000
1539571.000000
1540616.000000
1541662.000000
1542691.000000
1543627.000000
1544758.000000
1545870.000000
1546939.000000
1547919.000000
1548917.000000
1550047.000000
1551087.000000
1552008.000000
1552945.000000
1553902.000000
1554914.000000
1555834.000000
1556717.000000
1557684.000000
1558715.000000
1559648.000000
1560521.000000
1561488.000000
1562576.000000
1563581.000000
1564612.000000
1565637.000000
1566594.000000
1567475.000000
1568390.000000
1569732.000000
1570876.000000
1571960.000000
1573151.000000
1574439.000000
1575516.000000
1576496.000000
1577509.000000
1578510.000000
1579446.000000
1580291.000000
1581174.000000
1582082.000000
1583011.000000
1583896.000000
1584735.000000
1585593.000000
1586471.000000
1587394.000000
1588324.000000
1589192.000000
1590082.000000
1591018.000000
1592025.000000
1592937.000000
1593814.000000
1594745.000000
1595720.000000
1596674.000000
1597551.000000
1598489.000000
1599528.000000
1600586.000000
1601551.000000
1602650.000000
1603740.000000
1604812.000000
1605823.000000
1606791.000000
1607941.000000
1608983.000000
1609945.000000
1611256.000000
1612522.000000
1613704.000000
1614862.000000
1616078.000000
1617255.000000
1618248.000000
1619311.000000
1620564.000000
1621659.000000
1622621.000000
1623629.000000
1624722.000000
1625816.000000
1626812.000000
1627717.000000
1628648.000000
1629651.000000
1630611.000000
1631517.000000
1632426.000000
1633719.000000
1634843.000000
1635873.000000
1637054.000000
1638223.000000
1639295.000000
1640268.000000
1641281.000000
1642306.000000
1643288.000000
1644172.000000
1645093.000000
1646291.000000
1647455.000000
1648461.000000
1649379.000000
1650344.000000
1651348.000000
1652373.000000
1653349.000000
1654264.000000
1655276.000000
1656281.000000
1657191.000000
1658088.000000
1659130.000000
1660223.000000
1661264.000000
1662235.000000
1663257.000000
1664391.000000
1665391.000000
1666266.000000
1667075.000000
1668014.000000
1669312.000000
1670491.000000
1671608.000000
1672814.000000
1674012.000000
1675095.000000
1676103.000000
1677104.000000
1678175.000000
1679244.000000
1680206.000000
1681112.000000
1682069.000000
1683132.000000
1684214.000000
1685255.000000
1686225.000000
1687220.000000
1688259.000000
1689284.000000
1690282.000000
1691221.000000
1692464.000000
1693578.000000
1694594.000000
1695521.000000
1696578.000000
1697731.000000
1698776.000000
1699706.000000
1700717.000000
1701963.000000
1703088.000000
1704007.000000
1704821.000000
1705695.000000
1706773.000000
1707691.000000
1708695.000000
1710181.000000
1711506.000000
1712767.000000
1714091.000000
1715299.000000
1716380.000000
1717578.000000
1718791.000000
1719942.000000
1720999.000000
1722102.000000
1723204.000000
1724227.000000
1725194.000000
1726118.000000
1727110.000000
1728167.000000
1729170.000000
1730149.000000
1731065.000000
1731971.000000
1732916.000000
1733868.000000
1734823.000000
1735712.000000
1736601.000000
1737558.000000
1738516.000000
1739414.000000
1740295.000000
1741233.000000
1742202.000000
1743272.000000
1744301.000000
1745236.000000
1746217.000000
1747258.000000
1748278.000000
1749242.000000
1750236.000000
1751312.000000
1752406.000000
1753357.000000
1754303.000000
1755276.000000
1756242.000000
1757208.000000
1758363.000000
1759556.000000
1760626.000000
1761718.000000
1762840.000000
1763941.000000
1764915.000000
1765875.000000
1766886.000000
1767922.000000
1768927.000000
1769915.000000
1770920.000000
1771945.000000
1772853.000000
1773699.000000
1775062.000000
1776273.000000
1777384.000000
1778400.000000
1779554.000000
1780592.000000
1781548.000000
1782445.000000
1783699.000000
1784934.000000
1786060.000000
1787081.000000
1788154.000000
1789305.000000
1790349.000000
1791289.000000
1792200.000000
1793162.000000
1794146.000000
1795088.000000
1795962.000000
1796887.000000
1797877.000000
