ECG (ms)
159.000000
1039.000000
1915.000000
2781.000000
3643.000000
4499.000000
5345.000000
6186.000000
7038.000000
7896.000000
8764.000000
9633.000000
10500.000000
11366.000000
12230.000000
13082.000000
13938.000000
14796.000000
15649.000000
16502.000000
17356.000000
18217.000000
19082.000000
19951.000000
20824.000000
21693.000000
22534.000000
23365.000000
24183.000000
24998.000000
25815.000000
26634.000000
27460.000000
28305.000000
29159.000000
30029.000000
30907.000000
31788.000000
32673.000000
33547.000000
34422.000000
35298.000000
36172.000000
37050.000000
37937.000000
38827.000000
39721.000000
40616.000000
41511.000000
42405.000000
43282.000000
44164.000000
45045.000000
45917.000000
46785.000000
47655.000000
48544.000000
49441.000000
50346.000000
51261.000000
52171.000000
53079.000000
53958.000000
54821.000000
55662.000000
56486.000000
57282.000000
58085.000000
58895.000000
59716.000000
60549.000000
61391.000000
62232.000000
63070.000000
63915.000000
64765.000000
65620.000000
66481.000000
67346.000000
68218.000000
69090.000000
69959.000000
70826.000000
71684.000000
72535.000000
73385.000000
74235.000000
75091.000000
75956.000000
76824.000000
77704.000000
78584.000000
79469.000000
80359.000000
81222.000000
82083.000000
82927.000000
83744.000000
84564.000000
85380.000000
86192.000000
87005.000000
87817.000000
88643.000000
89481.000000
90320.000000
91166.000000
92024.000000
92894.000000
93778.000000
94667.000000
95560.000000
96448.000000
97321.000000
98193.000000
99059.000000
99918.000000
100784.000000
101656.000000
102527.000000
103398.000000
104261.000000
105120.000000
105968.000000
106818.000000
107670.000000
108523.000000
109378.000000
110235.000000
111096.000000
111955.000000
112810.000000
113657.000000
114502.000000
115340.000000
116153.000000
116958.000000
117767.000000
118573.000000
119382.000000
120199.000000
121020.000000
121846.000000
122686.000000
123527.000000
124379.000000
125235.000000
126103.000000
126975.000000
127848.000000
128721.000000
129591.000000
130449.000000
131311.000000
132171.000000
133040.000000
133916.000000
134799.000000
135686.000000
136578.000000
137474.000000
138368.000000
139247.000000
140130.000000
141014.000000
141895.000000
142775.000000
143651.000000
144525.000000
145398.000000
146270.000000
147136.000000
147998.000000
148855.000000
149707.000000
150550.000000
151397.000000
152251.000000
153102.000000
153931.000000
154751.000000
155572.000000
156394.000000
157215.000000
158043.000000
158880.000000
159728.000000
160583.000000
161440.000000
162299.000000
163160.000000
164022.000000
164882.000000
165739.000000
166599.000000
167465.000000
168332.000000
169204.000000
170077.000000
170956.000000
171834.000000
172711.000000
173585.000000
174460.000000
175335.000000
176212.000000
177093.000000
177971.000000
178861.000000
179750.000000
180637.000000
181522.000000
182401.000000
183272.000000
184144.000000
185016.000000
185892.000000
186768.000000
187652.000000
188542.000000
189442.000000
190337.000000
191232.000000
192113.000000
193001.000000
193878.000000
194729.000000
195570.000000
196409.000000
197237.000000
198072.000000
198917.000000
199770.000000
200634.000000
201505.000000
202384.000000
203265.000000
204143.000000
205008.000000
205877.000000
206748.000000
207625.000000
208513.000000
209406.000000
210300.000000
211188.000000
212082.000000
212964.000000
213843.000000
214723.000000
215606.000000
216495.000000
217388.000000
218283.000000
219178.000000
220075.000000
220963.000000
221856.000000
222751.000000
223647.000000
224543.000000
225445.000000
226343.000000
227243.000000
228124.000000
228997.000000
229861.000000
230703.000000
231523.000000
232347.000000
233173.000000
234000.000000
234828.000000
235663.000000
236504.000000
237354.000000
238216.000000
239086.000000
239969.000000
240856.000000
241746.000000
242635.000000
243512.000000
244396.000000
245283.000000
246176.000000
247076.000000
247980.000000
248883.000000
249789.000000
250687.000000
251579.000000
252475.000000
253384.000000
254298.000000
255212.000000
256118.000000
257016.000000
257910.000000
258804.000000
259711.000000
260629.000000
261546.000000
262467.000000
263385.000000
264296.000000
265198.000000
266100.000000
267007.000000
267918.000000
268834.000000
269765.000000
270693.000000
271612.000000
272523.000000
273419.000000
274309.000000
275200.000000
276095.000000
276991.000000
277886.000000
278786.000000
279686.000000
280586.000000
281482.000000
282358.000000
283232.000000
284106.000000
284984.000000
285862.000000
286738.000000
287594.000000
288431.000000
289261.000000
290090.000000
290915.000000
291747.000000
292591.000000
293441.000000
294298.000000
295155.000000
296014.000000
296875.000000
297739.000000
298608.000000
299487.000000
300374.000000
301262.000000
302155.000000
303054.000000
303952.000000
304836.000000
305725.000000
306616.000000
307512.000000
308414.000000
309310.000000
310207.000000
311102.000000
311995.000000
312877.000000
313762.000000
314651.000000
315539.000000
316433.000000
317323.000000
318212.000000
319099.000000
319988.000000
320870.000000
321750.000000
322620.000000
323496.000000
324376.000000
325255.000000
326141.000000
327034.000000
327931.000000
328825.000000
329717.000000
330605.000000
331491.000000
332363.000000
333239.000000
334115.000000
334989.000000
335863.000000
336748.000000
337632.000000
338521.000000
339409.000000
340296.000000
341179.000000
342059.000000
342927.000000
343794.000000
344664.000000
345540.000000
346420.000000
347307.000000
348205.000000
349111.000000
350022.000000
350946.000000
351864.000000
352772.000000
353644.000000
354498.000000
355346.000000
356183.000000
357020.000000
357862.000000
358711.000000
359573.000000
360444.000000
361326.000000
362221.000000
363125.000000
364031.000000
364940.000000
365833.000000
366726.000000
367621.000000
368513.000000
369413.000000
370310.000000
371216.000000
372120.000000
373016.000000
373910.000000
374801.000000
375671.000000
376538.000000
377410.000000
378287.000000
379167.000000
380051.000000
380937.000000
381834.000000
382733.000000
383628.000000
384521.000000
385398.000000
386272.000000
387147.000000
388021.000000
388900.000000
389786.000000
390679.000000
391574.000000
392469.000000
393364.000000
394250.000000
395139.000000
396039.000000
396940.000000
397838.000000
398747.000000
399656.000000
400563.000000
401471.000000
402366.000000
403264.000000
404166.000000
405072.000000
405982.000000
406898.000000
407813.000000
408727.000000
409639.000000
410535.000000
411437.000000
412347.000000
413263.000000
414177.000000
415087.000000
415993.000000
416893.000000
417782.000000
418674.000000
419572.000000
420470.000000
421363.000000
422252.000000
423144.000000
424027.000000
424913.000000
425802.000000
426698.000000
427593.000000
428491.000000
429391.000000
430290.000000
431189.000000
432076.000000
432961.000000
433851.000000
434745.000000
435636.000000
436524.000000
437412.000000
438295.000000
439165.000000
440039.000000
440904.000000
441745.000000
442578.000000
443411.000000
444240.000000
445072.000000
445914.000000
446770.000000
447638.000000
448508.000000
449382.000000
450254.000000
451122.000000
451990.000000
452864.000000
453738.000000
454618.000000
455503.000000
456390.000000
457285.000000
458187.000000
459085.000000
459979.000000
460862.000000
461743.000000
462624.000000
463506.000000
464385.000000
465266.000000
466153.000000
467038.000000
467931.000000
468823.000000
469715.000000
470595.000000
471477.000000
472369.000000
473267.000000
474169.000000
475066.000000
475966.000000
476863.000000
477758.000000
478653.000000
479551.000000
480453.000000
481362.000000
482266.000000
483170.000000
484069.000000
484964.000000
485849.000000
486731.000000
487615.000000
488498.000000
489383.000000
490276.000000
491166.000000
492070.000000
492979.000000
493886.000000
494789.000000
495677.000000
496563.000000
497454.000000
498352.000000
499255.000000
500170.000000
501089.000000
502004.000000
502919.000000
503816.000000
504715.000000
505616.000000
506525.000000
507440.000000
508350.000000
509264.000000
510173.000000
511071.000000
511966.000000
512863.000000
513764.000000
514667.000000
515570.000000
516475.000000
517379.000000
518279.000000
519173.000000
520070.000000
520972.000000
521873.000000
522775.000000
523682.000000
524585.000000
525489.000000
526391.000000
527281.000000
528163.000000
529027.000000
529874.000000
530723.000000
531566.000000
532412.000000
533265.000000
534117.000000
534982.000000
535856.000000
536742.000000
537637.000000
538538.000000
539436.000000
540337.000000
541232.000000
542117.000000
542995.000000
543872.000000
544760.000000
545657.000000
546556.000000
547455.000000
548356.000000
549246.000000
550129.000000
551017.000000
551916.000000
552814.000000
553711.000000
554602.000000
555486.000000
556361.000000
557241.000000
558127.000000
559012.000000
559897.000000
560784.000000
561679.000000
562561.000000
563453.000000
564356.000000
565257.000000
566154.000000
567052.000000
567937.000000
568825.000000
569722.000000
570624.000000
571526.000000
572417.000000
573311.000000
574222.000000
575131.000000
576038.000000
576928.000000
577822.000000
578723.000000
579626.000000
580528.000000
581420.000000
582310.000000
583213.000000
584122.000000
585023.000000
585923.000000
586817.000000
587706.000000
588587.000000
589468.000000
590361.000000
591260.000000
592156.000000
593053.000000
593949.000000
594844.000000
595725.000000
596605.000000
597488.000000
598372.000000
599241.000000
600085.000000
600926.000000
601763.000000
602598.000000
603430.000000
604268.000000
605110.000000
605962.000000
606821.000000
607686.000000
608553.000000
609424.000000
610299.000000
611172.000000
612041.000000
612912.000000
613790.000000
614670.000000
615549.000000
616427.000000
617308.000000
618182.000000
619058.000000
619944.000000
620833.000000
621726.000000
622618.000000
623512.000000
624398.000000
625287.000000
626188.000000
627090.000000
627990.000000
628888.000000
629784.000000
630676.000000
631565.000000
632454.000000
633353.000000
634254.000000
635163.000000
636075.000000
636993.000000
637906.000000
638816.000000
639709.000000
640603.000000
641497.000000
642388.000000
643274.000000
644158.000000
645043.000000
645925.000000
646802.000000
647675.000000
648536.000000
649396.000000
650263.000000
651129.000000
652001.000000
652877.000000
653752.000000
654622.000000
655492.000000
656355.000000
657215.000000
658086.000000
658941.000000
659778.000000
660609.000000
661444.000000
662275.000000
663114.000000
663971.000000
664834.000000
665707.000000
666583.000000
667463.000000
668342.000000
669222.000000
670115.000000
671014.000000
671912.000000
672807.000000
673701.000000
674592.000000
675469.000000
676345.000000
677224.000000
678107.000000
679001.000000
679893.000000
680788.000000
681681.000000
682574.000000
683458.000000
684344.000000
685233.000000
686128.000000
687025.000000
687920.000000
688810.000000
689700.000000
690579.000000
691461.000000
692347.000000
693243.000000
694146.000000
695053.000000
695963.000000
696871.000000
697772.000000
698663.000000
699552.000000
700440.000000
701339.000000
702240.000000
703135.000000
704023.000000
704909.000000
705786.000000
706660.000000
707538.000000
708425.000000
709313.000000
710200.000000
711086.000000
711972.000000
712849.000000
713730.000000
714620.000000
715516.000000
716415.000000
717310.000000
718203.000000
719090.000000
719973.000000
720863.000000
721761.000000
722654.000000
723547.000000
724440.000000
725327.000000
726213.000000
727114.000000
728021.000000
728925.000000
729828.000000
730728.000000
731614.000000
732499.000000
733394.000000
734294.000000
735197.000000
736101.000000
737006.000000
737904.000000
738800.000000
739707.000000
740621.000000
741534.000000
742442.000000
743343.000000
744229.000000
745113.000000
746006.000000
746905.000000
747798.000000
748688.000000
749572.000000
750452.000000
751335.000000
752230.000000
753127.000000
754029.000000
754932.000000
755827.000000
756725.000000
757638.000000
758556.000000
759471.000000
760383.000000
761297.000000
762197.000000
763096.000000
764002.000000
764917.000000
765832.000000
766607.000000
767651.000000
768557.000000
769457.000000
770362.000000
771276.000000
772189.000000
773103.000000
774017.000000
774916.000000
775819.000000
776742.000000
777661.000000
778579.000000
779493.000000
780399.000000
781302.000000
782220.000000
783138.000000
784052.000000
784962.000000
785865.000000
786768.000000
787684.000000
788606.000000
789530.000000
790452.000000
791370.000000
792279.000000
793188.000000
794111.000000
795033.000000
795948.000000
796862.000000
797773.000000
798667.000000
799559.000000
800460.000000
801366.000000
802269.000000
803171.000000
804060.000000
804945.000000
805836.000000
806729.000000
807614.000000
808495.000000
809366.000000
810237.000000
811110.000000
811997.000000
812892.000000
813790.000000
814690.000000
815595.000000
816489.000000
817392.000000
818299.000000
819204.000000
820103.000000
820991.000000
821878.000000
822779.000000
823680.000000
824581.000000
825487.000000
826383.000000
827270.000000
828166.000000
829067.000000
829972.000000
830873.000000
831767.000000
832661.000000
833556.000000
834464.000000
835379.000000
836292.000000
837201.000000
838099.000000
838985.000000
839870.000000
840764.000000
841654.000000
842537.000000
843400.000000
844255.000000
845095.000000
845920.000000
846741.000000
847562.000000
848388.000000
849217.000000
850049.000000
850901.000000
851763.000000
852628.000000
853495.000000
854368.000000
855237.000000
856105.000000
856982.000000
857861.000000
858743.000000
859624.000000
860496.000000
861367.000000
862254.000000
863141.000000
864025.000000
864904.000000
865776.000000
866652.000000
867543.000000
868435.000000
869328.000000
870220.000000
871110.000000
871993.000000
872880.000000
873776.000000
874682.000000
875587.000000
876494.000000
877398.000000
878299.000000
879191.000000
880090.000000
880993.000000
881893.000000
882787.000000
883668.000000
884543.000000
885427.000000
886317.000000
887210.000000
888102.000000
888985.000000
889869.000000
890757.000000
891653.000000
892547.000000
893299.000000
894317.000000
895196.000000
896075.000000
896963.000000
897850.000000
