ECG (ms)
287.000000
1061.000000
1853.000000
2704.000000
3611.000000
4480.000000
5341.000000
6194.000000
7137.000000
8075.000000
9016.000000
9923.000000
10822.000000
11710.000000
12599.000000
13517.000000
14522.000000
15575.000000
16559.000000
17432.000000
18225.000000
18997.000000
19827.000000
20953.000000
22012.000000
23035.000000
24013.000000
24983.000000
25943.000000
26877.000000
27814.000000
28745.000000
29693.000000
30673.000000
31639.000000
32635.000000
33608.000000
34658.000000
35719.000000
36749.000000
37774.000000
38836.000000
39833.000000
40824.000000
41837.000000
42813.000000
43816.000000
44848.000000
45901.000000
46950.000000
47953.000000
48889.000000
49790.000000
50674.000000
51664.000000
52668.000000
53655.000000
54691.000000
55699.000000
56651.000000
57590.000000
58490.000000
59369.000000
60242.000000
61111.000000
62015.000000
62871.000000
63722.000000
64595.000000
65597.000000
66519.000000
67443.000000
68387.000000
69327.000000
70221.000000
71129.000000
72032.000000
72930.000000
73863.000000
74765.000000
75724.000000
76660.000000
77655.000000
78640.000000
79604.000000
80517.000000
81408.000000
82268.000000
83117.000000
83954.000000
84819.000000
85663.000000
86527.000000
87407.000000
88299.000000
89264.000000
90182.000000
91054.000000
91908.000000
92750.000000
93625.000000
94537.000000
95463.000000
96365.000000
97237.000000
98099.000000
98998.000000
99956.000000
100894.000000
101864.000000
102807.000000
103764.000000
104667.000000
105612.000000
106558.000000
107503.000000
108446.000000
109449.000000
110356.000000
111235.000000
112105.000000
112971.000000
113831.000000
114674.000000
115553.000000
116474.000000
117401.000000
118451.000000
119535.000000
120625.000000
121604.000000
122479.000000
123337.000000
124170.000000
124991.000000
125797.000000
126614.000000
127448.000000
128294.000000
129137.000000
129984.000000
130824.000000
131738.000000
132697.000000
133577.000000
134484.000000
135365.000000
136274.000000
137135.000000
137981.000000
138853.000000
139740.000000
140686.000000
141599.000000
142558.000000
143563.000000
144521.000000
145479.000000
146429.000000
147388.000000
148324.000000
149221.000000
150137.000000
151028.000000
151901.000000
152745.000000
153556.000000
154380.000000
155250.000000
156153.000000
157096.000000
158071.000000
159010.000000
160007.000000
160999.000000
161991.000000
162946.000000
163876.000000
164789.000000
165661.000000
166585.000000
167582.000000
168564.000000
169480.000000
170390.000000
171317.000000
172206.000000
173110.000000
174028.000000
174966.000000
175888.000000
176791.000000
177702.000000
178632.000000
179515.000000
180423.000000
181320.000000
182194.000000
183033.000000
183928.000000
184838.000000
185818.000000
186805.000000
187813.000000
188861.000000
189962.000000
190988.000000
191961.000000
192864.000000
193741.000000
194599.000000
195453.000000
196324.000000
197193.000000
198067.000000
198973.000000
199890.000000
200828.000000
201767.000000
202773.000000
203789.000000
204816.000000
205814.000000
206755.000000
207674.000000
208587.000000
209536.000000
210511.000000
211496.000000
212401.000000
213371.000000
214301.000000
215197.000000
216097.000000
217024.000000
217994.000000
218907.000000
219780.000000
220664.000000
221582.000000
222509.000000
223606.000000
224720.000000
225807.000000
226771.000000
227686.000000
228611.000000
229477.000000
230345.000000
231219.000000
232091.000000
232935.000000
233864.000000
234795.000000
235712.000000
236610.000000
237487.000000
238354.000000
239247.000000
240169.000000
241073.000000
241952.000000
242824.000000
243804.000000
244795.000000
245755.000000
246772.000000
247767.000000
248709.000000
249612.000000
250501.000000
251390.000000
252292.000000
253144.000000
253987.000000
254842.000000
255703.000000
256567.000000
257422.000000
258321.000000
259247.000000
260173.000000
261070.000000
262022.000000
262939.000000
263822.000000
264750.000000
265736.000000
266644.000000
267510.000000
268415.000000
269282.000000
270128.000000
270985.000000
271857.000000
272762.000000
273655.000000
274548.000000
275452.000000
276371.000000
277282.000000
278186.000000
279162.000000
280072.000000
280985.000000
281947.000000
282963.000000
283904.000000
284835.000000
285786.000000
286693.000000
287604.000000
288743.000000
289950.000000
290982.000000
292025.000000
293099.000000
294156.000000
295168.000000
296152.000000
297120.000000
298030.000000
298924.000000
299850.000000
300736.000000
301608.000000
302499.000000
303397.000000
304273.000000
305218.000000
306225.000000
307193.000000
308080.000000
308966.000000
309837.000000
310701.000000
311588.000000
312493.000000
313401.000000
314296.000000
315198.000000
316098.000000
316983.000000
317899.000000
318808.000000
319713.000000
320600.000000
321502.000000
322414.000000
323291.000000
324192.000000
325087.000000
326051.000000
326940.000000
327848.000000
328786.000000
329725.000000
330621.000000
331607.000000
332594.000000
333524.000000
334429.000000
335367.000000
336302.000000
337196.000000
338106.000000
339031.000000
339966.000000
340876.000000
341790.000000
342711.000000
343641.000000
344548.000000
345442.000000
346340.000000
347240.000000
348120.000000
349057.000000
350045.000000
351000.000000
351906.000000
352815.000000
353711.000000
354657.000000
355556.000000
356588.000000
357628.000000
358655.000000
359658.000000
360599.000000
361527.000000
362457.000000
363380.000000
364291.000000
365180.000000
366045.000000
366962.000000
367892.000000
368829.000000
369715.000000
370624.000000
371528.000000
372426.000000
373320.000000
374179.000000
375046.000000
375936.000000
376816.000000
377719.000000
378638.000000
379548.000000
380458.000000
381398.000000
382370.000000
383313.000000
384245.000000
385162.000000
386068.000000
386978.000000
387887.000000
388787.000000
389685.000000
390609.000000
391555.000000
392453.000000
393351.000000
394248.000000
395198.000000
396122.000000
397082.000000
398009.000000
398883.000000
399765.000000
400643.000000
401542.000000
402555.000000
403591.000000
404619.000000
405596.000000
406573.000000
407603.000000
408567.000000
409498.000000
410395.000000
411307.000000
412255.000000
413306.000000
414303.000000
415290.000000
416259.000000
417229.000000
418231.000000
419322.000000
420361.000000
421299.000000
422204.000000
423112.000000
423988.000000
424880.000000
425745.000000
426626.000000
427568.000000
428529.000000
429464.000000
430423.000000
431379.000000
432291.000000
433183.000000
434085.000000
434972.000000
435849.000000
436720.000000
437601.000000
438526.000000
439446.000000
440337.000000
441259.000000
442193.000000
443117.000000
444092.000000
445029.000000
445949.000000
446866.000000
447795.000000
448792.000000
449747.000000
450752.000000
451733.000000
452697.000000
453630.000000
454546.000000
455481.000000
456430.000000
457346.000000
458287.000000
459243.000000
460198.000000
461107.000000
462037.000000
462966.000000
463872.000000
464790.000000
465731.000000
466617.000000
467525.000000
468448.000000
469368.000000
470283.000000
471197.000000
472140.000000
473099.000000
474007.000000
474935.000000
475865.000000
476760.000000
477666.000000
478592.000000
479480.000000
480385.000000
481302.000000
482244.000000
483171.000000
484160.000000
485101.000000
486009.000000
486915.000000
487890.000000
488940.000000
489988.000000
490957.000000
491884.000000
492862.000000
493952.000000
495015.000000
495969.000000
496912.000000
497849.000000
498798.000000
499715.000000
500683.000000
501667.000000
502660.000000
503599.000000
504557.000000
505501.000000
506427.000000
507396.000000
508359.000000
509280.000000
510171.000000
511077.000000
511983.000000
512902.000000
513808.000000
514760.000000
515721.000000
516671.000000
517587.000000
518522.000000
519459.000000
520380.000000
521289.000000
522194.000000
523078.000000
523971.000000
524858.000000
525765.000000
526647.000000
527570.000000
528489.000000
529391.000000
530285.000000
531222.000000
532194.000000
533158.000000
534083.000000
535008.000000
535936.000000
536834.000000
537719.000000
538632.000000
539522.000000
540435.000000
541383.000000
542329.000000
543254.000000
544158.000000
545125.000000
546072.000000
547002.000000
547910.000000
548828.000000
549752.000000
550654.000000
551578.000000
552552.000000
553536.000000
554499.000000
555468.000000
556570.000000
557574.000000
558580.000000
559594.000000
560572.000000
561514.000000
562428.000000
563349.000000
564274.000000
565215.000000
566125.000000
567050.000000
567977.000000
568871.000000
569755.000000
570664.000000
571562.000000
572441.000000
573355.000000
574264.000000
575186.000000
576094.000000
577024.000000
577951.000000
578957.000000
580148.000000
581303.000000
582342.000000
583370.000000
584385.000000
585323.000000
586234.000000
587160.000000
588107.000000
589090.000000
590125.000000
591155.000000
592129.000000
593079.000000
594025.000000
595006.000000
595938.000000
596866.000000
597798.000000
598728.000000
599610.000000
600545.000000
601476.000000
602386.000000
603316.000000
604244.000000
605157.000000
606098.000000
607052.000000
607976.000000
608874.000000
609781.000000
610705.000000
611624.000000
612525.000000
613447.000000
614389.000000
615316.000000
616311.000000
617324.000000
618359.000000
619342.000000
620305.000000
621308.000000
622253.000000
623205.000000
624206.000000
625168.000000
626146.000000
627113.000000
628045.000000
628980.000000
629928.000000
630868.000000
631745.000000
632605.000000
633548.000000
634460.000000
635381.000000
636319.000000
637239.000000
638143.000000
639070.000000
640000.000000
640916.000000
641865.000000
642852.000000
643765.000000
644713.000000
645762.000000
646826.000000
647850.000000
648840.000000
649941.000000
651079.000000
652195.000000
653232.000000
654365.000000
655519.000000
656579.000000
657655.000000
658737.000000
659758.000000
660763.000000
661712.000000
662621.000000
663513.000000
664451.000000
665389.000000
666330.000000
667273.000000
668227.000000
669233.000000
670237.000000
671214.000000
672201.000000
673191.000000
674148.000000
675068.000000
676024.000000
676962.000000
677888.000000
678842.000000
679799.000000
680722.000000
681687.000000
682674.000000
683636.000000
684541.000000
685452.000000
686355.000000
687247.000000
688125.000000
689034.000000
689964.000000
690919.000000
691869.000000
692845.000000
693788.000000
694697.000000
695638.000000
696582.000000
697500.000000
698408.000000
699351.000000
700284.000000
701199.000000
702129.000000
703090.000000
704031.000000
704940.000000
705859.000000
706814.000000
707751.000000
708662.000000
709624.000000
710590.000000
711523.000000
712459.000000
713421.000000
714354.000000
715276.000000
716247.000000
717220.000000
718156.000000
719082.000000
720019.000000
720983.000000
721918.000000
722866.000000
723814.000000
724738.000000
725707.000000
726718.000000
727794.000000
728815.000000
729831.000000
730833.000000
731764.000000
732691.000000
733696.000000
734657.000000
735568.000000
736617.000000
737757.000000
738971.000000
740081.000000
741122.000000
742105.000000
743113.000000
744116.000000
745116.000000
746141.000000
747148.000000
748130.000000
749108.000000
750065.000000
751041.000000
752000.000000
752965.000000
753900.000000
754829.000000
755796.000000
756759.000000
757697.000000
758656.000000
759637.000000
760671.000000
761648.000000
762617.000000
763627.000000
764607.000000
765562.000000
766485.000000
767414.000000
768383.000000
769328.000000
770307.000000
771348.000000
772356.000000
773285.000000
774244.000000
775293.000000
776384.000000
777365.000000
778295.000000
779207.000000
780081.000000
780951.000000
781848.000000
782732.000000
783605.000000
784535.000000
785473.000000
786397.000000
787329.000000
788333.000000
789318.000000
790305.000000
791254.000000
792309.000000
793297.000000
794228.000000
795211.000000
796384.000000
797636.000000
798769.000000
799852.000000
800883.000000
801837.000000
802741.000000
803647.000000
804588.000000
805519.000000
806422.000000
807353.000000
808279.000000
809218.000000
810151.000000
811074.000000
811985.000000
812910.000000
813815.000000
814748.000000
815711.000000
816635.000000
817599.000000
818539.000000
819490.000000
820413.000000
821368.000000
822322.000000
823225.000000
824177.000000
825185.000000
826162.000000
827098.000000
828078.000000
829038.000000
830022.000000
830952.000000
831904.000000
832862.000000
833797.000000
834760.000000
835781.000000
836730.000000
837683.000000
838638.000000
839603.000000
840528.000000
841474.000000
842417.000000
843334.000000
844272.000000
845226.000000
846198.000000
847157.000000
848110.000000
849070.000000
850017.000000
850944.000000
851875.000000
852802.000000
853705.000000
854708.000000
855683.000000
856654.000000
857581.000000
858591.000000
859601.000000
860532.000000
861481.000000
862446.000000
863432.000000
864379.000000
865310.000000
866210.000000
867062.000000
867952.000000
868917.000000
869951.000000
871012.000000
872062.000000
873131.000000
874136.000000
875130.000000
876039.000000
877000.000000
877948.000000
878889.000000
879803.000000
880708.000000
881605.000000
882484.000000
883389.000000
884316.000000
885225.000000
886143.000000
887111.000000
888057.000000
889063.000000
890055.000000
891055.000000
892060.000000
893066.000000
894068.000000
895109.000000
896142.000000
897086.000000
