ECG (ms)
533.000000
1300.000000
2083.000000
2866.000000
3656.000000
4436.000000
5229.000000
5999.000000
6775.000000
7555.000000
8333.000000
9107.000000
9879.000000
10641.000000
11404.000000
12187.000000
12969.000000
13746.000000
14529.000000
15309.000000
16072.000000
16830.000000
17610.000000
18388.000000
19162.000000
19938.000000
20707.000000
21468.000000
22235.000000
23008.000000
23797.000000
24577.000000
25364.000000
26148.000000
26924.000000
27700.000000
28487.000000
29265.000000
30047.000000
30820.000000
31582.000000
32365.000000
33151.000000
33925.000000
34709.000000
35486.000000
36264.000000
37060.000000
37837.000000
38616.000000
39373.000000
40134.000000
40913.000000
41693.000000
42474.000000
43252.000000
44030.000000
44804.000000
45570.000000
46355.000000
47132.000000
47909.000000
48679.000000
49445.000000
50209.000000
50973.000000
51740.000000
52508.000000
53274.000000
54036.000000
54796.000000
55560.000000
56325.000000
57081.000000
57837.000000
58588.000000
59321.000000
60061.000000
60813.000000
61567.000000
62333.000000
63092.000000
63853.000000
64617.000000
65378.000000
66134.000000
66880.000000
67630.000000
68390.000000
69141.000000
69901.000000
70652.000000
71409.000000
72167.000000
72935.000000
73714.000000
74492.000000
75263.000000
76037.000000
76800.000000
77561.000000
78333.000000
79100.000000
79860.000000
80622.000000
81392.000000
82165.000000
82928.000000
83695.000000
84450.000000
85208.000000
85968.000000
86727.000000
87468.000000
88201.000000
88935.000000
89660.000000
90408.000000
91159.000000
91904.000000
92643.000000
93371.000000
94098.000000
94807.000000
95515.000000
96228.000000
96961.000000
97691.000000
98350.000000
98997.000000
99678.000000
100409.000000
101149.000000
101907.000000
102676.000000
103450.000000
104233.000000
105002.000000
105770.000000
106553.000000
107330.000000
108092.000000
108863.000000
109658.000000
110484.000000
111300.000000
112055.000000
112746.000000
113418.000000
114122.000000
114903.000000
115775.000000
116687.000000
117579.000000
118460.000000
119331.000000
120186.000000
121023.000000
121844.000000
122690.000000
123536.000000
124373.000000
125202.000000
126037.000000
126871.000000
127699.000000
128509.000000
129329.000000
130135.000000
130943.000000
131729.000000
132514.000000
133301.000000
134089.000000
134883.000000
135682.000000
136501.000000
137314.000000
138124.000000
138914.000000
139709.000000
140503.000000
141306.000000
142111.000000
142909.000000
143700.000000
144473.000000
145250.000000
146017.000000
146789.000000
147574.000000
148354.000000
149140.000000
149914.000000
150684.000000
151458.000000
152235.000000
153009.000000
153776.000000
154554.000000
155326.000000
156100.000000
156870.000000
157641.000000
158418.000000
159189.000000
159947.000000
160703.000000
161462.000000
162223.000000
162980.000000
163737.000000
164495.000000
165246.000000
165985.000000
166715.000000
167439.000000
168171.000000
168909.000000
169658.000000
170408.000000
171161.000000
171905.000000
172658.000000
173405.000000
174143.000000
174880.000000
175608.000000
176348.000000
177098.000000
177850.000000
178584.000000
179324.000000
180074.000000
180823.000000
181557.000000
182287.000000
183025.000000
183764.000000
184501.000000
185226.000000
185956.000000
186686.000000
187421.000000
188150.000000
188875.000000
189608.000000
190344.000000
191092.000000
191835.000000
192565.000000
193292.000000
194023.000000
194750.000000
195481.000000
196212.000000
196937.000000
197676.000000
198417.000000
199167.000000
199930.000000
200700.000000
201449.000000
202203.000000
202954.000000
203687.000000
204405.000000
205115.000000
205838.000000
206561.000000
207280.000000
208012.000000
208744.000000
209475.000000
210224.000000
210978.000000
211712.000000
212444.000000
213166.000000
213888.000000
214609.000000
215322.000000
216029.000000
216732.000000
217418.000000
218103.000000
218814.000000
219540.000000
220255.000000
220960.000000
221656.000000
222343.000000
223025.000000
223720.000000
224426.000000
225139.000000
225855.000000
226576.000000
227294.000000
228011.000000
228734.000000
229467.000000
230213.000000
230952.000000
231683.000000
232407.000000
233113.000000
233813.000000
234518.000000
235230.000000
235914.000000
236559.000000
237212.000000
237898.000000
238629.000000
239393.000000
240180.000000
240979.000000
241777.000000
242564.000000
243332.000000
244081.000000
244824.000000
245556.000000
246348.000000
247193.000000
248047.000000
248896.000000
249721.000000
250524.000000
251305.000000
252084.000000
252880.000000
253676.000000
254490.000000
255313.000000
256149.000000
256979.000000
257797.000000
258611.000000
259420.000000
260220.000000
261015.000000
261799.000000
262591.000000
263384.000000
264168.000000
264959.000000
265743.000000
266540.000000
267331.000000
268121.000000
268903.000000
269701.000000
270505.000000
271313.000000
272122.000000
272935.000000
273758.000000
274560.000000
275362.000000
276175.000000
276986.000000
277789.000000
278589.000000
279392.000000
280195.000000
281002.000000
281820.000000
282640.000000
283476.000000
284320.000000
285157.000000
285973.000000
286790.000000
287602.000000
288389.000000
289175.000000
289982.000000
290795.000000
291597.000000
292387.000000
293176.000000
293969.000000
294768.000000
295554.000000
296337.000000
297113.000000
297889.000000
298680.000000
299475.000000
300265.000000
301051.000000
301842.000000
302638.000000
303430.000000
304219.000000
305015.000000
305800.000000
306584.000000
307362.000000
308143.000000
308920.000000
309703.000000
310496.000000
311291.000000
312096.000000
312894.000000
313695.000000
314479.000000
315258.000000
316030.000000
316792.000000
317569.000000
318368.000000
319175.000000
319964.000000
320745.000000
321517.000000
322287.000000
323074.000000
323851.000000
324628.000000
325397.000000
326172.000000
326961.000000
327769.000000
328586.000000
329390.000000
330185.000000
330974.000000
331759.000000
332560.000000
333352.000000
334130.000000
334912.000000
335689.000000
336472.000000
337256.000000
338035.000000
338802.000000
339570.000000
340328.000000
341090.000000
341826.000000
342598.000000
343418.000000
344243.000000
345051.000000
345836.000000
346605.000000
347366.000000
348131.000000
348906.000000
349693.000000
350516.000000
351351.000000
352198.000000
353031.000000
353875.000000
354711.000000
355531.000000
356342.000000
357141.000000
357932.000000
358721.000000
359513.000000
360294.000000
361075.000000
361847.000000
362630.000000
363411.000000
364199.000000
364977.000000
365755.000000
366534.000000
367322.000000
368095.000000
368859.000000
369620.000000
370387.000000
371153.000000
371913.000000
372686.000000
373454.000000
374223.000000
374988.000000
375742.000000
376497.000000
377247.000000
377987.000000
378748.000000
379514.000000
380276.000000
381032.000000
381793.000000
382555.000000
383307.000000
384063.000000
384816.000000
385578.000000
386349.000000
387129.000000
387904.000000
388675.000000
389434.000000
390183.000000
390931.000000
391680.000000
392436.000000
393208.000000
393969.000000
394733.000000
395495.000000
396261.000000
397039.000000
397819.000000
398593.000000
399365.000000
400133.000000
400891.000000
401665.000000
402446.000000
403216.000000
403982.000000
404741.000000
405505.000000
406264.000000
407029.000000
407789.000000
408546.000000
409245.000000
409929.000000
410627.000000
411346.000000
412091.000000
412850.000000
413629.000000
414401.000000
415177.000000
415947.000000
416724.000000
417498.000000
418270.000000
419042.000000
419802.000000
420570.000000
421345.000000
422116.000000
422885.000000
423661.000000
424450.000000
425239.000000
426029.000000
426808.000000
427598.000000
428383.000000
429169.000000
429952.000000
430739.000000
431520.000000
432314.000000
433097.000000
433875.000000
434653.000000
435424.000000
436196.000000
436979.000000
437751.000000
438515.000000
439286.000000
440070.000000
440863.000000
441653.000000
442449.000000
443249.000000
444045.000000
444831.000000
445630.000000
446448.000000
447247.000000
448043.000000
448835.000000
449620.000000
450394.000000
451173.000000
451950.000000
452733.000000
453517.000000
454297.000000
455077.000000
455856.000000
456636.000000
457428.000000
458228.000000
459022.000000
459812.000000
460589.000000
461350.000000
462133.000000
462903.000000
463677.000000
464449.000000
465227.000000
466015.000000
466797.000000
467575.000000
468358.000000
469146.000000
469924.000000
470700.000000
471490.000000
472291.000000
473095.000000
473903.000000
474697.000000
475497.000000
476305.000000
477113.000000
477914.000000
478711.000000
479496.000000
480270.000000
481052.000000
481831.000000
482626.000000
483415.000000
484203.000000
484982.000000
485773.000000
486578.000000
487380.000000
488172.000000
488958.000000
489722.000000
490482.000000
491247.000000
492030.000000
492804.000000
493584.000000
494365.000000
495161.000000
495950.000000
496747.000000
497538.000000
498332.000000
499104.000000
499884.000000
500671.000000
501454.000000
502244.000000
503051.000000
503862.000000
504668.000000
505468.000000
506271.000000
507069.000000
507856.000000
508624.000000
509398.000000
510177.000000
510956.000000
511736.000000
512510.000000
513285.000000
514064.000000
514842.000000
515620.000000
516421.000000
517203.000000
517983.000000
518770.000000
519578.000000
520388.000000
521200.000000
522004.000000
522788.000000
523571.000000
524361.000000
525149.000000
525937.000000
526715.000000
527487.000000
528277.000000
529075.000000
529886.000000
530690.000000
531480.000000
532259.000000
533049.000000
533845.000000
534650.000000
535470.000000
536269.000000
537074.000000
537882.000000
538676.000000
539459.000000
540225.000000
540983.000000
541758.000000
542536.000000
543319.000000
544106.000000
544906.000000
545711.000000
546506.000000
547300.000000
548087.000000
548884.000000
549671.000000
550457.000000
551242.000000
552028.000000
552821.000000
553618.000000
554407.000000
555209.000000
556007.000000
556788.000000
557556.000000
558331.000000
559097.000000
559858.000000
560611.000000
561364.000000
562135.000000
562902.000000
563657.000000
564411.000000
565185.000000
565981.000000
566768.000000
567537.000000
568316.000000
569100.000000
569875.000000
570650.000000
571421.000000
572182.000000
572961.000000
573749.000000
574548.000000
575330.000000
576099.000000
576869.000000
577639.000000
578413.000000
579190.000000
579968.000000
580750.000000
581523.000000
582299.000000
583080.000000
583865.000000
584655.000000
585453.000000
586249.000000
587042.000000
587834.000000
588634.000000
589424.000000
590199.000000
590971.000000
591745.000000
592514.000000
593287.000000
594068.000000
594854.000000
595648.000000
596444.000000
597241.000000
598029.000000
598806.000000
599579.000000
600356.000000
601134.000000
601906.000000
602676.000000
603472.000000
604272.000000
605079.000000
605875.000000
606655.000000
607440.000000
608217.000000
608982.000000
609748.000000
610522.000000
611308.000000
612106.000000
612916.000000
613708.000000
614500.000000
615321.000000
616123.000000
616920.000000
617707.000000
618495.000000
619278.000000
620057.000000
620825.000000
621582.000000
622334.000000
623101.000000
623879.000000
624658.000000
625430.000000
626209.000000
626958.000000
627714.000000
628471.000000
629233.000000
630002.000000
630770.000000
631546.000000
632331.000000
633116.000000
633908.000000
634680.000000
635450.000000
636211.000000
636972.000000
637715.000000
638462.000000
639216.000000
639976.000000
640753.000000
641510.000000
642269.000000
643015.000000
643760.000000
644498.000000
645214.000000
645922.000000
646638.000000
647364.000000
648106.000000
648863.000000
649610.000000
650341.000000
651082.000000
651817.000000
652562.000000
653291.000000
654022.000000
654781.000000
655542.000000
656299.000000
657052.000000
657804.000000
658568.000000
659324.000000
660075.000000
660824.000000
661587.000000
662342.000000
663090.000000
663826.000000
664567.000000
665304.000000
666039.000000
666766.000000
667492.000000
668227.000000
668972.000000
669720.000000
670501.000000
671290.000000
672074.000000
672857.000000
673656.000000
674443.000000
675222.000000
675990.000000
676770.000000
677555.000000
678348.000000
679126.000000
679881.000000
680623.000000
681371.000000
682130.000000
682903.000000
683672.000000
684452.000000
685245.000000
686054.000000
686862.000000
687633.000000
688389.000000
689139.000000
689903.000000
690665.000000
691426.000000
692201.000000
692961.000000
693728.000000
694501.000000
695273.000000
696042.000000
696798.000000
697553.000000
698312.000000
699094.000000
699891.000000
700666.000000
701433.000000
702193.000000
702954.000000
703723.000000
704479.000000
705226.000000
705990.000000
706768.000000
707546.000000
708312.000000
709076.000000
709844.000000
710607.000000
711366.000000
712145.000000
712937.000000
713715.000000
714485.000000
715264.000000
716032.000000
716798.000000
717556.000000
718302.000000
719051.000000
719798.000000
720546.000000
721302.000000
722049.000000
722792.000000
723553.000000
724313.000000
725085.000000
725852.000000
726617.000000
727381.000000
728152.000000
728927.000000
729688.000000
730446.000000
731208.000000
731975.000000
732750.000000
733529.000000
734299.000000
735053.000000
735809.000000
736562.000000
737329.000000
738104.000000
738866.000000
739648.000000
740430.000000
741212.000000
741999.000000
742767.000000
743546.000000
744319.000000
745080.000000
745836.000000
746601.000000
747366.000000
748127.000000
748888.000000
749653.000000
750423.000000
751196.000000
751968.000000
752721.000000
753481.000000
754237.000000
755005.000000
755777.000000
756535.000000
757298.000000
758063.000000
758839.000000
759605.000000
760362.000000
761121.000000
761883.000000
762649.000000
763401.000000
764113.000000
764807.000000
765520.000000
766265.000000
767054.000000
767840.000000
768636.000000
769425.000000
770211.000000
770983.000000
771752.000000
772520.000000
773279.000000
774045.000000
774801.000000
775554.000000
776294.000000
777033.000000
777773.000000
778510.000000
779239.000000
779970.000000
780705.000000
781440.000000
782162.000000
782878.000000
783599.000000
784330.000000
785058.000000
785786.000000
786518.000000
787255.000000
787992.000000
788734.000000
789504.000000
790262.000000
791033.000000
791794.000000
792553.000000
793316.000000
794080.000000
794823.000000
795550.000000
796273.000000
796994.000000
797717.000000
798451.000000
799180.000000
799912.000000
800647.000000
801390.000000
802127.000000
802846.000000
803569.000000
804303.000000
805056.000000
805811.000000
806557.000000
807297.000000
808041.000000
808786.000000
809536.000000
810274.000000
811005.000000
811746.000000
812498.000000
813244.000000
813990.000000
814716.000000
815438.000000
816158.000000
816878.000000
817601.000000
818343.000000
819080.000000
819805.000000
820545.000000
821289.000000
822028.000000
822764.000000
823497.000000
824235.000000
824976.000000
825700.000000
826408.000000
827108.000000
827820.000000
828539.000000
829253.000000
829963.000000
830678.000000
831401.000000
832125.000000
832843.000000
833555.000000
834284.000000
835028.000000
835773.000000
836508.000000
837234.000000
837962.000000
838694.000000
839428.000000
840147.000000
840845.000000
841551.000000
842274.000000
843027.000000
843789.000000
844536.000000
845288.000000
846041.000000
846806.000000
847567.000000
848316.000000
849067.000000
849820.000000
850558.000000
851283.000000
852022.000000
852771.000000
853531.000000
854306.000000
855092.000000
855860.000000
856609.000000
857380.000000
858161.000000
858954.000000
859743.000000
860521.000000
861316.000000
862120.000000
862923.000000
863707.000000
864474.000000
865229.000000
865991.000000
866763.000000
867536.000000
868314.000000
869083.000000
869860.000000
870641.000000
871443.000000
872259.000000
873042.000000
873809.000000
874574.000000
875340.000000
876101.000000
876857.000000
877610.000000
878377.000000
879159.000000
879944.000000
880719.000000
881488.000000
882265.000000
883036.000000
883800.000000
884560.000000
885324.000000
886100.000000
886900.000000
887721.000000
888564.000000
889401.000000
890217.000000
891003.000000
891777.000000
892564.000000
893354.000000
894136.000000
894905.000000
895661.000000
896430.000000
897207.000000
897989.000000
898774.000000
899552.000000
900325.000000
901102.000000
901875.000000
902639.000000
903404.000000
904199.000000
904982.000000
905761.000000
906518.000000
907279.000000
908037.000000
908802.000000
909553.000000
910291.000000
911043.000000
911807.000000
912586.000000
913349.000000
914116.000000
914891.000000
915668.000000
916437.000000
917193.000000
917938.000000
918695.000000
919453.000000
920215.000000
920978.000000
921752.000000
922534.000000
923317.000000
924088.000000
924855.000000
925633.000000
926409.000000
927175.000000
927937.000000
928695.000000
929453.000000
930186.000000
930918.000000
931650.000000
932387.000000
933133.000000
933872.000000
934609.000000
935352.000000
936110.000000
936874.000000
937642.000000
938387.000000
939139.000000
939911.000000
940684.000000
941433.000000
942176.000000
942918.000000
943662.000000
944407.000000
945139.000000
945860.000000
946596.000000
947359.000000
948124.000000
948877.000000
949600.000000
950309.000000
951026.000000
951755.000000
952488.000000
953219.000000
953941.000000
954665.000000
955400.000000
956151.000000
956909.000000
957670.000000
958428.000000
959189.000000
959944.000000
960697.000000
961435.000000
962171.000000
962901.000000
963639.000000
964367.000000
965086.000000
965825.000000
966571.000000
967320.000000
968071.000000
968826.000000
969581.000000
970327.000000
971061.000000
971790.000000
972520.000000
973254.000000
974002.000000
974738.000000
975505.000000
976259.000000
976990.000000
977691.000000
978369.000000
979041.000000
979717.000000
980435.000000
981207.000000
982008.000000
982816.000000
983612.000000
984395.000000
985166.000000
985928.000000
986689.000000
987442.000000
988207.000000
988971.000000
989720.000000
990461.000000
991201.000000
991936.000000
992675.000000
993407.000000
994135.000000
994873.000000
995609.000000
996347.000000
997082.000000
997817.000000
998587.000000
999341.000000
1000086.000000
1000814.000000
1001547.000000
1002297.000000
1003078.000000
1003859.000000
1004624.000000
1005371.000000
1006121.000000
1006883.000000
1007640.000000
1008398.000000
1009161.000000
1009936.000000
1010704.000000
1011464.000000
1012213.000000
1012961.000000
1013717.000000
1014471.000000
1015216.000000
1015953.000000
1016704.000000
1017464.000000
1018235.000000
1018990.000000
1019737.000000
1020488.000000
1021255.000000
1022015.000000
1022767.000000
1023506.000000
1024242.000000
1024988.000000
1025742.000000
1026498.000000
1027261.000000
1028022.000000
1028776.000000
1029519.000000
1030250.000000
1030991.000000
1031735.000000
1032487.000000
1033224.000000
1033956.000000
1034699.000000
1035462.000000
1036213.000000
1036956.000000
1037692.000000
1038435.000000
1039177.000000
1039943.000000
1040689.000000
1041441.000000
1042192.000000
1042954.000000
1043710.000000
1044451.000000
1045209.000000
1045980.000000
1046753.000000
1047507.000000
1048244.000000
1048992.000000
1049744.000000
1050504.000000
1051265.000000
1052032.000000
1052816.000000
1053616.000000
1054412.000000
1055178.000000
1055939.000000
1056700.000000
1057465.000000
1058226.000000
1058992.000000
1059760.000000
1060525.000000
1061294.000000
1062040.000000
1062776.000000
1063532.000000
1064304.000000
1065077.000000
1065861.000000
1066660.000000
1067460.000000
1068255.000000
1069015.000000
1069753.000000
1070503.000000
1071256.000000
1072009.000000
1072766.000000
1073516.000000
1074261.000000
1075002.000000
1075749.000000
1076498.000000
1077263.000000
1078040.000000
1078809.000000
1079562.000000
1080301.000000
1081056.000000
1081832.000000
1082597.000000
1083351.000000
1084086.000000
1084827.000000
1085588.000000
1086337.000000
1087067.000000
1087767.000000
1088453.000000
1089166.000000
1089910.000000
1090666.000000
1091424.000000
1092170.000000
1092917.000000
1093670.000000
1094437.000000
1095188.000000
1095942.000000
1096705.000000
1097470.000000
1098227.000000
1098975.000000
1099716.000000
1100456.000000
1101175.000000
1101897.000000
1102617.000000
1103340.000000
1104058.000000
1104782.000000
1105513.000000
1106244.000000
1106979.000000
1107717.000000
1108455.000000
1109205.000000
1109961.000000
1110708.000000
1111449.000000
1112204.000000
1112963.000000
1113720.000000
1114472.000000
1115227.000000
1115992.000000
1116741.000000
1117485.000000
1118223.000000
1118985.000000
1119755.000000
1120523.000000
1121279.000000
1122050.000000
1122827.000000
1123596.000000
1124317.000000
1125017.000000
1125716.000000
1126448.000000
1127214.000000
1127979.000000
1128745.000000
1129504.000000
1130261.000000
1131025.000000
1131799.000000
1132575.000000
1133336.000000
1134095.000000
1134865.000000
1135624.000000
1136383.000000
1137127.000000
1137868.000000
1138592.000000
1139315.000000
1140034.000000
1140746.000000
1141464.000000
1142193.000000
1142929.000000
1143647.000000
1144348.000000
1145068.000000
1145794.000000
1146529.000000
1147265.000000
1147997.000000
1148714.000000
1149424.000000
1150132.000000
1150836.000000
1151546.000000
1152261.000000
1152992.000000
1153739.000000
1154453.000000
1155157.000000
1155879.000000
1156605.000000
1157314.000000
1158013.000000
1158718.000000
1159419.000000
1160125.000000
1160836.000000
1161553.000000
1162282.000000
1163027.000000
1163761.000000
1164493.000000
1165223.000000
1165940.000000
1166674.000000
1167387.000000
1168100.000000
1168820.000000
1169535.000000
1170247.000000
1170989.000000
1171744.000000
1172564.000000
1173352.000000
1174138.000000
1174892.000000
1175649.000000
1176388.000000
1177156.000000
1177901.000000
1178618.000000
1179332.000000
1180060.000000
1180806.000000
1181537.000000
1182253.000000
1182972.000000
1183716.000000
1184469.000000
1185225.000000
1185945.000000
1186652.000000
1187378.000000
1188126.000000
1188892.000000
1189643.000000
1190376.000000
1191090.000000
1191826.000000
1192559.000000
1193292.000000
1194004.000000
1194705.000000
1195414.000000
1196190.000000
1196968.000000
1197730.000000
1198475.000000
1199216.000000
1199952.000000
1200694.000000
1201446.000000
1202176.000000
1202888.000000
1203608.000000
1204350.000000
1205104.000000
1205844.000000
1206584.000000
1207309.000000
1208032.000000
