ECG (ms)
357.000000
1251.000000
2064.000000
2927.000000
3909.000000
4898.000000
5846.000000
6740.000000
7585.000000
8509.000000
9508.000000
10488.000000
11395.000000
12265.000000
13195.000000
14169.000000
15141.000000
16042.000000
16920.000000
17865.000000
18850.000000
19784.000000
20724.000000
21731.000000
22729.000000
23661.000000
24601.000000
25591.000000
26585.000000
27501.000000
28403.000000
29397.000000
30414.000000
31371.000000
32291.000000
33275.000000
34301.000000
35269.000000
36155.000000
37059.000000
38009.000000
38945.000000
39804.000000
40662.000000
41627.000000
42630.000000
43561.000000
44445.000000
45357.000000
46319.000000
47258.000000
48115.000000
48995.000000
49756.000000
50482.000000
51464.000000
52407.000000
53370.000000
54340.000000
55269.000000
56109.000000
56887.000000
57738.000000
58727.000000
59714.000000
60657.000000
61658.000000
62664.000000
63645.000000
64514.000000
65346.000000
66226.000000
67208.000000
68180.000000
69095.000000
70083.000000
71097.000000
72096.000000
72994.000000
73827.000000
74694.000000
75634.000000
76613.000000
77527.000000
78406.000000
79359.000000
80353.000000
81323.000000
82206.000000
83023.000000
83882.000000
84829.000000
85803.000000
86710.000000
87613.000000
88609.000000
89611.000000
90572.000000
91444.000000
92324.000000
93259.000000
94214.000000
95102.000000
96007.000000
97033.000000
98051.000000
99018.000000
99900.000000
100776.000000
101741.000000
102751.000000
103678.000000
104548.000000
105482.000000
106462.000000
107440.000000
108337.000000
109203.000000
110136.000000
111095.000000
111991.000000
112738.000000
113472.000000
114263.000000
115083.000000
116083.000000
117109.000000
118101.000000
119008.000000
119819.000000
120657.000000
121677.000000
122731.000000
123692.000000
124617.000000
125599.000000
126612.000000
127568.000000
128449.000000
129350.000000
130328.000000
131334.000000
132265.000000
133139.000000
134096.000000
135120.000000
136125.000000
137040.000000
137920.000000
138880.000000
139872.000000
140839.000000
141735.000000
142675.000000
143661.000000
144643.000000
145557.000000
146409.000000
147316.000000
148297.000000
149275.000000
150193.000000
151119.000000
152110.000000
153107.000000
154074.000000
154946.000000
155758.000000
156685.000000
157669.000000
158636.000000
159529.000000
160409.000000
161379.000000
162381.000000
163350.000000
164231.000000
165119.000000
166058.000000
167025.000000
167924.000000
168779.000000
169725.000000
170730.000000
171693.000000
172602.000000
173558.000000
174550.000000
175527.000000
176434.000000
177361.000000
178336.000000
179322.000000
180245.000000
181101.000000
182008.000000
182959.000000
183914.000000
184820.000000
185670.000000
186588.000000
187577.000000
188535.000000
189417.000000
190322.000000
191299.000000
192255.000000
193181.000000
194145.000000
195142.000000
196067.000000
196975.000000
197933.000000
198913.000000
199805.000000
200676.000000
201623.000000
202622.000000
203597.000000
204494.000000
205400.000000
206367.000000
207318.000000
208200.000000
209080.000000
210018.000000
210993.000000
211902.000000
212910.000000
213975.000000
214990.000000
215942.000000
216936.000000
217915.000000
218806.000000
219722.000000
220525.000000
221276.000000
222310.000000
223269.000000
224224.000000
225207.000000
226184.000000
227088.000000
227947.000000
228864.000000
229872.000000
230870.000000
231796.000000
232779.000000
233788.000000
234704.000000
235573.000000
236513.000000
237496.000000
238413.000000
239339.000000
240329.000000
241337.000000
242287.000000
243142.000000
243999.000000
244949.000000
245962.000000
246924.000000
247805.000000
248742.000000
249719.000000
250647.000000
251500.000000
252375.000000
253306.000000
254296.000000
255234.000000
256136.000000
257141.000000
258173.000000
259191.000000
260125.000000
261014.000000
261979.000000
263004.000000
264030.000000
264984.000000
265935.000000
266917.000000
267894.000000
268802.000000
269641.000000
270537.000000
271580.000000
272639.000000
273617.000000
274537.000000
275524.000000
276558.000000
277537.000000
278429.000000
279274.000000
280227.000000
281267.000000
282337.000000
283327.000000
284231.000000
285158.000000
286140.000000
287138.000000
288107.000000
289006.000000
289899.000000
290922.000000
291980.000000
292960.000000
293857.000000
294721.000000
295719.000000
296763.000000
297756.000000
298668.000000
299640.000000
300683.000000
301695.000000
302599.000000
303482.000000
304519.000000
305589.000000
306582.000000
307627.000000
308706.000000
309722.000000
310649.000000
311589.000000
312572.000000
313576.000000
314470.000000
315341.000000
316285.000000
317310.000000
318286.000000
319163.000000
320080.000000
321116.000000
322096.000000
322979.000000
323902.000000
324879.000000
325869.000000
326764.000000
327660.000000
328596.000000
329524.000000
330397.000000
331291.000000
332330.000000
333340.000000
334259.000000
335174.000000
336155.000000
337115.000000
337999.000000
338907.000000
339883.000000
340886.000000
341785.000000
342690.000000
343673.000000
344641.000000
345481.000000
346215.000000
346944.000000
347809.000000
348837.000000
349859.000000
350803.000000
351804.000000
352843.000000
353819.000000
354698.000000
355646.000000
356662.000000
357651.000000
358628.000000
359691.000000
360738.000000
361687.000000
362551.000000
363478.000000
364522.000000
365502.000000
366469.000000
367502.000000
368561.000000
369536.000000
370547.000000
371572.000000
372553.000000
373475.000000
374494.000000
375572.000000
376584.000000
377588.000000
378637.000000
379688.000000
380676.000000
381587.000000
382513.000000
383557.000000
384619.000000
385610.000000
386633.000000
387700.000000
388761.000000
389763.000000
390681.000000
391607.000000
392636.000000
393684.000000
394644.000000
395576.000000
396659.000000
397719.000000
398696.000000
399680.000000
400683.000000
401707.000000
402652.000000
403525.000000
404445.000000
405499.000000
406546.000000
407565.000000
408489.000000
409410.000000
410422.000000
411457.000000
412470.000000
413430.000000
414299.000000
415095.000000
416042.000000
417171.000000
418287.000000
419339.000000
420281.000000
421180.000000
422230.000000
423273.000000
424258.000000
425150.000000
426142.000000
427219.000000
428229.000000
429152.000000
430099.000000
431121.000000
432160.000000
433113.000000
433987.000000
434957.000000
436006.000000
437013.000000
437915.000000
438810.000000
439790.000000
440783.000000
441700.000000
442590.000000
443609.000000
444677.000000
445685.000000
446617.000000
447547.000000
448533.000000
449531.000000
450455.000000
451335.000000
452331.000000
453392.000000
454412.000000
455323.000000
456225.000000
457226.000000
458248.000000
459214.000000
460165.000000
461155.000000
462020.000000
462764.000000
463555.000000
464369.000000
465371.000000
466413.000000
467426.000000
468355.000000
469368.000000
470434.000000
471460.000000
472381.000000
473391.000000
474471.000000
475501.000000
476425.000000
477393.000000
478490.000000
479566.000000
480524.000000
481430.000000
482481.000000
483541.000000
484508.000000
485566.000000
486673.000000
487701.000000
488674.000000
489737.000000
490799.000000
491750.000000
492608.000000
493537.000000
494680.000000
495778.000000
496794.000000
497865.000000
498954.000000
499984.000000
500901.000000
501779.000000
502735.000000
503802.000000
504813.000000
505745.000000
506822.000000
507926.000000
508969.000000
509901.000000
510892.000000
511953.000000
512982.000000
513909.000000
514894.000000
515963.000000
516986.000000
517939.000000
518940.000000
519993.000000
521005.000000
521915.000000
522793.000000
523921.000000
525036.000000
526086.000000
527026.000000
528011.000000
529090.000000
530130.000000
531097.000000
532138.000000
533210.000000
534218.000000
535133.000000
536090.000000
537130.000000
538128.000000
539044.000000
540029.000000
541095.000000
542125.000000
543042.000000
544015.000000
545062.000000
546090.000000
547006.000000
548036.000000
549171.000000
550186.000000
551150.000000
552182.000000
553236.000000
554201.000000
555177.000000
556239.000000
557237.000000
558135.000000
559149.000000
560238.000000
561240.000000
562168.000000
563158.000000
564247.000000
565252.000000
566241.000000
567373.000000
568473.000000
569448.000000
570406.000000
571450.000000
572524.000000
573578.000000
574524.000000
575466.000000
576555.000000
577625.000000
578568.000000
579521.000000
580594.000000
581611.000000
582596.000000
583698.000000
584815.000000
585861.000000
586834.000000
587866.000000
588956.000000
589977.000000
591010.000000
592103.000000
593161.000000
594139.000000
595151.000000
596203.000000
597177.000000
598078.000000
599150.000000
600240.000000
601238.000000
602163.000000
603163.000000
604220.000000
605222.000000
606156.000000
607171.000000
608242.000000
609260.000000
610186.000000
611133.000000
612142.000000
613148.000000
614106.000000
615108.000000
616167.000000
617218.000000
618187.000000
619173.000000
620193.000000
621191.000000
622107.000000
622994.000000
624089.000000
625172.000000
626189.000000
627207.000000
628290.000000
629353.000000
630292.000000
631179.000000
632164.000000
633239.000000
634263.000000
635262.000000
636329.000000
637372.000000
638330.000000
639271.000000
640309.000000
641328.000000
642249.000000
643211.000000
644274.000000
645258.000000
646167.000000
647156.000000
648255.000000
649258.000000
650233.000000
651281.000000
652359.000000
653373.000000
654291.000000
655269.000000
656390.000000
657454.000000
658430.000000
659490.000000
660572.000000
661597.000000
662524.000000
663492.000000
664542.000000
665543.000000
666456.000000
667437.000000
668499.000000
669515.000000
670419.000000
671353.000000
672387.000000
673389.000000
674357.000000
675493.000000
676596.000000
677619.000000
678678.000000
679744.000000
680730.000000
681607.000000
682581.000000
683727.000000
684812.000000
685811.000000
686890.000000
687982.000000
688994.000000
689905.000000
690889.000000
691978.000000
693024.000000
693977.000000
694998.000000
696061.000000
697084.000000
697998.000000
698952.000000
700020.000000
701050.000000
701988.000000
703021.000000
704110.000000
705148.000000
706086.000000
707069.000000
708130.000000
709130.000000
710071.000000
711124.000000
712204.000000
713211.000000
714135.000000
715138.000000
716210.000000
717173.000000
718071.000000
719096.000000
720176.000000
721173.000000
722120.000000
723192.000000
724253.000000
725219.000000
726190.000000
727256.000000
728274.000000
729238.000000
730242.000000
731288.000000
732274.000000
733170.000000
734103.000000
735140.000000
736181.000000
737136.000000
738090.000000
739190.000000
740271.000000
741262.000000
742319.000000
743417.000000
744439.000000
745384.000000
746398.000000
747449.000000
748450.000000
749429.000000
750514.000000
751600.000000
752598.000000
753597.000000
754695.000000
755774.000000
756791.000000
757859.000000
758975.000000
760013.000000
760945.000000
761901.000000
762995.000000
764062.000000
765048.000000
766050.000000
767115.000000
768106.000000
768988.000000
769895.000000
770951.000000
771966.000000
772880.000000
773865.000000
774935.000000
775935.000000
776836.000000
777760.000000
778768.000000
779764.000000
780675.000000
781661.000000
782723.000000
783744.000000
784643.000000
785543.000000
786542.000000
787571.000000
788509.000000
789476.000000
790561.000000
791652.000000
792623.000000
793613.000000
794653.000000
795648.000000
796568.000000
797559.000000
798660.000000
799682.000000
800589.000000
801564.000000
802597.000000
803570.000000
804457.000000
805448.000000
806529.000000
807505.000000
808406.000000
809413.000000
810463.000000
811436.000000
812322.000000
813270.000000
814285.000000
815285.000000
816198.000000
817132.000000
818200.000000
819232.000000
820176.000000
821177.000000
822191.000000
823187.000000
824110.000000
825066.000000
826118.000000
827103.000000
828002.000000
828984.000000
830008.000000
830933.000000
831821.000000
832907.000000
834044.000000
835039.000000
836036.000000
837111.000000
838112.000000
839000.000000
839976.000000
841039.000000
842002.000000
842894.000000
843888.000000
844961.000000
845957.000000
846865.000000
847885.000000
848974.000000
849946.000000
850849.000000
851859.000000
852977.000000
854006.000000
854935.000000
856089.000000
857204.000000
858228.000000
859168.000000
860173.000000
861231.000000
862238.000000
863202.000000
864249.000000
865318.000000
866304.000000
867264.000000
868343.000000
869384.000000
870332.000000
871280.000000
872320.000000
873365.000000
874319.000000
875307.000000
876377.000000
877451.000000
878429.000000
879389.000000
880451.000000
881528.000000
882515.000000
883521.000000
884607.000000
885649.000000
886602.000000
887601.000000
888671.000000
889675.000000
890603.000000
891650.000000
892733.000000
893750.000000
894763.000000
895832.000000
896868.000000
897856.000000
898710.000000
899617.000000
900784.000000
901906.000000
902942.000000
903931.000000
905013.000000
906052.000000
906995.000000
907894.000000
908878.000000
909910.000000
910907.000000
911816.000000
912741.000000
913789.000000
914823.000000
915777.000000
916745.000000
917751.000000
918752.000000
919667.000000
920620.000000
921646.000000
922610.000000
923502.000000
924480.000000
925559.000000
926551.000000
927468.000000
928464.000000
929525.000000
930501.000000
931427.000000
932456.000000
933526.000000
934517.000000
935462.000000
936478.000000
937491.000000
938414.000000
939288.000000
940279.000000
941351.000000
942344.000000
943275.000000
944241.000000
945270.000000
946245.000000
947183.000000
948224.000000
949283.000000
950220.000000
951174.000000
952237.000000
953247.000000
954189.000000
955211.000000
956257.000000
957216.000000
958175.000000
959240.000000
960263.000000
961180.000000
962091.000000
963081.000000
964095.000000
965023.000000
965949.000000
966970.000000
967976.000000
968897.000000
969874.000000
970956.000000
971964.000000
972870.000000
973809.000000
974859.000000
975882.000000
976807.000000
977802.000000
978876.000000
979840.000000
980733.000000
981687.000000
982724.000000
983705.000000
984586.000000
985529.000000
986535.000000
987461.000000
988320.000000
989253.000000
990275.000000
991295.000000
992232.000000
993139.000000
994148.000000
995224.000000
996213.000000
997172.000000
998230.000000
999248.000000
1000162.000000
1001071.000000
1002142.000000
1003173.000000
1004089.000000
1004873.000000
1005698.000000
1006854.000000
1007989.000000
1009086.000000
1010061.000000
1010922.000000
1011848.000000
1012930.000000
1014017.000000
1014974.000000
1015839.000000
1016929.000000
1018067.000000
1019160.000000
1020155.000000
1021149.000000
1022220.000000
1023314.000000
1024340.000000
1025315.000000
1026403.000000
1027496.000000
1028516.000000
1029484.000000
1030496.000000
1031591.000000
1032622.000000
1033625.000000
1034685.000000
1035771.000000
1036797.000000
1037760.000000
1038796.000000
1039878.000000
1040901.000000
1041841.000000
1042857.000000
1043924.000000
1044885.000000
1045772.000000
1046722.000000
1047745.000000
1048720.000000
1049614.000000
1050545.000000
1051553.000000
1052543.000000
1053440.000000
1054359.000000
1055357.000000
1056381.000000
1057339.000000
1058216.000000
1059143.000000
1060140.000000
1061123.000000
1062043.000000
1063038.000000
1064124.000000
1065126.000000
1066056.000000
1067068.000000
1068099.000000
1069020.000000
1069890.000000
1070932.000000
1072006.000000
1072988.000000
1073890.000000
1074850.000000
1075903.000000
1076919.000000
1077811.000000
1078714.000000
1079763.000000
1080843.000000
1081868.000000
1082842.000000
1083872.000000
1084926.000000
1085901.000000
1086889.000000
1087985.000000
1089036.000000
1089980.000000
1090912.000000
1091879.000000
1092840.000000
1093719.000000
1094627.000000
1095672.000000
1096733.000000
1097714.000000
1098600.000000
1099550.000000
1100586.000000
1101608.000000
1102568.000000
1103602.000000
1104668.000000
1105651.000000
1106546.000000
1107479.000000
1108531.000000
1109547.000000
1110506.000000
1111617.000000
1112731.000000
1113765.000000
1114706.000000
1115707.000000
1116787.000000
1117819.000000
1118772.000000
1119831.000000
1120929.000000
1121959.000000
1122893.000000
1123870.000000
1124964.000000
1125958.000000
1126879.000000
1127878.000000
1128974.000000
1129986.000000
1130906.000000
1131917.000000
1133014.000000
1134003.000000
1134921.000000
1135959.000000
1137049.000000
1138029.000000
1138956.000000
1140027.000000
1141110.000000
1142092.000000
1143099.000000
1144199.000000
1145218.000000
1146134.000000
1147076.000000
1148130.000000
1149128.000000
1150020.000000
1150978.000000
1152008.000000
1152963.000000
1153859.000000
1154833.000000
1155837.000000
1156790.000000
1157684.000000
1158645.000000
1159684.000000
1160663.000000
1161573.000000
1162540.000000
1163577.000000
1164568.000000
1165462.000000
1166405.000000
1167390.000000
1168398.000000
1169308.000000
1170260.000000
1171300.000000
1172298.000000
1173197.000000
1174155.000000
1175209.000000
1176182.000000
1177136.000000
1178240.000000
1179344.000000
1180339.000000
1181272.000000
1182280.000000
1183314.000000
1184265.000000
1185255.000000
1186363.000000
1187419.000000
1188422.000000
1189506.000000
1190544.000000
1191472.000000
1192303.000000
1193241.000000
1194371.000000
1195490.000000
1196535.000000
1197449.000000
1198341.000000
1199318.000000
