ECG (ms)
31.000000
785.000000
1521.000000
2257.000000
3020.000000
3853.000000
4679.000000
5507.000000
6330.000000
7127.000000
7886.000000
8642.000000
9373.000000
10089.000000
10797.000000
11502.000000
12216.000000
12953.000000
13739.000000
14555.000000
15378.000000
16191.000000
16982.000000
17753.000000
18505.000000
19236.000000
19959.000000
20695.000000
21462.000000
22260.000000
23077.000000
23896.000000
24689.000000
25473.000000
26256.000000
27027.000000
27803.000000
28578.000000
29354.000000
30112.000000
30872.000000
31656.000000
32458.000000
33267.000000
34073.000000
34863.000000
35620.000000
36360.000000
37104.000000
37862.000000
38623.000000
39384.000000
40136.000000
40893.000000
41658.000000
42443.000000
43227.000000
44001.000000
44749.000000
45479.000000
46221.000000
46976.000000
47743.000000
48490.000000
49234.000000
49968.000000
50694.000000
51447.000000
52196.000000
52948.000000
53688.000000
54414.000000
55133.000000
55871.000000
56631.000000
57387.000000
58094.000000
58798.000000
59499.000000
60196.000000
60913.000000
61640.000000
62390.000000
63143.000000
63885.000000
64624.000000
65358.000000
66114.000000
66891.000000
67667.000000
68427.000000
69174.000000
69907.000000
70619.000000
71326.000000
72063.000000
72854.000000
73667.000000
74479.000000
75264.000000
76061.000000
76876.000000
77708.000000
78532.000000
79303.000000
80057.000000
80795.000000
81535.000000
82304.000000
83081.000000
83865.000000
84628.000000
85361.000000
86080.000000
86820.000000
87610.000000
88414.000000
89205.000000
89969.000000
90711.000000
91459.000000
92225.000000
93035.000000
93869.000000
94678.000000
95470.000000
96239.000000
97010.000000
97812.000000
98641.000000
99477.000000
100256.000000
100989.000000
101720.000000
102433.000000
103150.000000
103885.000000
104665.000000
105486.000000
106306.000000
107134.000000
107951.000000
108735.000000
109504.000000
110279.000000
111074.000000
111905.000000
112726.000000
113555.000000
114347.000000
115130.000000
115940.000000
116786.000000
117628.000000
118475.000000
119293.000000
120093.000000
120923.000000
121782.000000
122656.000000
123532.000000
124342.000000
125144.000000
125982.000000
126870.000000
127774.000000
128645.000000
129470.000000
130271.000000
131087.000000
131945.000000
132821.000000
133683.000000
134549.000000
135376.000000
136176.000000
136982.000000
137825.000000
138718.000000
139606.000000
140460.000000
141274.000000
142100.000000
142963.000000
143844.000000
144643.000000
145441.000000
146238.000000
147026.000000
147846.000000
148699.000000
149554.000000
150365.000000
151160.000000
151982.000000
152848.000000
153732.000000
154599.000000
155445.000000
156253.000000
157075.000000
157934.000000
158821.000000
159680.000000
160515.000000
161318.000000
162138.000000
163009.000000
163908.000000
164819.000000
165717.000000
166550.000000
167366.000000
168218.000000
169109.000000
170023.000000
170900.000000
171756.000000
172561.000000
173359.000000
174189.000000
175035.000000
175888.000000
176759.000000
177600.000000
178412.000000
179246.000000
180122.000000
180992.000000
181835.000000
182654.000000
183429.000000
184194.000000
184996.000000
185844.000000
186685.000000
187539.000000
188352.000000
189176.000000
190064.000000
191000.000000
191903.000000
192740.000000
193560.000000
194402.000000
195262.000000
196122.000000
196940.000000
197722.000000
198534.000000
199397.000000
200315.000000
201206.000000
202049.000000
202915.000000
203825.000000
204725.000000
205574.000000
206384.000000
207234.000000
208126.000000
209049.000000
209898.000000
210736.000000
211628.000000
212570.000000
213454.000000
214287.000000
215155.000000
216061.000000
216956.000000
217817.000000
218642.000000
219476.000000
220357.000000
221251.000000
222119.000000
222935.000000
223724.000000
224535.000000
225393.000000
226252.000000
227099.000000
227926.000000
228712.000000
229492.000000
230309.000000
231146.000000
231967.000000
232770.000000
233597.000000
234462.000000
235323.000000
236158.000000
237011.000000
237900.000000
238793.000000
239631.000000
240436.000000
241258.000000
242104.000000
242962.000000
243789.000000
244618.000000
245499.000000
246413.000000
247325.000000
248189.000000
249007.000000
249789.000000
250574.000000
251396.000000
252249.000000
253074.000000
253881.000000
254718.000000
255589.000000
256432.000000
257224.000000
258012.000000
258832.000000
259711.000000
260614.000000
261424.000000
262207.000000
263015.000000
263785.000000
264555.000000
265350.000000
266170.000000
267008.000000
267852.000000
268665.000000
269471.000000
270326.000000
271224.000000
272136.000000
273021.000000
273854.000000
274697.000000
275579.000000
276513.000000
277448.000000
278355.000000
279199.000000
280028.000000
280891.000000
281843.000000
282806.000000
283759.000000
284713.000000
285592.000000
286445.000000
287330.000000
288226.000000
289106.000000
289954.000000
290795.000000
291587.000000
292374.000000
293178.000000
294087.000000
295016.000000
295941.000000
296814.000000
297656.000000
298524.000000
299434.000000
300343.000000
301228.000000
302078.000000
302893.000000
303748.000000
304644.000000
305554.000000
306407.000000
307252.000000
308125.000000
309024.000000
309889.000000
310720.000000
311579.000000
312499.000000
313434.000000
314299.000000
315146.000000
316030.000000
316934.000000
317842.000000
318684.000000
319540.000000
320425.000000
321314.000000
322141.000000
322994.000000
323891.000000
324773.000000
325615.000000
326472.000000
327359.000000
328258.000000
329115.000000
329948.000000
330823.000000
331740.000000
332656.000000
333523.000000
334371.000000
335262.000000
336161.000000
337039.000000
337878.000000
338746.000000
339619.000000
340507.000000
341374.000000
342209.000000
343056.000000
343937.000000
344851.000000
345710.000000
346593.000000
347511.000000
348445.000000
349296.000000
350141.000000
351041.000000
351958.000000
352822.000000
353667.000000
354547.000000
355425.000000
356264.000000
357084.000000
357943.000000
358833.000000
359765.000000
360681.000000
361526.000000
362361.000000
363228.000000
364129.000000
365033.000000
365921.000000
366791.000000
367671.000000
368575.000000
369499.000000
370430.000000
371317.000000
372169.000000
373054.000000
373943.000000
374814.000000
375651.000000
376470.000000
377325.000000
378194.000000
379057.000000
379860.000000
380648.000000
381455.000000
382298.000000
383131.000000
383949.000000
384848.000000
385774.000000
386670.000000
387527.000000
388397.000000
389276.000000
390126.000000
390946.000000
391781.000000
392639.000000
393458.000000
394256.000000
395082.000000
395941.000000
396768.000000
397562.000000
398388.000000
399247.000000
400060.000000
400870.000000
401710.000000
402564.000000
403361.000000
404151.000000
405002.000000
405891.000000
406768.000000
407598.000000
408404.000000
409238.000000
410122.000000
411015.000000
411868.000000
412755.000000
413680.000000
414599.000000
415465.000000
416358.000000
417271.000000
418185.000000
419076.000000
419958.000000
420797.000000
421635.000000
422478.000000
423357.000000
424240.000000
425113.000000
425925.000000
426744.000000
427616.000000
428501.000000
429360.000000
430218.000000
431034.000000
431831.000000
432640.000000
433480.000000
434378.000000
435263.000000
436111.000000
436996.000000
437920.000000
438864.000000
439787.000000
440701.000000
441559.000000
442414.000000
443282.000000
444177.000000
445063.000000
445880.000000
446653.000000
447443.000000
448293.000000
449134.000000
449925.000000
450669.000000
451416.000000
452211.000000
453078.000000
453931.000000
454765.000000
455663.000000
456570.000000
457397.000000
458221.000000
459084.000000
459977.000000
460815.000000
461683.000000
462604.000000
463566.000000
464464.000000
465331.000000
466262.000000
467227.000000
468181.000000
469108.000000
469945.000000
470767.000000
471627.000000
472513.000000
473384.000000
474219.000000
475091.000000
476006.000000
476880.000000
477704.000000
478575.000000
479475.000000
480319.000000
481136.000000
481999.000000
482903.000000
483794.000000
484627.000000
485506.000000
486433.000000
487347.000000
488198.000000
489099.000000
490033.000000
490967.000000
491814.000000
492680.000000
493579.000000
494484.000000
495325.000000
496199.000000
497128.000000
498076.000000
498935.000000
499816.000000
500726.000000
501639.000000
502488.000000
503376.000000
504320.000000
505259.000000
506101.000000
506935.000000
507785.000000
508646.000000
509466.000000
510343.000000
511261.000000
512134.000000
512980.000000
513856.000000
514750.000000
515591.000000
516458.000000
517378.000000
518251.000000
519087.000000
519958.000000
520870.000000
521751.000000
522604.000000
523502.000000
524429.000000
525347.000000
526210.000000
527048.000000
527878.000000
528706.000000
529506.000000
530294.000000
531128.000000
531994.000000
532817.000000
533645.000000
534528.000000
535424.000000
536263.000000
537105.000000
537980.000000
538875.000000
539711.000000
540540.000000
541411.000000
542308.000000
543154.000000
543972.000000
544836.000000
545750.000000
546651.000000
547529.000000
548470.000000
549453.000000
550435.000000
551380.000000
552269.000000
553172.000000
554101.000000
555041.000000
555981.000000
556876.000000
557776.000000
558718.000000
559669.000000
560632.000000
561553.000000
562420.000000
563305.000000
564219.000000
565138.000000
566033.000000
566893.000000
567778.000000
568676.000000
569539.000000
570383.000000
571284.000000
572213.000000
573117.000000
573972.000000
574845.000000
575743.000000
576645.000000
577501.000000
578353.000000
579233.000000
580134.000000
581023.000000
581876.000000
582717.000000
583608.000000
584522.000000
585409.000000
586249.000000
587095.000000
587988.000000
588916.000000
589789.000000
590655.000000
591575.000000
592489.000000
593362.000000
594221.000000
595128.000000
596050.000000
596971.000000
597841.000000
598745.000000
599669.000000
600620.000000
601531.000000
602410.000000
603320.000000
604234.000000
605142.000000
605987.000000
606838.000000
607709.000000
608554.000000
609378.000000
610269.000000
611229.000000
612208.000000
613108.000000
614030.000000
614970.000000
615892.000000
616773.000000
617672.000000
618591.000000
619517.000000
620391.000000
621298.000000
622244.000000
623257.000000
624252.000000
625225.000000
626213.000000
627201.000000
628139.000000
629082.000000
630042.000000
630986.000000
631886.000000
632817.000000
633779.000000
634691.000000
635584.000000
636534.000000
637513.000000
638435.000000
639361.000000
640317.000000
641286.000000
642205.000000
643090.000000
644014.000000
644988.000000
645941.000000
646825.000000
647717.000000
648622.000000
649495.000000
650350.000000
651270.000000
652221.000000
653122.000000
653972.000000
654860.000000
655778.000000
656643.000000
657535.000000
658505.000000
659504.000000
660423.000000
661351.000000
662295.000000
663241.000000
664138.000000
665068.000000
666016.000000
666935.000000
667830.000000
668770.000000
669724.000000
670621.000000
671537.000000
672476.000000
673404.000000
674279.000000
675173.000000
676096.000000
676996.000000
677872.000000
678797.000000
679747.000000
680718.000000
681623.000000
682537.000000
683445.000000
684325.000000
685152.000000
685968.000000
686861.000000
687825.000000
688791.000000
689696.000000
690634.000000
691621.000000
692607.000000
693521.000000
694426.000000
695325.000000
696207.000000
697044.000000
697887.000000
698778.000000
699707.000000
700612.000000
701491.000000
702433.000000
703416.000000
704376.000000
705267.000000
706183.000000
707116.000000
708018.000000
708886.000000
709789.000000
710703.000000
711582.000000
712440.000000
713346.000000
714293.000000
715230.000000
716129.000000
717071.000000
718020.000000
718899.000000
719769.000000
720665.000000
721591.000000
722483.000000
723378.000000
724335.000000
725307.000000
726216.000000
727153.000000
728140.000000
729151.000000
730087.000000
731022.000000
731996.000000
732951.000000
733894.000000
734791.000000
735674.000000
736573.000000
737514.000000
738452.000000
739407.000000
740315.000000
741229.000000
742195.000000
743183.000000
744134.000000
745032.000000
745975.000000
746923.000000
747885.000000
748780.000000
749665.000000
750606.000000
751573.000000
752526.000000
753425.000000
754344.000000
755296.000000
756240.000000
757118.000000
757978.000000
758890.000000
759825.000000
760734.000000
761589.000000
762480.000000
763415.000000
764299.000000
765130.000000
766010.000000
766929.000000
767862.000000
768728.000000
769656.000000
770633.000000
771553.000000
772442.000000
773376.000000
774345.000000
775245.000000
776155.000000
777104.000000
778073.000000
778958.000000
779862.000000
780822.000000
781812.000000
782753.000000
783738.000000
784747.000000
785676.000000
786609.000000
787569.000000
788523.000000
789411.000000
790322.000000
791266.000000
792196.000000
793086.000000
794018.000000
794967.000000
795872.000000
796710.000000
797609.000000
798547.000000
799455.000000
800332.000000
801273.000000
802236.000000
803156.000000
804018.000000
804909.000000
805835.000000
806746.000000
807586.000000
808473.000000
809401.000000
810327.000000
811204.000000
812121.000000
813075.000000
814034.000000
814940.000000
815823.000000
816755.000000
817691.000000
818607.000000
819471.000000
820374.000000
821315.000000
822238.000000
823099.000000
823992.000000
824918.000000
825821.000000
826667.000000
827554.000000
828480.000000
829425.000000
830300.000000
831157.000000
832074.000000
833044.000000
833963.000000
834813.000000
835706.000000
836646.000000
837567.000000
838421.000000
839302.000000
840264.000000
841250.000000
842149.000000
843048.000000
844002.000000
844959.000000
845841.000000
846701.000000
847603.000000
848512.000000
849363.000000
850237.000000
851150.000000
852076.000000
852970.000000
853847.000000
854802.000000
855789.000000
856696.000000
857578.000000
858558.000000
859572.000000
860489.000000
861409.000000
862390.000000
863380.000000
864290.000000
865231.000000
866180.000000
867095.000000
867971.000000
868910.000000
869907.000000
870825.000000
871727.000000
872719.000000
873789.000000
874770.000000
875659.000000
876566.000000
877568.000000
878562.000000
879512.000000
880512.000000
881537.000000
882506.000000
883417.000000
884351.000000
885301.000000
886209.000000
887132.000000
888130.000000
889136.000000
890080.000000
891101.000000
892139.000000
893106.000000
894074.000000
895070.000000
896076.000000
896998.000000
897953.000000
898929.000000
899861.000000
900729.000000
901617.000000
902543.000000
903468.000000
904351.000000
905290.000000
906262.000000
907192.000000
908078.000000
909004.000000
909964.000000
910880.000000
911763.000000
912693.000000
