ECG (ms)
272.000000
1251.000000
2219.000000
3207.000000
4213.000000
5212.000000
6230.000000
7239.000000
8256.000000
9270.000000
10298.000000
11321.000000
12352.000000
13346.000000
14335.000000
15328.000000
16333.000000
17341.000000
18377.000000
19397.000000
20408.000000
21409.000000
22400.000000
23367.000000
24344.000000
25316.000000
26304.000000
27296.000000
28292.000000
29300.000000
30303.000000
31313.000000
32302.000000
33287.000000
34260.000000
35214.000000
36188.000000
37179.000000
38165.000000
39166.000000
40165.000000
41155.000000
42148.000000
43147.000000
44148.000000
45124.000000
46085.000000
47051.000000
48026.000000
49016.000000
50017.000000
51007.000000
51994.000000
52989.000000
53990.000000
54986.000000
55976.000000
56941.000000
57921.000000
58894.000000
59880.000000
60884.000000
61885.000000
62884.000000
63946.000000
65014.000000
66067.000000
67105.000000
68136.000000
69175.000000
70205.000000
71227.000000
72244.000000
73257.000000
74250.000000
75257.000000
76294.000000
77324.000000
78350.000000
79378.000000
80410.000000
81453.000000
82512.000000
83565.000000
84617.000000
85669.000000
86707.000000
87747.000000
88788.000000
89831.000000
90864.000000
91905.000000
92941.000000
93950.000000
94967.000000
95998.000000
97023.000000
98093.000000
99192.000000
100276.000000
101335.000000
102386.000000
103431.000000
104461.000000
105487.000000
106515.000000
107543.000000
108554.000000
109560.000000
110577.000000
111601.000000
112631.000000
113670.000000
114697.000000
115725.000000
116756.000000
117785.000000
118814.000000
119845.000000
120862.000000
121892.000000
122932.000000
123935.000000
124937.000000
125966.000000
127011.000000
128053.000000
129106.000000
130162.000000
131214.000000
132253.000000
133297.000000
134348.000000
135394.000000
136414.000000
137427.000000
138463.000000
139516.000000
140568.000000
141621.000000
142675.000000
143699.000000
144717.000000
145726.000000
146725.000000
147718.000000
148712.000000
149724.000000
150772.000000
151799.000000
152816.000000
153832.000000
154838.000000
155855.000000
156873.000000
157886.000000
158868.000000
159866.000000
160866.000000
161895.000000
162926.000000
163950.000000
164980.000000
165990.000000
167028.000000
168059.000000
169087.000000
170110.000000
171110.000000
172117.000000
173155.000000
174188.000000
175223.000000
176258.000000
177295.000000
178324.000000
179354.000000
180378.000000
181403.000000
182429.000000
183456.000000
184480.000000
185507.000000
186539.000000
187570.000000
188604.000000
189628.000000
190671.000000
191700.000000
192731.000000
193764.000000
194801.000000
195849.000000
196895.000000
197963.000000
199016.000000
200054.000000
201090.000000
202159.000000
203243.000000
204315.000000
205379.000000
206434.000000
207473.000000
208502.000000
209505.000000
210495.000000
211499.000000
212547.000000
213590.000000
214628.000000
215663.000000
216700.000000
217737.000000
218779.000000
219808.000000
220827.000000
221805.000000
222798.000000
223821.000000
224857.000000
225884.000000
226905.000000
227936.000000
228930.000000
229945.000000
230977.000000
232046.000000
233100.000000
234140.000000
235168.000000
236204.000000
237234.000000
238260.000000
239277.000000
240299.000000
241331.000000
242365.000000
243386.000000
244405.000000
245427.000000
246437.000000
247467.000000
248506.000000
249536.000000
250572.000000
251618.000000
252703.000000
253781.000000
254853.000000
255922.000000
256994.000000
258056.000000
259092.000000
260117.000000
261140.000000
262195.000000
263257.000000
264321.000000
265386.000000
266447.000000
267546.000000
268645.000000
269701.000000
270737.000000
271793.000000
272852.000000
273945.000000
275037.000000
276111.000000
277183.000000
278247.000000
279310.000000
280371.000000
281432.000000
282488.000000
283511.000000
284539.000000
285581.000000
286664.000000
287714.000000
288805.000000
289874.000000
290945.000000
292008.000000
293085.000000
294145.000000
295209.000000
296260.000000
297303.000000
298346.000000
299398.000000
300452.000000
301495.000000
302557.000000
303659.000000
304750.000000
305835.000000
306907.000000
307976.000000
309039.000000
310089.000000
311107.000000
312130.000000
313163.000000
314206.000000
315242.000000
316281.000000
317321.000000
318353.000000
319378.000000
320408.000000
321449.000000
322483.000000
323500.000000
324476.000000
325458.000000
326466.000000
327505.000000
328528.000000
329546.000000
330564.000000
331540.000000
332563.000000
333578.000000
334597.000000
335615.000000
336639.000000
337673.000000
338701.000000
339742.000000
340795.000000
341856.000000
342930.000000
343971.000000
345012.000000
346086.000000
347185.000000
348263.000000
349276.000000
350281.000000
351288.000000
352313.000000
353345.000000
354374.000000
355403.000000
356442.000000
357453.000000
358469.000000
359487.000000
360555.000000
361600.000000
362650.000000
363702.000000
364750.000000
365797.000000
366844.000000
367890.000000
368938.000000
369983.000000
371031.000000
372062.000000
373096.000000
374174.000000
375246.000000
376309.000000
377367.000000
378387.000000
379404.000000
380467.000000
381532.000000
382588.000000
383648.000000
384707.000000
385755.000000
386789.000000
387828.000000
388868.000000
389911.000000
390952.000000
391992.000000
393035.000000
394080.000000
395118.000000
396175.000000
397225.000000
398277.000000
399337.000000
400389.000000
401427.000000
402437.000000
403470.000000
404537.000000
405562.000000
406546.000000
407557.000000
408626.000000
409685.000000
410726.000000
411713.000000
412690.000000
413681.000000
414658.000000
415622.000000
416573.000000
417511.000000
418454.000000
419400.000000
420348.000000
421303.000000
422257.000000
423214.000000
424156.000000
425100.000000
426056.000000
427010.000000
427960.000000
428904.000000
429852.000000
430802.000000
431759.000000
432706.000000
433632.000000
434558.000000
435491.000000
436437.000000
437377.000000
438323.000000
439271.000000
440222.000000
441181.000000
442143.000000
443111.000000
444081.000000
445047.000000
446021.000000
447000.000000
447989.000000
448983.000000
449964.000000
450975.000000
451993.000000
453003.000000
454038.000000
455061.000000
456102.000000
457136.000000
458166.000000
459171.000000
460217.000000
461262.000000
462301.000000
463349.000000
464379.000000
465417.000000
466465.000000
467451.000000
468417.000000
469428.000000
470443.000000
471499.000000
472475.000000
473453.000000
474438.000000
475432.000000
476432.000000
477418.000000
478403.000000
479401.000000
480392.000000
481368.000000
482381.000000
483384.000000
484401.000000
485375.000000
486378.000000
487396.000000
488431.000000
489456.000000
490517.000000
491550.000000
492546.000000
493555.000000
494574.000000
495590.000000
496603.000000
497623.000000
498624.000000
499626.000000
500624.000000
501620.000000
502622.000000
503617.000000
504648.000000
505673.000000
506697.000000
507717.000000
508746.000000
509768.000000
510794.000000
511832.000000
512860.000000
513882.000000
514915.000000
515968.000000
517021.000000
518087.000000
519140.000000
520167.000000
521223.000000
522276.000000
523299.000000
524299.000000
525334.000000
526421.000000
527469.000000
528475.000000
529501.000000
530521.000000
531534.000000
532495.000000
533445.000000
534407.000000
535390.000000
536373.000000
537371.000000
538344.000000
539304.000000
540268.000000
541272.000000
542256.000000
543252.000000
544240.000000
545237.000000
546256.000000
547265.000000
548267.000000
549263.000000
550269.000000
551277.000000
552290.000000
553290.000000
554303.000000
555303.000000
556294.000000
557288.000000
558288.000000
559273.000000
560257.000000
561244.000000
562230.000000
563206.000000
564175.000000
565172.000000
566166.000000
567148.000000
568135.000000
569122.000000
570107.000000
571098.000000
572085.000000
573064.000000
574044.000000
575034.000000
576018.000000
576976.000000
577952.000000
578958.000000
579987.000000
581007.000000
582035.000000
583068.000000
584099.000000
585131.000000
586160.000000
587189.000000
588206.000000
589218.000000
590293.000000
591291.000000
592275.000000
593343.000000
594364.000000
595377.000000
596402.000000
597424.000000
598443.000000
599459.000000
600478.000000
601475.000000
602476.000000
603476.000000
604483.000000
605502.000000
606518.000000
607548.000000
608562.000000
609570.000000
610576.000000
611577.000000
612584.000000
613591.000000
614590.000000
615577.000000
616554.000000
617558.000000
618561.000000
619567.000000
620562.000000
621553.000000
622545.000000
623523.000000
624497.000000
625463.000000
626431.000000
627398.000000
628361.000000
629323.000000
630296.000000
631273.000000
632241.000000
633231.000000
634229.000000
635234.000000
636239.000000
637242.000000
638249.000000
639249.000000
640252.000000
641256.000000
642267.000000
643293.000000
644298.000000
645312.000000
646335.000000
647374.000000
648428.000000
649470.000000
650504.000000
651531.000000
652557.000000
653584.000000
654617.000000
655650.000000
656686.000000
657685.000000
658688.000000
659674.000000
660681.000000
661674.000000
662675.000000
663683.000000
664695.000000
665694.000000
666695.000000
667691.000000
668683.000000
669677.000000
670667.000000
671639.000000
672612.000000
673602.000000
674589.000000
675572.000000
676553.000000
677532.000000
678490.000000
679452.000000
680427.000000
681406.000000
682395.000000
683385.000000
684369.000000
685347.000000
686314.000000
687275.000000
688249.000000
689235.000000
690216.000000
691196.000000
692136.000000
693072.000000
694040.000000
695017.000000
696007.000000
697007.000000
697975.000000
698939.000000
699919.000000
700910.000000
701903.000000
702889.000000
703872.000000
704856.000000
705848.000000
706840.000000
707842.000000
708858.000000
709869.000000
710873.000000
711883.000000
712894.000000
713902.000000
714915.000000
715953.000000
716955.000000
717963.000000
718957.000000
719967.000000
720978.000000
722004.000000
723025.000000
724033.000000
725023.000000
726004.000000
726979.000000
727946.000000
728889.000000
729831.000000
730779.000000
731736.000000
732711.000000
733670.000000
734627.000000
735583.000000
736537.000000
737488.000000
738438.000000
739386.000000
740316.000000
741250.000000
742191.000000
743145.000000
744115.000000
745076.000000
746046.000000
747017.000000
747979.000000
748944.000000
749908.000000
750877.000000
751841.000000
752808.000000
753771.000000
754717.000000
755673.000000
756638.000000
757620.000000
758610.000000
759606.000000
760611.000000
761609.000000
762611.000000
763607.000000
764602.000000
765591.000000
766575.000000
767565.000000
768564.000000
769566.000000
770546.000000
771528.000000
772517.000000
773525.000000
774525.000000
775542.000000
776551.000000
777561.000000
778569.000000
779531.000000
780492.000000
781462.000000
782431.000000
783402.000000
784384.000000
785359.000000
786317.000000
787259.000000
788224.000000
789180.000000
790142.000000
791087.000000
792058.000000
793048.000000
794028.000000
795022.000000
796017.000000
797029.000000
798039.000000
799043.000000
800071.000000
801132.000000
802246.000000
803335.000000
804417.000000
805513.000000
806632.000000
807745.000000
808837.000000
809909.000000
810975.000000
812046.000000
813105.000000
814169.000000
815235.000000
816277.000000
817309.000000
818331.000000
819383.000000
820448.000000
821518.000000
822595.000000
823666.000000
824729.000000
825783.000000
826848.000000
827919.000000
828981.000000
830049.000000
831096.000000
832149.000000
833171.000000
834194.000000
835268.000000
836332.000000
837385.000000
838434.000000
839475.000000
840515.000000
841557.000000
842593.000000
843590.000000
844595.000000
845649.000000
846700.000000
847746.000000
848790.000000
849844.000000
850908.000000
851972.000000
853036.000000
854076.000000
855119.000000
856185.000000
857274.000000
858363.000000
859457.000000
860553.000000
861633.000000
862706.000000
863770.000000
864837.000000
865895.000000
866935.000000
867959.000000
868984.000000
870017.000000
871077.000000
872169.000000
873221.000000
874272.000000
875312.000000
876354.000000
877397.000000
878424.000000
879475.000000
880529.000000
881584.000000
882642.000000
883700.000000
884768.000000
885835.000000
886905.000000
888018.000000
889104.000000
890189.000000
891225.000000
892262.000000
893265.000000
894297.000000
895351.000000
896419.000000
897484.000000
898545.000000
899602.000000
900633.000000
901647.000000
902669.000000
903721.000000
904801.000000
905864.000000
906922.000000
907976.000000
909026.000000
910074.000000
911118.000000
912165.000000
913175.000000
914225.000000
915249.000000
916257.000000
917310.000000
918371.000000
