ECG (ms)
769.000000
1714.000000
2718.000000
3655.000000
4625.000000
5576.000000
6439.000000
7328.000000
8205.000000
9039.000000
9919.000000
10870.000000
11784.000000
12769.000000
13798.000000
14703.000000
15642.000000
16542.000000
17416.000000
18319.000000
19232.000000
20112.000000
21049.000000
21952.000000
22828.000000
23794.000000
24737.000000
25591.000000
26483.000000
27375.000000
28241.000000
29191.000000
30189.000000
31113.000000
32090.000000
33078.000000
34011.000000
34985.000000
35932.000000
36868.000000
37853.000000
38775.000000
39769.000000
40802.000000
41708.000000
42651.000000
43572.000000
44428.000000
45348.000000
46333.000000
47229.000000
48199.000000
49175.000000
50083.000000
51050.000000
51997.000000
52874.000000
53815.000000
54756.000000
55614.000000
56533.000000
57448.000000
58317.000000
59281.000000
60241.000000
61144.000000
62120.000000
63047.000000
63909.000000
64817.000000
65712.000000
66561.000000
67512.000000
68414.000000
69263.000000
70161.000000
71067.000000
71931.000000
72847.000000
73736.000000
74574.000000
75473.000000
76409.000000
77292.000000
78209.000000
79135.000000
80002.000000
80911.000000
81851.000000
82735.000000
83619.000000
84502.000000
85324.000000
86175.000000
87030.000000
87873.000000
88757.000000
89729.000000
90677.000000
91602.000000
92532.000000
93395.000000
94299.000000
95263.000000
96142.000000
97052.000000
97933.000000
98772.000000
99635.000000
100549.000000
101405.000000
102381.000000
103359.000000
104255.000000
105191.000000
106111.000000
106980.000000
107928.000000
108899.000000
109843.000000
110888.000000
111863.000000
112834.000000
113808.000000
114723.000000
115664.000000
116573.000000
117421.000000
118347.000000
119322.000000
120215.000000
121215.000000
122186.000000
123124.000000
124179.000000
125125.000000
126047.000000
127020.000000
127917.000000
128802.000000
129790.000000
130674.000000
131630.000000
132635.000000
133531.000000
134503.000000
135443.000000
136324.000000
137275.000000
138203.000000
139098.000000
140056.000000
140975.000000
141908.000000
142879.000000
143773.000000
144665.000000
145624.000000
146495.000000
147399.000000
148340.000000
149205.000000
150130.000000
151092.000000
151967.000000
152897.000000
153806.000000
154694.000000
155675.000000
156614.000000
157504.000000
158446.000000
159325.000000
160178.000000
161085.000000
161954.000000
162812.000000
163733.000000
164623.000000
165525.000000
166467.000000
167371.000000
168272.000000
169226.000000
170098.000000
170963.000000
171841.000000
172680.000000
173561.000000
174563.000000
175477.000000
176442.000000
177465.000000
178351.000000
179291.000000
180204.000000
181056.000000
181957.000000
182881.000000
183747.000000
184684.000000
185688.000000
186576.000000
187416.000000
188222.000000
189042.000000
190190.000000
191247.000000
192230.000000
193180.000000
194161.000000
195180.000000
196115.000000
197090.000000
198078.000000
199000.000000
199985.000000
200970.000000
201886.000000
202861.000000
203800.000000
204767.000000
205728.000000
206658.000000
207635.000000
208583.000000
209517.000000
210411.000000
211279.000000
212138.000000
213026.000000
213937.000000
214831.000000
215839.000000
216789.000000
217715.000000
218736.000000
219631.000000
220596.000000
221542.000000
222421.000000
223360.000000
224280.000000
225157.000000
226091.000000
227012.000000
227915.000000
228873.000000
229759.000000
230663.000000
231612.000000
232472.000000
233358.000000
234287.000000
235164.000000
236093.000000
237099.000000
238014.000000
239061.000000
240035.000000
240955.000000
241929.000000
242856.000000
243749.000000
244689.000000
245589.000000
246472.000000
247433.000000
248324.000000
249236.000000
250210.000000
251125.000000
252083.000000
253110.000000
253985.000000
254916.000000
255826.000000
256678.000000
257575.000000
258511.000000
259413.000000
260423.000000
261386.000000
262303.000000
263230.000000
264099.000000
264982.000000
265919.000000
266827.000000
267818.000000
268857.000000
269838.000000
270901.000000
271851.000000
272846.000000
273852.000000
274770.000000
275729.000000
276633.000000
277486.000000
278349.000000
279196.000000
280041.000000
281001.000000
282050.000000
282989.000000
284118.000000
285050.000000
286027.000000
286964.000000
287814.000000
288744.000000
289655.000000
290511.000000
291420.000000
292308.000000
293193.000000
294160.000000
295076.000000
296003.000000
297110.000000
298070.000000
299095.000000
300051.000000
300961.000000
301927.000000
302839.000000
303716.000000
304643.000000
305522.000000
306391.000000
307343.000000
308244.000000
309161.000000
310133.000000
311013.000000
311944.000000
312900.000000
313774.000000
314709.000000
315640.000000
316523.000000
317505.000000
318472.000000
319451.000000
320575.000000
321489.000000
322467.000000
323417.000000
324295.000000
325266.000000
326246.000000
327282.000000
328391.000000
329352.000000
330379.000000
331354.000000
332251.000000
333191.000000
334092.000000
334984.000000
335938.000000
336809.000000
337719.000000
338667.000000
339512.000000
340382.000000
341259.000000
342116.000000
343106.000000
344161.000000
345101.000000
346211.000000
347305.000000
348327.000000
349381.000000
350309.000000
351252.000000
352293.000000
353210.000000
354173.000000
355153.000000
356041.000000
356964.000000
357903.000000
358767.000000
359697.000000
360615.000000
361493.000000
362437.000000
363352.000000
364283.000000
365253.000000
366138.000000
367050.000000
367960.000000
368880.000000
369987.000000
370909.000000
371900.000000
372887.000000
373794.000000
374767.000000
375777.000000
376856.000000
377986.000000
378989.000000
380001.000000
380998.000000
381909.000000
382865.000000
383800.000000
384691.000000
385758.000000
386768.000000
387776.000000
388862.000000
389819.000000
390901.000000
391923.000000
392901.000000
393974.000000
394895.000000
395814.000000
396759.000000
397643.000000
398536.000000
399370.000000
400191.000000
401066.000000
401956.000000
403206.000000
404200.000000
405300.000000
406349.000000
407267.000000
408250.000000
409247.000000
410186.000000
411272.000000
412255.000000
413279.000000
414322.000000
415268.000000
416281.000000
417304.000000
418262.000000
419314.000000
420336.000000
421379.000000
422469.000000
423498.000000
424572.000000
425647.000000
426649.000000
427729.000000
428750.000000
429737.000000
430774.000000
431748.000000
432762.000000
433767.000000
434714.000000
435725.000000
436706.000000
437657.000000
438664.000000
439629.000000
440565.000000
441546.000000
442483.000000
443448.000000
444487.000000
445490.000000
446503.000000
447539.000000
448506.000000
449519.000000
450525.000000
451477.000000
452480.000000
453454.000000
454401.000000
455367.000000
456280.000000
457192.000000
458156.000000
459133.000000
460106.000000
461202.000000
462224.000000
463168.000000
464192.000000
465227.000000
466185.000000
467137.000000
468131.000000
469107.000000
470033.000000
470972.000000
471944.000000
472877.000000
473786.000000
474742.000000
475705.000000
476620.000000
477559.000000
478548.000000
479513.000000
480440.000000
481400.000000
482390.000000
483313.000000
484268.000000
485253.000000
486173.000000
487127.000000
488116.000000
489053.000000
490037.000000
491029.000000
491972.000000
492975.000000
493959.000000
494902.000000
495896.000000
496858.000000
497796.000000
498766.000000
499685.000000
500569.000000
501587.000000
502605.000000
503519.000000
504516.000000
505470.000000
506349.000000
507260.000000
508212.000000
509078.000000
510006.000000
510922.000000
511781.000000
512731.000000
513783.000000
514739.000000
515819.000000
516811.000000
517792.000000
518810.000000
519698.000000
520576.000000
521492.000000
522313.000000
523257.000000
524303.000000
525215.000000
526279.000000
527266.000000
528197.000000
529283.000000
530226.000000
531157.000000
532165.000000
533052.000000
533960.000000
534877.000000
535720.000000
536654.000000
537791.000000
538747.000000
539825.000000
540854.000000
541748.000000
542767.000000
543791.000000
544768.000000
545767.000000
546712.000000
547638.000000
548640.000000
549620.000000
550534.000000
551514.000000
552431.000000
553324.000000
554323.000000
555242.000000
556200.000000
557231.000000
558138.000000
559070.000000
560028.000000
560932.000000
561907.000000
562916.000000
563836.000000
564808.000000
565777.000000
566648.000000
567564.000000
568514.000000
569380.000000
570313.000000
571312.000000
572201.000000
573151.000000
574140.000000
575076.000000
576081.000000
577075.000000
577993.000000
579039.000000
580044.000000
580984.000000
582074.000000
583088.000000
584039.000000
585026.000000
585977.000000
586894.000000
587876.000000
588810.000000
589732.000000
590691.000000
591587.000000
592488.000000
593484.000000
594384.000000
595371.000000
596399.000000
597305.000000
598272.000000
599251.000000
600107.000000
600933.000000
601727.000000
602524.000000
603674.000000
604813.000000
605916.000000
606894.000000
607929.000000
608997.000000
609986.000000
611023.000000
612056.000000
613046.000000
614073.000000
615109.000000
616105.000000
617120.000000
618133.000000
619101.000000
620092.000000
621070.000000
622036.000000
623038.000000
624027.000000
624950.000000
625924.000000
626893.000000
627838.000000
628888.000000
629844.000000
630786.000000
631786.000000
632695.000000
633641.000000
634580.000000
635450.000000
636354.000000
637322.000000
638261.000000
639228.000000
640248.000000
641171.000000
642111.000000
643092.000000
643934.000000
644811.000000
645639.000000
646444.000000
647286.000000
648135.000000
648977.000000
649977.000000
651181.000000
652228.000000
653163.000000
654107.000000
655113.000000
656134.000000
657074.000000
657999.000000
658965.000000
659990.000000
660988.000000
661950.000000
662943.000000
663995.000000
665007.000000
665976.000000
666995.000000
668013.000000
668974.000000
669945.000000
670963.000000
671966.000000
672931.000000
673944.000000
674966.000000
675961.000000
676965.000000
677965.000000
678924.000000
679908.000000
680890.000000
681861.000000
682865.000000
683896.000000
684881.000000
685907.000000
686909.000000
687839.000000
688731.000000
689633.000000
690597.000000
691702.000000
692718.000000
693810.000000
694878.000000
695959.000000
697090.000000
698155.000000
699238.000000
700268.000000
701165.000000
702122.000000
703228.000000
704198.000000
705325.000000
706306.000000
707297.000000
708294.000000
709235.000000
710153.000000
711116.000000
712006.000000
712972.000000
713960.000000
714883.000000
715876.000000
716861.000000
717771.000000
718769.000000
719679.000000
720570.000000
721567.000000
722564.000000
723469.000000
724406.000000
725405.000000
726346.000000
727258.000000
728224.000000
729219.000000
730133.000000
731045.000000
732006.000000
732997.000000
733936.000000
734905.000000
736043.000000
737070.000000
738038.000000
739046.000000
740035.000000
740941.000000
741896.000000
742911.000000
743835.000000
744841.000000
745878.000000
746812.000000
747885.000000
748828.000000
749773.000000
750737.000000
751714.000000
752949.000000
754098.000000
755127.000000
756213.000000
757248.000000
758234.000000
759259.000000
760238.000000
761233.000000
762264.000000
763249.000000
764267.000000
765284.000000
766236.000000
767239.000000
768214.000000
769149.000000
770138.000000
771105.000000
772052.000000
773047.000000
773990.000000
774966.000000
775958.000000
776884.000000
777869.000000
778834.000000
779759.000000
780738.000000
781687.000000
782629.000000
783622.000000
784569.000000
785493.000000
786469.000000
787432.000000
788357.000000
789324.000000
790286.000000
791223.000000
792202.000000
793167.000000
794104.000000
795104.000000
796083.000000
797049.000000
798041.000000
798973.000000
799920.000000
800900.000000
801842.000000
802781.000000
803776.000000
804749.000000
805712.000000
806716.000000
807667.000000
808636.000000
809619.000000
810554.000000
811516.000000
812491.000000
813401.000000
814366.000000
815323.000000
816267.000000
817245.000000
818189.000000
819140.000000
820132.000000
821095.000000
822044.000000
823035.000000
823972.000000
824918.000000
825888.000000
826808.000000
827754.000000
828717.000000
829629.000000
830588.000000
831540.000000
832464.000000
833425.000000
834361.000000
835235.000000
836158.000000
837076.000000
837919.000000
838938.000000
839903.000000
840832.000000
841839.000000
842814.000000
843739.000000
844702.000000
845637.000000
846503.000000
847473.000000
848422.000000
849325.000000
850309.000000
851280.000000
852157.000000
853070.000000
854110.000000
855123.000000
856006.000000
856888.000000
857948.000000
858938.000000
859866.000000
860827.000000
861838.000000
862769.000000
863674.000000
864648.000000
865659.000000
866613.000000
867595.000000
868548.000000
869428.000000
870372.000000
871330.000000
872214.000000
873149.000000
874157.000000
875034.000000
875934.000000
876848.000000
877698.000000
878670.000000
879711.000000
880599.000000
881540.000000
882528.000000
883412.000000
884311.000000
885204.000000
886054.000000
886958.000000
887950.000000
888903.000000
889887.000000
890898.000000
891787.000000
892716.000000
893619.000000
894470.000000
895364.000000
896242.000000
897099.000000
897993.000000
898924.000000
899806.000000
900772.000000
901771.000000
902719.000000
903757.000000
904784.000000
905769.000000
906778.000000
907772.000000
908684.000000
909621.000000
910602.000000
911536.000000
912504.000000
913495.000000
914391.000000
915381.000000
916355.000000
917303.000000
918382.000000
919382.000000
920312.000000
921335.000000
922311.000000
923243.000000
924146.000000
925042.000000
925911.000000
926951.000000
928031.000000
928989.000000
930079.000000
931036.000000
932033.000000
933042.000000
933940.000000
934877.000000
935827.000000
936660.000000
937550.000000
938497.000000
939397.000000
940447.000000
941498.000000
942460.000000
943496.000000
944446.000000
945394.000000
946372.000000
947272.000000
948183.000000
949123.000000
950022.000000
950976.000000
952023.000000
952972.000000
954036.000000
955061.000000
956012.000000
957047.000000
957953.000000
958875.000000
959841.000000
960744.000000
961699.000000
962713.000000
963668.000000
964669.000000
965646.000000
966579.000000
967550.000000
968438.000000
969333.000000
970327.000000
971290.000000
972160.000000
972988.000000
973807.000000
974989.000000
976068.000000
977137.000000
978139.000000
979192.000000
980226.000000
981210.000000
982206.000000
983186.000000
984137.000000
985130.000000
986132.000000
987123.000000
988166.000000
989175.000000
990190.000000
991200.000000
992135.000000
993118.000000
994102.000000
995023.000000
996000.000000
997046.000000
998039.000000
999031.000000
1000109.000000
1001164.000000
1002210.000000
1003268.000000
1004249.000000
1005279.000000
1006273.000000
1007196.000000
1008105.000000
1009015.000000
1010107.000000
1011133.000000
1012247.000000
1013294.000000
1014358.000000
1015423.000000
1016418.000000
1017444.000000
1018441.000000
1019401.000000
1020399.000000
1021379.000000
1022319.000000
1023322.000000
1024316.000000
1025276.000000
1026300.000000
1027294.000000
1028259.000000
1029263.000000
1030235.000000
1031190.000000
1032168.000000
1033103.000000
1034061.000000
1035054.000000
1036006.000000
1037025.000000
1038034.000000
1038997.000000
1040005.000000
1040982.000000
1041950.000000
1042950.000000
1043891.000000
1044882.000000
1045853.000000
1046789.000000
1047779.000000
1048733.000000
1049659.000000
1050574.000000
1051563.000000
1052472.000000
1053521.000000
1054507.000000
1055464.000000
1056486.000000
1057415.000000
1058331.000000
1059286.000000
1060157.000000
1061063.000000
1062052.000000
1063019.000000
1064015.000000
1065098.000000
1066031.000000
1067044.000000
1068000.000000
1068933.000000
1069903.000000
1070845.000000
1071823.000000
1072907.000000
1073858.000000
1074876.000000
1075873.000000
1076839.000000
1077858.000000
1078843.000000
1079768.000000
1080601.000000
1081569.000000
1082593.000000
1083575.000000
1084518.000000
1085488.000000
1086496.000000
1087467.000000
1088445.000000
1089463.000000
1090446.000000
1091431.000000
1092453.000000
1093437.000000
1094409.000000
1095408.000000
1096386.000000
1097357.000000
1098348.000000
1099300.000000
1100303.000000
1101317.000000
1102273.000000
1103280.000000
1104277.000000
1105235.000000
1106206.000000
1107085.000000
1107942.000000
1108950.000000
1110006.000000
1111168.000000
1112393.000000
1113445.000000
1114479.000000
1115512.000000
1116444.000000
1117451.000000
1118426.000000
1119322.000000
1120274.000000
1121166.000000
1122040.000000
1122957.000000
1123868.000000
1124749.000000
1125714.000000
1126631.000000
1127560.000000
1128588.000000
1129462.000000
1130372.000000
1131294.000000
1132141.000000
1133028.000000
1133950.000000
1134826.000000
1135681.000000
1136513.000000
1137341.000000
1138501.000000
1139628.000000
1140710.000000
1141714.000000
1142673.000000
1143730.000000
1144805.000000
1145868.000000
1146907.000000
1147935.000000
1148910.000000
1149909.000000
1150911.000000
1151914.000000
1152889.000000
1153785.000000
1154612.000000
1155494.000000
1156390.000000
1157435.000000
1158475.000000
1159470.000000
1160479.000000
1161429.000000
1162374.000000
1163338.000000
1164319.000000
1165246.000000
1166255.000000
1167309.000000
1168306.000000
1169279.000000
1170230.000000
1171215.000000
1172250.000000
1173169.000000
1174183.000000
1175271.000000
1176284.000000
1177296.000000
1178346.000000
1179347.000000
1180371.000000
1181384.000000
1182340.000000
1183326.000000
1184272.000000
1185172.000000
1186155.000000
1187153.000000
1188107.000000
1189079.000000
1190076.000000
1190997.000000
1191942.000000
1192835.000000
1193677.000000
1194522.000000
