ECG (ms)
61.000000
1067.000000
2111.000000
3151.000000
4167.000000
5205.000000
6278.000000
7389.000000
8474.000000
9593.000000
10709.000000
11845.000000
12992.000000
14051.000000
15087.000000
16161.000000
17268.000000
18422.000000
19592.000000
20750.000000
21913.000000
23080.000000
24198.000000
25253.000000
26340.000000
27420.000000
28595.000000
29839.000000
30972.000000
32056.000000
33083.000000
34093.000000
35065.000000
36097.000000
37157.000000
38127.000000
39141.000000
40062.000000
41135.000000
42337.000000
43526.000000
44693.000000
45841.000000
47000.000000
48159.000000
49243.000000
50287.000000
51386.000000
52580.000000
53813.000000
55045.000000
56186.000000
57295.000000
58415.000000
59576.000000
60760.000000
61797.000000
62823.000000
63910.000000
64969.000000
66098.000000
67178.000000
68261.000000
69342.000000
70488.000000
71660.000000
72852.000000
74035.000000
75166.000000
76313.000000
77413.000000
78490.000000
79583.000000
80692.000000
81722.000000
82847.000000
84053.000000
85118.000000
86236.000000
87458.000000
88671.000000
89870.000000
91044.000000
92180.000000
93253.000000
94320.000000
95428.000000
96554.000000
97738.000000
98965.000000
100195.000000
101398.000000
102555.000000
103703.000000
104809.000000
105832.000000
106863.000000
108040.000000
109301.000000
110513.000000
111688.000000
112839.000000
113893.000000
114887.000000
115788.000000
116699.000000
117621.000000
118524.000000
119561.000000
120878.000000
122015.000000
123080.000000
124071.000000
125024.000000
125936.000000
126826.000000
127701.000000
128566.000000
129408.000000
130224.000000
131018.000000
131817.000000
132616.000000
133442.000000
134365.000000
135359.000000
136410.000000
137537.000000
138682.000000
139834.000000
140970.000000
142064.000000
143178.000000
144260.000000
145410.000000
146691.000000
147913.000000
149016.000000
150087.000000
151103.000000
152165.000000
153486.000000
154746.000000
155970.000000
157201.000000
158325.000000
159374.000000
160355.000000
161379.000000
162575.000000
163735.000000
164908.000000
166147.000000
167272.000000
168312.000000
169373.000000
170529.000000
171789.000000
173054.000000
174314.000000
175508.000000
176668.000000
177703.000000
178672.000000
179648.000000
180663.000000
181790.000000
183081.000000
184347.000000
185588.000000
186803.000000
187993.000000
189183.000000
190374.000000
191576.000000
192745.000000
193899.000000
194987.000000
196091.000000
197231.000000
198493.000000
199798.000000
201036.000000
202291.000000
203564.000000
204824.000000
206090.000000
207306.000000
208548.000000
209855.000000
211174.000000
212410.000000
213613.000000
214842.000000
216047.000000
217356.000000
218540.000000
219829.000000
221026.000000
222148.000000
223291.000000
224413.000000
225619.000000
226803.000000
227988.000000
229131.000000
230198.000000
231147.000000
232032.000000
232890.000000
233767.000000
234649.000000
235619.000000
236644.000000
237629.000000
238621.000000
239671.000000
240782.000000
241858.000000
242930.000000
243996.000000
245093.000000
246168.000000
247304.000000
248505.000000
249723.000000
250912.000000
252035.000000
253166.000000
254387.000000
255620.000000
256847.000000
257959.000000
258981.000000
259985.000000
260987.000000
262293.000000
263532.000000
264811.000000
265977.000000
267016.000000
267994.000000
268993.000000
270142.000000
271258.000000
272364.000000
273330.000000
274294.000000
275321.000000
276303.000000
277222.000000
278074.000000
278950.000000
279942.000000
281207.000000
282451.000000
283612.000000
284645.000000
285695.000000
286871.000000
288100.000000
289260.000000
290403.000000
291542.000000
292702.000000
293852.000000
294965.000000
296076.000000
297181.000000
298277.000000
299322.000000
300365.000000
301502.000000
302618.000000
303773.000000
304847.000000
305831.000000
306768.000000
307641.000000
308512.000000
309363.000000
310218.000000
311063.000000
311916.000000
312832.000000
313870.000000
315063.000000
316246.000000
317431.000000
318562.000000
319690.000000
320879.000000
322096.000000
323329.000000
324522.000000
325750.000000
326943.000000
328189.000000
329382.000000
330590.000000
331756.000000
332935.000000
334094.000000
335224.000000
336392.000000
337533.000000
338697.000000
339793.000000
340865.000000
342027.000000
343176.000000
344384.000000
345539.000000
346790.000000
348034.000000
349262.000000
350506.000000
351688.000000
352785.000000
353861.000000
354884.000000
355931.000000
357034.000000
358121.000000
359377.000000
360532.000000
361697.000000
362834.000000
363982.000000
365129.000000
366186.000000
367123.000000
368039.000000
369143.000000
370371.000000
371393.000000
372268.000000
373078.000000
373932.000000
374994.000000
376178.000000
377333.000000
378453.000000
379584.000000
380692.000000
381792.000000
382909.000000
384044.000000
385215.000000
386407.000000
387572.000000
388685.000000
389831.000000
390944.000000
392121.000000
393293.000000
394522.000000
395736.000000
396839.000000
397872.000000
398936.000000
400151.000000
401368.000000
402540.000000
403648.000000
404728.000000
405757.000000
406786.000000
407879.000000
409172.000000
410429.000000
411657.000000
412862.000000
414009.000000
415112.000000
416264.000000
417411.000000
418419.000000
419345.000000
420231.000000
421207.000000
422138.000000
423256.000000
424568.000000
425838.000000
427090.000000
428291.000000
429438.000000
430600.000000
431771.000000
432938.000000
434134.000000
435277.000000
436392.000000
437522.000000
438668.000000
439857.000000
441067.000000
442266.000000
443459.000000
444644.000000
445830.000000
446993.000000
448148.000000
449275.000000
450319.000000
451377.000000
452457.000000
453544.000000
454762.000000
455969.000000
457222.000000
458455.000000
459643.000000
460836.000000
461964.000000
462952.000000
463926.000000
464977.000000
466032.000000
467331.000000
468608.000000
469825.000000
470948.000000
472036.000000
473122.000000
474204.000000
475320.000000
476472.000000
477518.000000
478477.000000
479368.000000
480184.000000
480990.000000
481787.000000
482629.000000
483632.000000
484749.000000
485920.000000
487069.000000
488171.000000
489297.000000
490392.000000
491513.000000
492649.000000
493804.000000
494954.000000
496087.000000
497171.000000
498315.000000
499458.000000
500680.000000
501926.000000
503198.000000
504418.000000
505600.000000
506776.000000
507959.000000
509165.000000
510389.000000
511503.000000
512557.000000
513556.000000
514522.000000
515641.000000
516770.000000
517755.000000
518682.000000
519637.000000
520663.000000
521690.000000
522711.000000
523677.000000
524740.000000
525850.000000
527003.000000
528180.000000
529330.000000
530420.000000
531485.000000
532597.000000
533786.000000
535005.000000
536148.000000
537218.000000
538304.000000
539356.000000
540313.000000
541312.000000
542462.000000
543593.000000
544865.000000
546142.000000
547421.000000
548615.000000
549802.000000
550962.000000
552110.000000
553231.000000
554365.000000
555545.000000
556654.000000
557812.000000
559043.000000
560216.000000
561347.000000
562437.000000
563455.000000
564539.000000
565677.000000
566795.000000
567914.000000
568979.000000
569961.000000
570863.000000
571691.000000
572483.000000
573250.000000
574016.000000
574789.000000
575577.000000
576388.000000
577230.000000
578065.000000
578913.000000
579773.000000
580723.000000
581965.000000
583177.000000
584381.000000
585517.000000
586469.000000
587340.000000
588258.000000
589684.000000
590983.000000
592288.000000
593561.000000
594826.000000
595902.000000
596865.000000
598012.000000
599402.000000
600761.000000
602132.000000
603369.000000
604600.000000
605776.000000
606881.000000
607861.000000
608757.000000
609774.000000
611245.000000
612562.000000
613790.000000
615008.000000
616195.000000
617426.000000
618662.000000
619817.000000
620902.000000
621981.000000
623003.000000
623949.000000
624891.000000
625833.000000
626718.000000
627592.000000
628552.000000
629617.000000
630824.000000
631963.000000
633097.000000
634239.000000
635393.000000
636501.000000
637632.000000
638828.000000
639991.000000
641073.000000
642150.000000
643271.000000
644420.000000
645569.000000
646757.000000
647944.000000
649121.000000
650374.000000
651529.000000
652532.000000
653482.000000
654417.000000
655416.000000
656866.000000
658042.000000
659180.000000
660365.000000
661630.000000
662898.000000
664150.000000
665389.000000
666542.000000
667683.000000
668897.000000
670170.000000
671474.000000
672783.000000
674113.000000
675302.000000
676332.000000
677394.000000
678529.000000
679745.000000
681085.000000
682470.000000
683783.000000
685054.000000
686281.000000
687529.000000
688722.000000
689836.000000
690910.000000
691969.000000
693222.000000
694490.000000
695553.000000
696569.000000
697662.000000
698879.000000
700113.000000
701375.000000
702535.000000
703634.000000
704722.000000
705809.000000
706996.000000
708131.000000
709360.000000
710619.000000
711777.000000
712772.000000
713707.000000
714607.000000
715473.000000
716386.000000
717366.000000
718379.000000
719300.000000
720282.000000
721485.000000
722677.000000
723807.000000
724891.000000
725876.000000
726771.000000
727686.000000
728810.000000
730018.000000
731218.000000
732424.000000
733575.000000
734733.000000
735898.000000
736974.000000
737927.000000
738781.000000
739629.000000
740869.000000
742146.000000
743406.000000
744716.000000
745924.000000
747050.000000
748150.000000
749311.000000
750413.000000
751453.000000
752452.000000
753406.000000
754290.000000
755149.000000
756002.000000
756832.000000
757643.000000
758436.000000
759204.000000
759972.000000
760751.000000
761632.000000
762929.000000
764145.000000
765321.000000
766510.000000
767639.000000
768733.000000
769789.000000
770721.000000
771624.000000
772641.000000
773649.000000
774721.000000
775992.000000
777251.000000
778454.000000
779512.000000
780428.000000
781462.000000
782900.000000
784160.000000
785369.000000
786736.000000
788111.000000
789464.000000
790761.000000
792054.000000
793346.000000
794615.000000
795890.000000
797108.000000
798280.000000
799502.000000
800796.000000
802038.000000
803306.000000
804606.000000
805859.000000
807203.000000
808544.000000
809879.000000
811168.000000
812488.000000
813735.000000
814873.000000
816010.000000
817200.000000
818464.000000
819746.000000
820987.000000
822158.000000
823198.000000
824306.000000
825452.000000
826636.000000
827853.000000
829092.000000
830128.000000
831011.000000
831842.000000
832780.000000
834294.000000
835561.000000
836797.000000
838064.000000
839305.000000
840514.000000
841698.000000
842820.000000
843861.000000
844816.000000
845749.000000
846688.000000
847643.000000
848683.000000
849749.000000
850759.000000
851780.000000
852974.000000
854180.000000
855382.000000
856554.000000
857670.000000
858595.000000
859484.000000
860588.000000
861935.000000
863262.000000
864471.000000
865518.000000
866656.000000
867793.000000
868995.000000
870127.000000
871135.000000
872050.000000
873043.000000
874422.000000
875745.000000
877004.000000
878194.000000
879310.000000
880337.000000
881274.000000
882327.000000
883708.000000
884983.000000
886187.000000
887280.000000
888212.000000
889145.000000
890178.000000
891527.000000
892867.000000
894208.000000
895324.000000
896391.000000
897525.000000
898675.000000
899868.000000
901054.000000
902000.000000
902876.000000
903775.000000
905290.000000
906635.000000
907914.000000
909098.000000
910222.000000
911394.000000
