ECG (ms)
57.000000
1192.000000
2337.000000
3426.000000
4395.000000
5389.000000
6395.000000
7447.000000
8445.000000
9374.000000
10273.000000
11210.000000
12344.000000
13468.000000
14503.000000
15389.000000
16166.000000
16944.000000
17809.000000
19064.000000
20078.000000
21033.000000
22089.000000
23200.000000
24314.000000
25200.000000
25999.000000
26846.000000
27837.000000
28940.000000
29866.000000
30676.000000
31481.000000
32302.000000
33459.000000
34576.000000
35451.000000
36302.000000
37257.000000
38347.000000
39326.000000
40162.000000
41000.000000
41879.000000
42939.000000
43847.000000
44684.000000
45516.000000
46479.000000
47753.000000
48889.000000
49791.000000
50594.000000
51407.000000
52379.000000
53637.000000
54735.000000
55659.000000
56490.000000
57353.000000
58296.000000
59376.000000
60496.000000
61391.000000
62192.000000
63011.000000
63896.000000
64784.000000
65621.000000
66926.000000
68035.000000
68877.000000
69680.000000
70545.000000
71610.000000
72727.000000
73806.000000
74699.000000
75505.000000
76321.000000
77282.000000
78481.000000
79559.000000
80429.000000
81216.000000
82084.000000
83191.000000
84321.000000
85279.000000
86109.000000
86945.000000
87901.000000
89034.000000
90160.000000
91066.000000
91865.000000
92685.000000
93610.000000
94780.000000
95862.000000
96753.000000
97549.000000
98355.000000
99302.000000
100514.000000
101622.000000
102594.000000
103398.000000
104183.000000
105013.000000
106200.000000
107339.000000
108422.000000
109366.000000
110190.000000
111030.000000
111983.000000
113096.000000
114015.000000
114862.000000
115804.000000
117001.000000
118091.000000
118957.000000
119736.000000
120540.000000
121424.000000
122667.000000
123746.000000
124656.000000
125478.000000
126330.000000
127265.000000
128278.000000
129240.000000
130084.000000
130858.000000
131659.000000
132606.000000
133798.000000
134928.000000
135845.000000
136651.000000
137458.000000
138369.000000
139436.000000
140499.000000
141369.000000
142148.000000
142913.000000
143699.000000
144553.000000
145345.000000
146377.000000
147298.000000
148120.000000
149011.000000
150030.000000
151077.000000
151990.000000
152775.000000
153559.000000
154382.000000
155334.000000
156407.000000
157282.000000
158100.000000
158986.000000
160001.000000
160976.000000
161849.000000
162620.000000
163420.000000
164720.000000
165891.000000
166988.000000
167937.000000
168776.000000
169614.000000
170529.000000
171587.000000
172716.000000
173746.000000
174571.000000
175357.000000
176218.000000
177408.000000
178499.000000
179510.000000
180414.000000
181214.000000
182059.000000
183027.000000
184117.000000
185185.000000
186098.000000
186918.000000
187759.000000
188744.000000
189828.000000
190847.000000
191701.000000
192486.000000
193283.000000
194264.000000
195470.000000
196515.000000
197404.000000
198267.000000
199242.000000
200316.000000
201401.000000
202239.000000
203001.000000
203771.000000
204724.000000
205948.000000
206913.000000
207815.000000
208777.000000
209829.000000
210897.000000
211900.000000
212802.000000
213635.000000
214532.000000
215624.000000
216637.000000
217484.000000
218271.000000
219138.000000
220306.000000
221380.000000
222222.000000
222987.000000
223787.000000
224725.000000
225919.000000
226950.000000
227905.000000
228939.000000
230013.000000
231063.000000
232021.000000
232892.000000
233716.000000
234625.000000
235631.000000
236567.000000
237403.000000
238236.000000
239223.000000
240336.000000
241439.000000
242323.000000
243108.000000
243922.000000
244932.000000
246104.000000
247211.000000
248083.000000
248916.000000
249819.000000
250909.000000
251970.000000
252850.000000
253674.000000
254563.000000
255774.000000
256959.000000
257923.000000
258754.000000
259599.000000
260640.000000
261740.000000
262798.000000
263688.000000
264485.000000
265275.000000
266096.000000
267080.000000
268050.000000
268897.000000
269749.000000
270704.000000
271770.000000
272768.000000
273605.000000
274369.000000
275148.000000
275962.000000
276859.000000
277764.000000
278606.000000
279402.000000
280231.000000
281125.000000
282187.000000
283137.000000
283944.000000
284750.000000
285594.000000
286537.000000
287513.000000
288338.000000
289105.000000
289880.000000
290697.000000
291665.000000
292675.000000
293526.000000
294332.000000
295153.000000
295998.000000
296932.000000
297984.000000
298889.000000
299678.000000
300481.000000
301338.000000
302508.000000
303547.000000
304430.000000
305264.000000
306244.000000
307329.000000
308346.000000
309181.000000
309953.000000
310750.000000
311667.000000
312838.000000
313793.000000
314675.000000
315735.000000
316843.000000
317748.000000
318547.000000
319366.000000
320264.000000
321247.000000
322206.000000
323041.000000
323859.000000
324734.000000
325712.000000
326725.000000
327606.000000
328401.000000
329221.000000
330119.000000
331169.000000
332093.000000
332893.000000
333654.000000
334415.000000
335213.000000
336083.000000
337030.000000
337905.000000
338706.000000
339544.000000
340484.000000
341512.000000
342508.000000
343392.000000
344175.000000
344935.000000
345748.000000
346703.000000
347549.000000
348311.000000
349112.000000
349887.000000
350648.000000
351531.000000
352636.000000
353690.000000
354650.000000
355473.000000
356225.000000
356987.000000
357914.000000
359112.000000
360215.000000
361149.000000
361949.000000
362780.000000
363724.000000
364935.000000
365956.000000
366863.000000
367780.000000
368992.000000
370103.000000
370967.000000
371779.000000
372704.000000
373955.000000
375121.000000
376111.000000
376993.000000
377864.000000
378910.000000
380114.000000
381245.000000
382239.000000
383092.000000
383963.000000
385030.000000
386181.000000
387277.000000
388175.000000
388965.000000
389779.000000
390790.000000
391982.000000
393058.000000
393923.000000
394765.000000
395702.000000
396837.000000
397957.000000
398894.000000
399728.000000
400588.000000
401649.000000
402755.000000
403772.000000
404609.000000
405384.000000
406196.000000
407177.000000
408398.000000
409480.000000
410397.000000
411251.000000
412200.000000
413335.000000
414387.000000
415235.000000
416001.000000
416790.000000
417653.000000
418750.000000
419794.000000
420684.000000
421521.000000
422439.000000
423562.000000
424646.000000
425531.000000
426334.000000
427152.000000
428203.000000
429363.000000
430306.000000
431166.000000
432058.000000
433060.000000
434066.000000
434968.000000
435784.000000
436625.000000
437580.000000
438721.000000
439798.000000
440661.000000
441442.000000
442240.000000
443062.000000
443956.000000
444863.000000
445698.000000
446469.000000
447231.000000
448005.000000
448744.000000
449525.000000
450548.000000
451614.000000
452493.000000
453288.000000
454103.000000
454950.000000
455946.000000
456951.000000
457804.000000
458578.000000
459348.000000
460194.000000
461395.000000
462524.000000
463608.000000
464589.000000
465405.000000
466182.000000
467019.000000
468247.000000
469349.000000
470394.000000
471319.000000
472146.000000
473011.000000
474024.000000
475066.000000
475902.000000
476695.000000
477557.000000
478773.000000
479863.000000
480719.000000
481537.000000
482481.000000
483701.000000
484834.000000
485727.000000
486549.000000
487429.000000
488560.000000
489657.000000
490609.000000
491417.000000
492236.000000
493426.000000
494529.000000
495612.000000
496561.000000
497444.000000
498319.000000
499233.000000
500174.000000
501029.000000
501810.000000
502582.000000
503413.000000
504422.000000
505469.000000
506352.000000
507135.000000
507926.000000
508772.000000
509783.000000
510858.000000
511730.000000
512490.000000
513242.000000
514060.000000
515215.000000
516329.000000
517411.000000
518289.000000
519116.000000
519969.000000
520853.000000
521730.000000
522524.000000
523309.000000
524140.000000
525051.000000
525979.000000
526799.000000
527593.000000
528416.000000
529319.000000
530271.000000
531157.000000
531942.000000
532729.000000
533549.000000
534426.000000
535401.000000
536317.000000
537130.000000
537948.000000
538873.000000
539893.000000
540909.000000
541749.000000
542514.000000
543307.000000
544143.000000
545140.000000
546152.000000
547010.000000
547830.000000
548686.000000
549651.000000
550722.000000
551645.000000
552453.000000
553277.000000
554171.000000
555014.000000
555959.000000
556856.000000
557661.000000
558460.000000
559324.000000
560439.000000
561486.000000
562372.000000
563164.000000
563962.000000
564794.000000
565707.000000
566617.000000
567449.000000
568226.000000
569038.000000
569945.000000
570994.000000
571979.000000
572790.000000
573533.000000
574262.000000
574971.000000
575749.000000
576879.000000
577986.000000
578865.000000
579668.000000
580513.000000
581451.000000
582539.000000
583599.000000
584431.000000
585209.000000
586017.000000
586905.000000
588040.000000
589092.000000
590014.000000
590916.000000
591879.000000
592887.000000
593936.000000
594880.000000
595723.000000
596607.000000
597724.000000
598844.000000
599861.000000
600755.000000
601817.000000
602985.000000
604123.000000
605086.000000
605927.000000
606859.000000
607939.000000
609084.000000
610110.000000
610971.000000
611778.000000
612666.000000
613863.000000
615019.000000
616050.000000
616939.000000
617839.000000
618936.000000
620071.000000
621119.000000
621984.000000
622800.000000
623738.000000
624944.000000
626089.000000
627021.000000
627915.000000
628878.000000
629916.000000
630938.000000
631805.000000
632664.000000
633723.000000
634830.000000
635726.000000
636530.000000
637367.000000
638284.000000
639352.000000
640299.000000
641189.000000
642173.000000
643151.000000
644016.000000
644786.000000
645578.000000
646487.000000
647544.000000
648505.000000
649377.000000
650337.000000
651376.000000
652369.000000
653206.000000
653971.000000
654749.000000
655564.000000
656458.000000
657349.000000
658158.000000
658997.000000
659961.000000
660959.000000
661885.000000
662702.000000
663478.000000
664287.000000
665144.000000
666097.000000
667083.000000
667929.000000
668740.000000
669578.000000
670460.000000
671617.000000
672698.000000
673584.000000
674447.000000
675363.000000
676424.000000
677505.000000
678432.000000
679249.000000
680077.000000
681116.000000
682288.000000
683381.000000
684286.000000
685133.000000
686047.000000
687111.000000
688206.000000
689120.000000
690049.000000
691093.000000
692186.000000
693113.000000
693941.000000
694816.000000
695857.000000
696992.000000
698070.000000
698967.000000
699852.000000
700813.000000
701856.000000
702769.000000
703647.000000
704603.000000
705666.000000
706738.000000
707631.000000
708488.000000
709391.000000
710396.000000
711401.000000
712290.000000
713179.000000
714159.000000
715224.000000
716123.000000
716932.000000
717754.000000
718626.000000
719616.000000
720655.000000
721632.000000
722452.000000
723218.000000
724023.000000
724986.000000
726193.000000
727301.000000
728274.000000
729112.000000
729974.000000
730962.000000
732061.000000
733154.000000
734013.000000
734776.000000
735548.000000
736448.000000
737747.000000
738918.000000
739947.000000
740949.000000
742010.000000
743108.000000
744160.000000
745098.000000
745893.000000
746713.000000
747705.000000
748910.000000
750015.000000
750911.000000
751784.000000
752753.000000
753851.000000
754933.000000
755819.000000
756637.000000
757468.000000
758419.000000
759286.000000
760132.000000
761197.000000
762105.000000
763051.000000
764170.000000
765252.000000
766232.000000
767053.000000
767838.000000
768684.000000
769822.000000
770920.000000
771808.000000
772656.000000
773597.000000
774655.000000
775573.000000
776385.000000
777172.000000
778031.000000
779127.000000
780264.000000
781229.000000
782054.000000
782930.000000
784100.000000
785201.000000
786165.000000
787086.000000
787956.000000
788974.000000
789965.000000
790808.000000
791683.000000
792745.000000
793782.000000
794664.000000
795503.000000
796375.000000
797346.000000
798255.000000
799118.000000
800098.000000
801161.000000
802158.000000
803095.000000
804082.000000
805093.000000
806006.000000
806834.000000
807700.000000
808764.000000
809861.000000
810772.000000
811650.000000
812644.000000
813684.000000
814710.000000
815641.000000
816485.000000
817381.000000
818392.000000
819468.000000
820367.000000
821208.000000
822079.000000
823143.000000
824210.000000
825109.000000
826009.000000
827049.000000
828196.000000
829299.000000
830260.000000
831090.000000
831923.000000
832838.000000
834011.000000
835156.000000
836220.000000
837102.000000
837919.000000
838792.000000
840013.000000
841161.000000
842222.000000
843133.000000
844075.000000
845164.000000
846297.000000
847232.000000
848093.000000
848993.000000
849997.000000
851091.000000
852010.000000
852873.000000
853791.000000
854842.000000
855928.000000
856820.000000
857693.000000
858664.000000
859725.000000
860711.000000
861534.000000
862309.000000
863165.000000
864359.000000
865455.000000
866508.000000
867440.000000
868304.000000
869192.000000
870155.000000
871047.000000
871869.000000
872753.000000
873729.000000
874796.000000
875736.000000
876556.000000
877381.000000
878321.000000
879414.000000
880438.000000
881295.000000
882133.000000
883065.000000
884174.000000
885212.000000
886073.000000
886902.000000
887823.000000
888856.000000
889959.000000
890883.000000
891741.000000
892682.000000
893774.000000
894828.000000
895715.000000
896560.000000
897512.000000
898605.000000
899615.000000
900473.000000
901308.000000
902196.000000
903231.000000
904281.000000
905176.000000
905996.000000
906876.000000
907829.000000
908814.000000
909669.000000
910482.000000
911352.000000
912294.000000
913256.000000
914112.000000
914905.000000
915720.000000
916599.000000
917520.000000
918431.000000
919251.000000
920032.000000
920853.000000
921765.000000
922753.000000
923653.000000
924461.000000
925272.000000
926149.000000
927059.000000
928007.000000
928910.000000
929710.000000
930498.000000
931349.000000
932360.000000
933425.000000
934343.000000
935150.000000
935981.000000
936908.000000
938015.000000
939097.000000
940046.000000
940941.000000
941949.000000
943020.000000
944066.000000
944997.000000
945815.000000
946657.000000
947633.000000
948807.000000
949825.000000
950684.000000
951561.000000
952599.000000
953732.000000
954759.000000
955602.000000
956436.000000
957323.000000
958489.000000
959571.000000
960483.000000
961426.000000
962487.000000
963552.000000
964452.000000
965283.000000
966163.000000
967170.000000
968190.000000
969076.000000
969983.000000
970941.000000
971986.000000
972890.000000
973773.000000
974706.000000
975638.000000
976514.000000
977429.000000
978394.000000
979352.000000
980209.000000
981071.000000
981980.000000
982971.000000
983944.000000
984798.000000
985608.000000
986481.000000
987522.000000
988542.000000
989413.000000
990296.000000
991238.000000
992234.000000
993088.000000
993904.000000
994770.000000
995762.000000
996821.000000
997743.000000
998604.000000
999530.000000
1000463.000000
1001428.000000
1002262.000000
1003021.000000
1003781.000000
1004525.000000
1005273.000000
1006126.000000
1007021.000000
1007838.000000
1008667.000000
1009617.000000
1010687.000000
1011687.000000
1012546.000000
1013317.000000
1014102.000000
1014986.000000
1016121.000000
1017256.000000
1018277.000000
1019127.000000
