ECG (ms)
312.000000
1023.000000
1746.000000
2469.000000
3182.000000
3889.000000
4609.000000
5339.000000
6058.000000
6776.000000
7500.000000
8240.000000
8967.000000
9690.000000
10434.000000
11187.000000
11928.000000
12666.000000
13421.000000
14201.000000
14955.000000
15700.000000
16445.000000
17168.000000
17886.000000
18619.000000
19365.000000
20127.000000
20873.000000
21623.000000
22393.000000
23158.000000
23906.000000
24670.000000
25442.000000
26195.000000
26933.000000
27693.000000
28471.000000
29214.000000
29944.000000
30685.000000
31442.000000
32188.000000
32939.000000
33694.000000
34427.000000
35156.000000
35895.000000
36638.000000
37363.000000
38090.000000
38824.000000
39526.000000
40232.000000
40971.000000
41740.000000
42500.000000
43246.000000
44007.000000
44762.000000
45481.000000
46205.000000
46929.000000
47666.000000
48382.000000
49119.000000
49859.000000
50587.000000
51321.000000
52069.000000
52823.000000
53548.000000
54278.000000
55008.000000
55718.000000
56425.000000
57142.000000
57858.000000
58562.000000
59289.000000
59994.000000
60672.000000
61347.000000
62029.000000
62743.000000
63485.000000
64267.000000
65025.000000
65804.000000
66593.000000
67367.000000
68121.000000
68904.000000
69689.000000
70454.000000
71205.000000
71974.000000
72770.000000
73550.000000
74359.000000
75161.000000
75945.000000
76701.000000
77458.000000
78227.000000
79008.000000
79757.000000
80535.000000
81324.000000
82104.000000
82869.000000
83647.000000
84420.000000
85181.000000
85951.000000
86724.000000
87486.000000
88225.000000
88977.000000
89732.000000
90472.000000
91213.000000
91965.000000
92726.000000
93454.000000
94202.000000
94948.000000
95691.000000
96447.000000
97170.000000
97907.000000
98644.000000
99353.000000
100078.000000
100816.000000
101540.000000
102276.000000
103020.000000
103759.000000
104489.000000
105226.000000
105978.000000
106719.000000
107463.000000
108214.000000
108940.000000
109657.000000
110390.000000
111113.000000
111832.000000
112573.000000
113328.000000
114060.000000
114783.000000
115521.000000
116257.000000
116977.000000
117700.000000
118441.000000
119200.000000
119935.000000
120650.000000
121366.000000
122090.000000
122808.000000
123522.000000
124254.000000
124996.000000
125732.000000
126459.000000
127211.000000
127962.000000
128687.000000
129397.000000
130123.000000
130854.000000
131588.000000
132315.000000
133041.000000
133787.000000
134539.000000
135271.000000
135988.000000
136712.000000
137421.000000
138113.000000
138814.000000
139508.000000
140193.000000
140895.000000
141576.000000
142266.000000
143003.000000
143758.000000
144500.000000
145268.000000
146050.000000
146812.000000
147551.000000
148306.000000
149054.000000
149787.000000
150537.000000
151297.000000
152035.000000
152767.000000
153516.000000
154285.000000
155020.000000
155766.000000
156492.000000
157223.000000
157975.000000
158711.000000
159440.000000
160179.000000
160921.000000
161639.000000
162360.000000
163092.000000
163843.000000
164576.000000
165319.000000
166065.000000
166788.000000
167521.000000
168274.000000
169025.000000
169756.000000
170505.000000
171256.000000
172008.000000
172752.000000
173506.000000
174279.000000
175021.000000
175767.000000
176505.000000
177223.000000
177934.000000
178662.000000
179416.000000
180163.000000
180933.000000
181737.000000
182532.000000
183310.000000
184104.000000
184871.000000
185603.000000
186347.000000
187087.000000
187814.000000
188543.000000
189279.000000
190000.000000
190720.000000
191454.000000
192191.000000
192911.000000
193646.000000
194378.000000
195094.000000
195808.000000
196528.000000
197247.000000
197965.000000
198699.000000
199410.000000
200115.000000
200823.000000
201511.000000
202181.000000
202848.000000
203529.000000
204214.000000
204900.000000
205597.000000
206307.000000
207033.000000
207752.000000
208504.000000
209283.000000
210029.000000
210758.000000
211509.000000
212272.000000
213020.000000
213769.000000
214529.000000
215323.000000
216100.000000
216871.000000
217651.000000
218418.000000
219155.000000
219916.000000
220722.000000
221515.000000
222271.000000
223031.000000
223775.000000
224518.000000
225285.000000
226045.000000
226788.000000
227523.000000
228268.000000
229021.000000
229760.000000
230514.000000
231280.000000
232017.000000
232764.000000
233515.000000
234287.000000
235080.000000
235839.000000
236595.000000
237361.000000
238105.000000
238851.000000
239602.000000
240347.000000
241085.000000
241853.000000
242665.000000
243466.000000
244259.000000
245049.000000
245811.000000
246550.000000
247292.000000
248016.000000
248731.000000
249469.000000
250218.000000
250970.000000
251747.000000
252527.000000
253273.000000
254012.000000
254756.000000
255488.000000
256201.000000
256925.000000
257656.000000
258384.000000
259101.000000
259846.000000
260609.000000
261385.000000
262147.000000
262939.000000
263739.000000
264492.000000
265256.000000
266028.000000
266770.000000
267517.000000
268279.000000
269038.000000
269781.000000
270562.000000
271346.000000
272108.000000
272867.000000
273649.000000
274440.000000
275197.000000
275962.000000
276731.000000
277476.000000
278217.000000
278972.000000
279713.000000
280468.000000
281247.000000
282000.000000
282754.000000
283518.000000
284275.000000
285002.000000
285753.000000
286507.000000
287236.000000
287971.000000
288701.000000
289440.000000
290174.000000
290932.000000
291699.000000
292461.000000
293208.000000
293981.000000
294776.000000
295535.000000
296294.000000
297049.000000
297783.000000
298511.000000
299249.000000
299983.000000
300697.000000
301426.000000
302160.000000
302897.000000
303622.000000
304371.000000
305141.000000
305897.000000
306643.000000
307408.000000
308188.000000
308933.000000
309693.000000
310446.000000
311185.000000
311919.000000
312664.000000
313404.000000
314128.000000
314867.000000
315618.000000
316367.000000
317119.000000
317866.000000
318603.000000
319345.000000
320092.000000
320816.000000
321540.000000
322267.000000
322998.000000
323708.000000
324428.000000
325149.000000
325867.000000
326593.000000
327339.000000
328087.000000
328817.000000
329564.000000
330303.000000
331027.000000
331751.000000
332474.000000
333189.000000
333905.000000
334646.000000
335390.000000
336123.000000
336859.000000
337610.000000
338367.000000
339109.000000
339869.000000
340618.000000
341341.000000
342073.000000
342806.000000
343523.000000
344234.000000
344964.000000
345700.000000
346419.000000
347145.000000
347878.000000
348616.000000
349337.000000
350083.000000
350862.000000
351614.000000
352356.000000
353119.000000
353892.000000
354643.000000
355386.000000
356147.000000
356920.000000
357690.000000
358458.000000
359222.000000
359968.000000
360736.000000
361502.000000
362255.000000
362996.000000
363760.000000
364520.000000
365261.000000
366019.000000
366776.000000
367510.000000
368256.000000
368996.000000
369719.000000
370447.000000
371204.000000
371977.000000
372738.000000
373486.000000
374249.000000
375006.000000
375735.000000
376470.000000
377222.000000
377986.000000
378729.000000
379497.000000
380265.000000
381011.000000
381757.000000
382508.000000
383244.000000
383970.000000
384708.000000
385452.000000
386179.000000
386916.000000
387684.000000
388479.000000
389238.000000
390000.000000
390787.000000
391566.000000
392316.000000
393077.000000
393825.000000
394553.000000
395272.000000
396000.000000
396728.000000
397452.000000
398195.000000
398941.000000
399665.000000
400391.000000
401130.000000
401877.000000
402596.000000
403330.000000
404052.000000
404763.000000
405478.000000
406211.000000
406944.000000
407665.000000
408403.000000
409150.000000
409872.000000
410596.000000
411317.000000
412032.000000
412738.000000
413452.000000
414154.000000
414847.000000
415535.000000
416207.000000
416883.000000
417571.000000
418259.000000
418970.000000
419692.000000
420413.000000
421132.000000
421862.000000
422577.000000
423288.000000
424015.000000
424755.000000
425508.000000
426260.000000
427017.000000
427786.000000
428570.000000
429342.000000
430105.000000
430897.000000
431747.000000
432618.000000
433426.000000
434215.000000
435005.000000
435801.000000
436564.000000
437315.000000
438086.000000
438838.000000
439574.000000
440332.000000
441091.000000
441840.000000
442581.000000
443334.000000
444118.000000
444898.000000
445647.000000
446405.000000
447169.000000
447929.000000
448663.000000
449408.000000
450160.000000
450912.000000
451672.000000
452433.000000
453205.000000
453969.000000
454702.000000
455450.000000
456202.000000
456967.000000
457703.000000
458449.000000
459206.000000
459975.000000
460724.000000
461494.000000
462294.000000
463080.000000
463819.000000
464573.000000
465322.000000
466046.000000
466764.000000
467483.000000
468201.000000
468918.000000
469653.000000
470396.000000
471124.000000
471862.000000
472605.000000
473338.000000
474057.000000
474785.000000
475506.000000
476221.000000
476927.000000
477648.000000
478376.000000
479111.000000
479824.000000
480547.000000
481271.000000
481980.000000
482698.000000
483418.000000
484139.000000
484855.000000
485585.000000
486328.000000
487065.000000
487789.000000
488529.000000
489275.000000
489996.000000
490709.000000
491434.000000
492163.000000
492882.000000
493608.000000
494344.000000
495086.000000
495817.000000
496557.000000
497306.000000
498039.000000
498762.000000
499493.000000
500235.000000
500975.000000
501705.000000
502447.000000
503196.000000
503930.000000
504676.000000
505431.000000
506174.000000
506895.000000
507636.000000
508395.000000
509171.000000
509914.000000
510659.000000
511410.000000
512153.000000
512886.000000
513631.000000
514375.000000
515093.000000
515824.000000
516568.000000
517326.000000
518078.000000
518827.000000
519597.000000
520397.000000
521186.000000
521960.000000
522755.000000
523556.000000
524315.000000
525067.000000
525817.000000
526567.000000
527304.000000
528077.000000
528841.000000
529590.000000
530330.000000
531067.000000
531813.000000
532545.000000
533269.000000
534005.000000
534758.000000
535532.000000
536314.000000
537090.000000
537908.000000
538697.000000
539448.000000
540197.000000
540972.000000
541770.000000
542544.000000
543280.000000
544018.000000
544751.000000
545466.000000
546174.000000
546872.000000
547555.000000
548254.000000
548979.000000
549707.000000
550455.000000
551222.000000
551993.000000
552747.000000
553523.000000
554297.000000
555039.000000
555782.000000
556531.000000
557291.000000
558057.000000
558798.000000
559552.000000
560319.000000
561086.000000
561834.000000
562589.000000
563366.000000
564168.000000
564937.000000
565734.000000
566508.000000
567253.000000
567992.000000
568734.000000
569488.000000
570213.000000
570951.000000
571707.000000
572483.000000
573227.000000
573985.000000
574741.000000
575469.000000
576199.000000
576956.000000
577755.000000
578531.000000
579312.000000
580100.000000
580895.000000
581665.000000
582462.000000
583270.000000
584070.000000
584828.000000
585584.000000
586358.000000
587139.000000
587896.000000
588662.000000
589458.000000
590262.000000
591025.000000
591772.000000
592531.000000
593288.000000
594020.000000
594758.000000
595519.000000
596304.000000
597078.000000
597877.000000
598671.000000
599426.000000
600166.000000
600920.000000
601683.000000
602430.000000
603167.000000
603929.000000
604714.000000
605489.000000
606247.000000
607026.000000
607808.000000
608551.000000
609276.000000
610023.000000
610773.000000
611516.000000
612267.000000
613067.000000
613886.000000
614657.000000
615462.000000
616273.000000
617040.000000
617793.000000
618554.000000
619336.000000
620089.000000
