ECG (ms)
117.000000
866.000000
1621.000000
2386.000000
3162.000000
3950.000000
4707.000000
5467.000000
6240.000000
7019.000000
7787.000000
8548.000000
9306.000000
10074.000000
10853.000000
11640.000000
12412.000000
13169.000000
13935.000000
14704.000000
15475.000000
16254.000000
17045.000000
17842.000000
18664.000000
19484.000000
20262.000000
21046.000000
21828.000000
22602.000000
23362.000000
24116.000000
24869.000000
25620.000000
26387.000000
27142.000000
27898.000000
28670.000000
29472.000000
30261.000000
31040.000000
31806.000000
32575.000000
33335.000000
34089.000000
34835.000000
35592.000000
36369.000000
37190.000000
37977.000000
38778.000000
39581.000000
40385.000000
41170.000000
41938.000000
42711.000000
43499.000000
44303.000000
45085.000000
45859.000000
46645.000000
47440.000000
48214.000000
48987.000000
49770.000000
50554.000000
51340.000000
52128.000000
52927.000000
53721.000000
54488.000000
55252.000000
56033.000000
56826.000000
57622.000000
58466.000000
59296.000000
60098.000000
60914.000000
61722.000000
62511.000000
63294.000000
64069.000000
64844.000000
65611.000000
66397.000000
67180.000000
67954.000000
68752.000000
69554.000000
70333.000000
71140.000000
71949.000000
72727.000000
73514.000000
74312.000000
75124.000000
75923.000000
76740.000000
77574.000000
78380.000000
79172.000000
79970.000000
80757.000000
81542.000000
82347.000000
83206.000000
84032.000000
84825.000000
85581.000000
86333.000000
87113.000000
87894.000000
88702.000000
89499.000000
90283.000000
91084.000000
91902.000000
92727.000000
93521.000000
94315.000000
95125.000000
95941.000000
96747.000000
97572.000000
98392.000000
99201.000000
99997.000000
100802.000000
101606.000000
102400.000000
103189.000000
103991.000000
104793.000000
105564.000000
106342.000000
107124.000000
107912.000000
108707.000000
109500.000000
110327.000000
111160.000000
111969.000000
112780.000000
113613.000000
114432.000000
115218.000000
116010.000000
116817.000000
117617.000000
118405.000000
119213.000000
120034.000000
120857.000000
121658.000000
122483.000000
123304.000000
124085.000000
124869.000000
125649.000000
126424.000000
127218.000000
128041.000000
128871.000000
129671.000000
130476.000000
131293.000000
132097.000000
132893.000000
133695.000000
134483.000000
135273.000000
136088.000000
136899.000000
137692.000000
138496.000000
139308.000000
140135.000000
140979.000000
141835.000000
142681.000000
143510.000000
144352.000000
145170.000000
145953.000000
146739.000000
147516.000000
148284.000000
149058.000000
149846.000000
150658.000000
151432.000000
152237.000000
153053.000000
153864.000000
154658.000000
155486.000000
156315.000000
157104.000000
157895.000000
158682.000000
159440.000000
160210.000000
161010.000000
161816.000000
162597.000000
163410.000000
164212.000000
164996.000000
165802.000000
166603.000000
167398.000000
168222.000000
169044.000000
169874.000000
170709.000000
171510.000000
172322.000000
173125.000000
173898.000000
174698.000000
175483.000000
176275.000000
177094.000000
177912.000000
178713.000000
179531.000000
180342.000000
181146.000000
181958.000000
182746.000000
183528.000000
184321.000000
185105.000000
185883.000000
186675.000000
187496.000000
188308.000000
189145.000000
189987.000000
190787.000000
191601.000000
192401.000000
193189.000000
193992.000000
194790.000000
195579.000000
196393.000000
197220.000000
198020.000000
198849.000000
199667.000000
200469.000000
201285.000000
202095.000000
202891.000000
203702.000000
204539.000000
205341.000000
206167.000000
206998.000000
207800.000000
208603.000000
209417.000000
210241.000000
211046.000000
211868.000000
212700.000000
213499.000000
214309.000000
215128.000000
215946.000000
216748.000000
217580.000000
218401.000000
219201.000000
220030.000000
220870.000000
221683.000000
222533.000000
223373.000000
224180.000000
224979.000000
225778.000000
226580.000000
227364.000000
228108.000000
228864.000000
229632.000000
230410.000000
231216.000000
232049.000000
232840.000000
233644.000000
234448.000000
235250.000000
236047.000000
236850.000000
237658.000000
238443.000000
239245.000000
240056.000000
240857.000000
241654.000000
242477.000000
243291.000000
244078.000000
244868.000000
245672.000000
246476.000000
247259.000000
248059.000000
248861.000000
249645.000000
250439.000000
251254.000000
252081.000000
252883.000000
253707.000000
254524.000000
255311.000000
256115.000000
256939.000000
257750.000000
258580.000000
259409.000000
260201.000000
261002.000000
261807.000000
262602.000000
263411.000000
264242.000000
265066.000000
265898.000000
266749.000000
267582.000000
268406.000000
269240.000000
270088.000000
270888.000000
271692.000000
272493.000000
273268.000000
274053.000000
274852.000000
275664.000000
276489.000000
277338.000000
278166.000000
278996.000000
279833.000000
280646.000000
281464.000000
282292.000000
283083.000000
283897.000000
284691.000000
285477.000000
286278.000000
287087.000000
287893.000000
288705.000000
289572.000000
290477.000000
291358.000000
292254.000000
293102.000000
293946.000000
294788.000000
295582.000000
296365.000000
297150.000000
297947.000000
298738.000000
299553.000000
300409.000000
301288.000000
302124.000000
302983.000000
303880.000000
304751.000000
305601.000000
306462.000000
307344.000000
308191.000000
309007.000000
309847.000000
310695.000000
311516.000000
312342.000000
313185.000000
314007.000000
314818.000000
315651.000000
316530.000000
317368.000000
318227.000000
319082.000000
319900.000000
320698.000000
321504.000000
322303.000000
323089.000000
323907.000000
324760.000000
325580.000000
326397.000000
327251.000000
328082.000000
328886.000000
329711.000000
330551.000000
331351.000000
332148.000000
332958.000000
333756.000000
334534.000000
335345.000000
336169.000000
336987.000000
337845.000000
338725.000000
339568.000000
340379.000000
341199.000000
342005.000000
342775.000000
343539.000000
344323.000000
345138.000000
345951.000000
346758.000000
347525.000000
348310.000000
349108.000000
349928.000000
350779.000000
351587.000000
352375.000000
353181.000000
353998.000000
354780.000000
355569.000000
356374.000000
357164.000000
357954.000000
358745.000000
359538.000000
360319.000000
361120.000000
361929.000000
362720.000000
363536.000000
364358.000000
365156.000000
365954.000000
366768.000000
367573.000000
368356.000000
369146.000000
369955.000000
370732.000000
371533.000000
372337.000000
373124.000000
373912.000000
374718.000000
375512.000000
376322.000000
377151.000000
377982.000000
378788.000000
379583.000000
380401.000000
381210.000000
382002.000000
382818.000000
383637.000000
384423.000000
385205.000000
385992.000000
386774.000000
387544.000000
388325.000000
389120.000000
389896.000000
390685.000000
391506.000000
392332.000000
393134.000000
393948.000000
394763.000000
395536.000000
396304.000000
397085.000000
397896.000000
398680.000000
399477.000000
400301.000000
401097.000000
401910.000000
402736.000000
403533.000000
404324.000000
405128.000000
405929.000000
406716.000000
407518.000000
408327.000000
409124.000000
409939.000000
410774.000000
411588.000000
412400.000000
413251.000000
414129.000000
414978.000000
415835.000000
416683.000000
417529.000000
418326.000000
419135.000000
419964.000000
420782.000000
421598.000000
422456.000000
423296.000000
424144.000000
425033.000000
425922.000000
426758.000000
427598.000000
428438.000000
429246.000000
430060.000000
430901.000000
431737.000000
432560.000000
433410.000000
434268.000000
435086.000000
435936.000000
436791.000000
437604.000000
438437.000000
439268.000000
440077.000000
440928.000000
441795.000000
442652.000000
443499.000000
444370.000000
445239.000000
446063.000000
446893.000000
447739.000000
448562.000000
449380.000000
450224.000000
451055.000000
451876.000000
452717.000000
453565.000000
454388.000000
455196.000000
456022.000000
456879.000000
457709.000000
458553.000000
459425.000000
460290.000000
461139.000000
462016.000000
462898.000000
463720.000000
464546.000000
465376.000000
466184.000000
466987.000000
467812.000000
468664.000000
469491.000000
470330.000000
471165.000000
471966.000000
472772.000000
473592.000000
474387.000000
475189.000000
476030.000000
476864.000000
477678.000000
478533.000000
479370.000000
480174.000000
480998.000000
481804.000000
482588.000000
483384.000000
484197.000000
484992.000000
485803.000000
486624.000000
487436.000000
488253.000000
489098.000000
489940.000000
490748.000000
491570.000000
492363.000000
493162.000000
493970.000000
494760.000000
495567.000000
496376.000000
497202.000000
497997.000000
498804.000000
499622.000000
500446.000000
501243.000000
502050.000000
502879.000000
503692.000000
504510.000000
505332.000000
506119.000000
506907.000000
507717.000000
508554.000000
509369.000000
510176.000000
511022.000000
511889.000000
512709.000000
513507.000000
514316.000000
515119.000000
515904.000000
516676.000000
517469.000000
518305.000000
519117.000000
519910.000000
520743.000000
521606.000000
522417.000000
523232.000000
524070.000000
524896.000000
525706.000000
526538.000000
527381.000000
528187.000000
528974.000000
529764.000000
530565.000000
531376.000000
532171.000000
532997.000000
533818.000000
534619.000000
535400.000000
536198.000000
537010.000000
537799.000000
538569.000000
539359.000000
540170.000000
540992.000000
541786.000000
542577.000000
543390.000000
544180.000000
544956.000000
545739.000000
546542.000000
547340.000000
548126.000000
548919.000000
549724.000000
550538.000000
551352.000000
552158.000000
552977.000000
553803.000000
554602.000000
555411.000000
556221.000000
557011.000000
557792.000000
558580.000000
559367.000000
560138.000000
560915.000000
561701.000000
562521.000000
563329.000000
564145.000000
564991.000000
565832.000000
566635.000000
567444.000000
568277.000000
569089.000000
569877.000000
570683.000000
571498.000000
572303.000000
573094.000000
573902.000000
574730.000000
575556.000000
576369.000000
577218.000000
578079.000000
578897.000000
579719.000000
580545.000000
581342.000000
582133.000000
582934.000000
583745.000000
584537.000000
585322.000000
586121.000000
586935.000000
587730.000000
588524.000000
589328.000000
590138.000000
590939.000000
591762.000000
592570.000000
593328.000000
594080.000000
594827.000000
595584.000000
596387.000000
597220.000000
598027.000000
598811.000000
599616.000000
600432.000000
601235.000000
602035.000000
602856.000000
603677.000000
604480.000000
605298.000000
606126.000000
606937.000000
607751.000000
608561.000000
609341.000000
610100.000000
610864.000000
611654.000000
612467.000000
613261.000000
614069.000000
614927.000000
615794.000000
616626.000000
617490.000000
618314.000000
619127.000000
619935.000000
620745.000000
621545.000000
622367.000000
623163.000000
623957.000000
624795.000000
625656.000000
626490.000000
627329.000000
628196.000000
629042.000000
629868.000000
630702.000000
631549.000000
632368.000000
633173.000000
633984.000000
634790.000000
635570.000000
636344.000000
637123.000000
637932.000000
638732.000000
639535.000000
640345.000000
641182.000000
641987.000000
642805.000000
643652.000000
644472.000000
645291.000000
646120.000000
646930.000000
647723.000000
648525.000000
649329.000000
650135.000000
650964.000000
651808.000000
652632.000000
653468.000000
654293.000000
655098.000000
655919.000000
656739.000000
657539.000000
658342.000000
659172.000000
659988.000000
660793.000000
661620.000000
662419.000000
663207.000000
664001.000000
664824.000000
665620.000000
666404.000000
667206.000000
668012.000000
668796.000000
669590.000000
670392.000000
671175.000000
671968.000000
672784.000000
673634.000000
674436.000000
675248.000000
676103.000000
676946.000000
677751.000000
678555.000000
679372.000000
680185.000000
680996.000000
681792.000000
682591.000000
683462.000000
684367.000000
685269.000000
686149.000000
686982.000000
687758.000000
688552.000000
689335.000000
690116.000000
690924.000000
691744.000000
692566.000000
693399.000000
694200.000000
694997.000000
695797.000000
696574.000000
697351.000000
698141.000000
698932.000000
699712.000000
700523.000000
701324.000000
702131.000000
702915.000000
703691.000000
704474.000000
705248.000000
706009.000000
706785.000000
707556.000000
708329.000000
709113.000000
709887.000000
710687.000000
711520.000000
712337.000000
713129.000000
713938.000000
714722.000000
715511.000000
716300.000000
717088.000000
717870.000000
718666.000000
719517.000000
720390.000000
721232.000000
722099.000000
722940.000000
723748.000000
724586.000000
725402.000000
726200.000000
727013.000000
727826.000000
728629.000000
729453.000000
730306.000000
731126.000000
731966.000000
732807.000000
733626.000000
734467.000000
735314.000000
736125.000000
736939.000000
737736.000000
738516.000000
739280.000000
740060.000000
740868.000000
741670.000000
742515.000000
743352.000000
744168.000000
744966.000000
745786.000000
746647.000000
747455.000000
748219.000000
749006.000000
749809.000000
750626.000000
751449.000000
752232.000000
753007.000000
753793.000000
754587.000000
755370.000000
756175.000000
757036.000000
757903.000000
758706.000000
759517.000000
760326.000000
761121.000000
761909.000000
762726.000000
763529.000000
764358.000000
765184.000000
766033.000000
766868.000000
767686.000000
768513.000000
769349.000000
770163.000000
770983.000000
771810.000000
772619.000000
773416.000000
774264.000000
775093.000000
775892.000000
776692.000000
777492.000000
778295.000000
779108.000000
779982.000000
780894.000000
781746.000000
782627.000000
783496.000000
784344.000000
785217.000000
786078.000000
786914.000000
787765.000000
788600.000000
789416.000000
790254.000000
791107.000000
791941.000000
792778.000000
793658.000000
794549.000000
795406.000000
796262.000000
797087.000000
797900.000000
798736.000000
799547.000000
800384.000000
801233.000000
802058.000000
802864.000000
803677.000000
804504.000000
805298.000000
806109.000000
806946.000000
807772.000000
808609.000000
809467.000000
810314.000000
811146.000000
811994.000000
812885.000000
813728.000000
814554.000000
815397.000000
816195.000000
816997.000000
817810.000000
818634.000000
819448.000000
820282.000000
821151.000000
822046.000000
822904.000000
823765.000000
824621.000000
825457.000000
826300.000000
827151.000000
827971.000000
828778.000000
829595.000000
830423.000000
831228.000000
832034.000000
832868.000000
833693.000000
834523.000000
835390.000000
836255.000000
837096.000000
837960.000000
838799.000000
839627.000000
840459.000000
841287.000000
842091.000000
842908.000000
843737.000000
844553.000000
845392.000000
846250.000000
847064.000000
847880.000000
848701.000000
849512.000000
850303.000000
851124.000000
851964.000000
852803.000000
853670.000000
854543.000000
855413.000000
856244.000000
857095.000000
857956.000000
858767.000000
859567.000000
860384.000000
861213.000000
862021.000000
862835.000000
863692.000000
864582.000000
865420.000000
866239.000000
867073.000000
867938.000000
868770.000000
869570.000000
870366.000000
871185.000000
872079.000000
872967.000000
873862.000000
874767.000000
875616.000000
876472.000000
877330.000000
878172.000000
879022.000000
879859.000000
880667.000000
881505.000000
882314.000000
883135.000000
883951.000000
884753.000000
885554.000000
886351.000000
887159.000000
887937.000000
888736.000000
889541.000000
890324.000000
891121.000000
891947.000000
892747.000000
893540.000000
894348.000000
895160.000000
895957.000000
896760.000000
897577.000000
898366.000000
899143.000000
899926.000000
900709.000000
901481.000000
902281.000000
903114.000000
903917.000000
904737.000000
905554.000000
906338.000000
907115.000000
907896.000000
908663.000000
909432.000000
910229.000000
911033.000000
911862.000000
912724.000000
913559.000000
914402.000000
915263.000000
916098.000000
916920.000000
917762.000000
918649.000000
919476.000000
920297.000000
921125.000000
921923.000000
922702.000000
923481.000000
924282.000000
925066.000000
925863.000000
926715.000000
927580.000000
928420.000000
929297.000000
930187.000000
931045.000000
931866.000000
932693.000000
933495.000000
934275.000000
935073.000000
935896.000000
936734.000000
937547.000000
938362.000000
939164.000000
939926.000000
940710.000000
941507.000000
942309.000000
943151.000000
944000.000000
944822.000000
945644.000000
946469.000000
947284.000000
948117.000000
948960.000000
949774.000000
950601.000000
951432.000000
952240.000000
953067.000000
953906.000000
954726.000000
955554.000000
956392.000000
957210.000000
958068.000000
958913.000000
959734.000000
960574.000000
961428.000000
962263.000000
963119.000000
963983.000000
964826.000000
965695.000000
966558.000000
967410.000000
968217.000000
969028.000000
969863.000000
970699.000000
971511.000000
972340.000000
973184.000000
973998.000000
974818.000000
975644.000000
976479.000000
977290.000000
978122.000000
978983.000000
979831.000000
980664.000000
981505.000000
982364.000000
983216.000000
984050.000000
984893.000000
985804.000000
986674.000000
987498.000000
988341.000000
989199.000000
990046.000000
990874.000000
991717.000000
992581.000000
993430.000000
994280.000000
995153.000000
996005.000000
996846.000000
997695.000000
998529.000000
999375.000000
1000195.000000
1001039.000000
1001899.000000
1002741.000000
1003577.000000
1004448.000000
1005309.000000
1006142.000000
1006996.000000
1007833.000000
1008641.000000
1009445.000000
1010258.000000
1011061.000000
1011860.000000
1012652.000000
1013461.000000
1014277.000000
1015051.000000
1015824.000000
1016598.000000
1017396.000000
1018201.000000
1019029.000000
1019840.000000
1020614.000000
1021392.000000
1022187.000000
1023025.000000
1023837.000000
1024676.000000
1025511.000000
1026309.000000
1027099.000000
1027901.000000
1028719.000000
1029509.000000
1030306.000000
1031086.000000
1031854.000000
1032617.000000
1033407.000000
1034290.000000
1035216.000000
1036097.000000
1036927.000000
1037723.000000
1038501.000000
1039270.000000
1040025.000000
1040785.000000
1041544.000000
1042307.000000
1043076.000000
1043867.000000
1044655.000000
1045419.000000
1046176.000000
1046945.000000
1047726.000000
1048507.000000
1049304.000000
1050098.000000
1050871.000000
1051648.000000
1052438.000000
1053228.000000
1054018.000000
1054829.000000
1055660.000000
1056479.000000
1057300.000000
1058127.000000
1058959.000000
1059754.000000
1060543.000000
1061339.000000
1062147.000000
1062958.000000
1063801.000000
1064641.000000
1065479.000000
1066342.000000
1067203.000000
1068034.000000
1068904.000000
1069751.000000
1070569.000000
1071394.000000
1072201.000000
1073009.000000
1073821.000000
1074661.000000
1075543.000000
1076377.000000
1077224.000000
1078073.000000
1078900.000000
1079722.000000
1080564.000000
1081434.000000
1082260.000000
1083088.000000
1083924.000000
1084776.000000
1085626.000000
1086509.000000
1087422.000000
1088305.000000
1089169.000000
1090037.000000
1090882.000000
1091696.000000
1092522.000000
1093343.000000
1094169.000000
1095010.000000
1095877.000000
1096725.000000
1097576.000000
1098453.000000
1099334.000000
1100166.000000
1101001.000000
1101845.000000
1102689.000000
1103518.000000
1104396.000000
1105305.000000
1106161.000000
1106976.000000
1107803.000000
1108618.000000
1109403.000000
1110213.000000
1111038.000000
1111858.000000
1112711.000000
1113578.000000
1114412.000000
1115287.000000
1116175.000000
1117013.000000
1117855.000000
1118664.000000
1119478.000000
1120300.000000
1121124.000000
1121923.000000
1122744.000000
1123586.000000
1124394.000000
1125195.000000
1126028.000000
1126870.000000
1127692.000000
1128557.000000
1129422.000000
1130293.000000
1131117.000000
1131939.000000
1132783.000000
1133620.000000
1134472.000000
1135378.000000
1136311.000000
1137189.000000
1138074.000000
1138914.000000
1139730.000000
1140551.000000
1141423.000000
1142273.000000
1143125.000000
1144049.000000
1144965.000000
1145824.000000
1146717.000000
1147589.000000
1148410.000000
1149233.000000
1150086.000000
1150959.000000
1151806.000000
1152703.000000
1153620.000000
1154492.000000
1155351.000000
1156222.000000
1157076.000000
1157917.000000
1158778.000000
1159636.000000
1160484.000000
1161353.000000
1162235.000000
1163107.000000
1163942.000000
1164781.000000
1165646.000000
1166491.000000
1167319.000000
1168127.000000
1168945.000000
1169759.000000
1170538.000000
1171334.000000
1172146.000000
1172955.000000
1173789.000000
1174639.000000
1175514.000000
1176331.000000
1177134.000000
1177944.000000
1178766.000000
1179566.000000
1180356.000000
1181177.000000
1182027.000000
1182947.000000
1183849.000000
1184704.000000
1185597.000000
1186490.000000
1187336.000000
1188188.000000
1189040.000000
1189870.000000
1190723.000000
1191584.000000
1192416.000000
1193243.000000
1194096.000000
1194959.000000
