ECG (ms)
410.000000
1171.000000
1954.000000
2760.000000
3526.000000
4312.000000
5108.000000
5887.000000
6648.000000
7414.000000
8198.000000
8955.000000
9716.000000
10515.000000
11371.000000
12194.000000
12965.000000
13740.000000
14514.000000
15313.000000
16074.000000
16889.000000
17733.000000
18534.000000
19332.000000
20222.000000
21067.000000
21829.000000
22606.000000
23385.000000
24161.000000
24904.000000
25670.000000
26455.000000
27222.000000
27975.000000
28761.000000
29544.000000
30280.000000
30999.000000
31766.000000
32571.000000
33337.000000
34093.000000
34842.000000
35581.000000
36296.000000
36999.000000
37719.000000
38459.000000
39229.000000
40005.000000
40769.000000
41588.000000
42372.000000
43125.000000
43906.000000
44690.000000
45452.000000
46216.000000
46998.000000
47768.000000
48505.000000
49261.000000
50028.000000
50793.000000
51514.000000
52290.000000
53121.000000
53971.000000
54762.000000
55516.000000
56289.000000
57064.000000
57815.000000
58560.000000
59335.000000
60128.000000
60899.000000
61677.000000
62491.000000
63324.000000
64094.000000
64875.000000
65654.000000
66442.000000
67196.000000
67928.000000
68679.000000
69430.000000
70164.000000
70902.000000
71662.000000
72445.000000
73197.000000
73963.000000
74747.000000
75524.000000
76267.000000
77021.000000
77775.000000
78513.000000
79262.000000
80005.000000
80744.000000
81479.000000
82214.000000
83007.000000
83825.000000
84672.000000
85439.000000
86212.000000
86988.000000
87738.000000
88461.000000
89209.000000
90013.000000
90829.000000
91640.000000
92407.000000
93191.000000
93985.000000
94757.000000
95521.000000
96306.000000
97099.000000
97861.000000
98639.000000
99456.000000
100241.000000
101014.000000
101838.000000
102665.000000
103431.000000
104215.000000
105015.000000
105784.000000
106556.000000
107320.000000
108082.000000
108817.000000
109576.000000
110351.000000
111092.000000
111851.000000
112615.000000
113350.000000
114103.000000
114856.000000
115582.000000
116326.000000
117067.000000
117796.000000
118520.000000
119265.000000
120018.000000
120756.000000
121520.000000
122281.000000
123013.000000
123770.000000
124518.000000
125243.000000
125949.000000
126680.000000
127426.000000
128180.000000
128932.000000
129709.000000
130482.000000
131219.000000
131975.000000
132738.000000
133473.000000
134202.000000
134925.000000
135653.000000
136357.000000
137083.000000
137822.000000
138569.000000
139302.000000
140058.000000
140801.000000
141518.000000
142248.000000
142970.000000
143669.000000
144364.000000
145058.000000
145739.000000
146404.000000
147097.000000
147803.000000
148504.000000
149226.000000
149964.000000
150662.000000
151358.000000
152074.000000
152795.000000
153493.000000
154189.000000
154884.000000
155572.000000
156242.000000
156956.000000
157684.000000
158396.000000
159098.000000
159825.000000
160577.000000
161354.000000
162107.000000
162897.000000
163682.000000
164415.000000
165152.000000
165882.000000
166594.000000
167317.000000
168040.000000
168773.000000
169493.000000
170231.000000
170994.000000
171743.000000
172500.000000
173272.000000
174024.000000
174771.000000
175529.000000
176277.000000
176999.000000
177741.000000
178492.000000
179219.000000
179969.000000
180745.000000
181559.000000
182319.000000
183117.000000
183928.000000
184700.000000
185474.000000
186236.000000
186951.000000
187638.000000
188335.000000
189035.000000
189734.000000
190451.000000
191203.000000
191951.000000
192710.000000
193508.000000
194295.000000
195042.000000
195808.000000
196589.000000
197327.000000
198078.000000
198841.000000
199572.000000
200325.000000
201073.000000
201805.000000
202538.000000
203281.000000
204019.000000
204741.000000
205483.000000
206241.000000
206972.000000
207721.000000
208478.000000
209220.000000
209973.000000
210747.000000
211533.000000
212282.000000
213046.000000
213786.000000
214502.000000
215234.000000
215983.000000
216706.000000
217461.000000
218247.000000
219002.000000
219761.000000
220533.000000
221330.000000
222105.000000
222906.000000
223764.000000
224594.000000
225352.000000
226145.000000
226985.000000
227755.000000
228544.000000
229332.000000
230089.000000
230830.000000
231579.000000
232338.000000
233082.000000
233855.000000
234648.000000
235455.000000
236233.000000
237028.000000
237830.000000
238599.000000
239361.000000
240158.000000
240959.000000
241749.000000
242501.000000
243258.000000
244025.000000
244804.000000
245563.000000
246356.000000
247179.000000
247960.000000
248759.000000
249556.000000
250323.000000
251086.000000
251859.000000
252610.000000
253356.000000
254111.000000
254862.000000
255599.000000
256368.000000
257147.000000
257892.000000
258666.000000
259441.000000
260163.000000
260902.000000
261632.000000
262340.000000
263048.000000
263742.000000
264458.000000
265180.000000
265898.000000
266622.000000
267367.000000
268108.000000
268822.000000
269563.000000
270303.000000
271012.000000
271762.000000
272512.000000
273227.000000
273964.000000
274711.000000
275444.000000
276183.000000
276930.000000
277665.000000
278376.000000
279105.000000
279829.000000
280530.000000
281266.000000
282024.000000
282784.000000
283523.000000
284301.000000
285084.000000
285822.000000
286588.000000
287371.000000
288117.000000
288859.000000
289645.000000
290485.000000
291309.000000
292119.000000
292972.000000
293770.000000
294554.000000
295338.000000
296137.000000
296901.000000
297700.000000
298525.000000
299298.000000
300054.000000
300815.000000
301577.000000
302331.000000
303143.000000
303939.000000
304709.000000
305530.000000
306374.000000
307169.000000
307959.000000
308789.000000
309595.000000
310345.000000
311114.000000
311898.000000
312667.000000
313431.000000
314228.000000
315025.000000
315802.000000
316643.000000
317448.000000
318225.000000
319027.000000
319787.000000
320537.000000
321335.000000
322178.000000
322955.000000
323823.000000
324733.000000
325596.000000
326486.000000
327395.000000
328203.000000
328987.000000
329755.000000
330509.000000
331248.000000
332020.000000
332802.000000
333590.000000
334460.000000
335549.000000
336519.000000
337416.000000
338244.000000
339044.000000
339841.000000
340596.000000
341384.000000
342209.000000
343070.000000
343869.000000
344797.000000
345727.000000
346537.000000
347368.000000
348184.000000
348949.000000
349753.000000
350584.000000
351370.000000
352170.000000
352984.000000
353822.000000
354611.000000
355418.000000
356230.000000
356990.000000
357785.000000
358589.000000
359353.000000
360142.000000
360948.000000
361726.000000
362537.000000
363370.000000
364162.000000
364944.000000
365732.000000
366510.000000
367284.000000
368143.000000
368978.000000
369792.000000
370635.000000
371463.000000
372228.000000
373025.000000
373847.000000
374636.000000
375419.000000
376264.000000
377152.000000
377990.000000
378800.000000
379628.000000
380454.000000
381256.000000
382082.000000
383025.000000
383888.000000
384717.000000
385570.000000
386426.000000
387224.000000
388088.000000
388934.000000
389733.000000
390569.000000
391441.000000
392251.000000
393115.000000
394001.000000
394815.000000
395705.000000
396575.000000
397375.000000
398215.000000
399053.000000
399865.000000
400721.000000
401557.000000
402323.000000
403110.000000
403886.000000
404617.000000
405349.000000
406109.000000
406951.000000
407820.000000
408706.000000
409530.000000
410331.000000
411129.000000
411919.000000
412694.000000
413446.000000
414224.000000
415028.000000
415806.000000
416612.000000
417435.000000
418230.000000
419005.000000
419806.000000
420606.000000
421360.000000
422136.000000
422912.000000
423658.000000
424432.000000
425225.000000
425988.000000
426786.000000
427600.000000
428391.000000
429177.000000
430018.000000
430878.000000
431684.000000
432474.000000
433289.000000
434112.000000
434883.000000
435681.000000
436486.000000
437263.000000
438074.000000
438896.000000
439739.000000
440504.000000
441290.000000
442038.000000
442775.000000
443517.000000
444240.000000
444967.000000
445687.000000
446394.000000
447100.000000
447805.000000
448548.000000
449317.000000
450057.000000
450820.000000
451606.000000
452359.000000
453112.000000
453866.000000
454603.000000
455331.000000
456091.000000
456863.000000
457601.000000
458376.000000
459163.000000
459907.000000
460659.000000
461428.000000
462180.000000
462932.000000
463728.000000
464542.000000
465319.000000
466168.000000
467037.000000
467815.000000
468615.000000
469394.000000
470133.000000
470902.000000
471673.000000
472413.000000
473193.000000
474004.000000
474775.000000
475582.000000
476438.000000
477221.000000
477996.000000
478777.000000
479549.000000
480290.000000
481065.000000
481858.000000
482618.000000
483447.000000
484296.000000
485071.000000
485860.000000
486660.000000
487428.000000
488209.000000
489015.000000
489825.000000
490633.000000
491526.000000
492386.000000
493242.000000
494138.000000
494922.000000
495722.000000
496518.000000
497291.000000
498056.000000
498863.000000
499700.000000
500496.000000
501352.000000
502151.000000
502932.000000
503779.000000
504608.000000
505397.000000
506188.000000
506968.000000
507711.000000
508472.000000
509245.000000
510013.000000
510814.000000
511692.000000
512594.000000
513505.000000
514414.000000
515249.000000
516039.000000
516826.000000
517591.000000
518339.000000
519117.000000
519913.000000
520683.000000
521517.000000
522394.000000
523226.000000
524112.000000
524996.000000
525784.000000
526587.000000
527405.000000
528170.000000
528987.000000
529906.000000
530764.000000
531531.000000
532294.000000
533062.000000
533860.000000
534682.000000
535587.000000
536598.000000
537618.000000
538532.000000
539384.000000
540212.000000
541031.000000
541829.000000
542609.000000
543374.000000
544122.000000
544862.000000
545626.000000
546432.000000
547316.000000
548209.000000
549094.000000
549947.000000
550776.000000
551544.000000
552341.000000
553135.000000
553913.000000
554672.000000
555463.000000
556310.000000
557092.000000
557889.000000
558684.000000
559443.000000
560200.000000
560977.000000
561724.000000
562446.000000
563190.000000
563929.000000
564640.000000
565338.000000
566048.000000
566771.000000
567509.000000
568231.000000
568993.000000
569777.000000
570533.000000
571294.000000
572086.000000
572838.000000
573586.000000
574337.000000
575072.000000
575794.000000
576534.000000
577275.000000
577987.000000
578731.000000
579473.000000
580191.000000
580950.000000
581729.000000
582480.000000
583240.000000
584011.000000
584753.000000
585489.000000
586242.000000
586987.000000
587709.000000
588456.000000
589185.000000
589905.000000
590645.000000
591379.000000
592090.000000
592832.000000
593577.000000
594292.000000
595027.000000
595756.000000
596462.000000
597171.000000
597882.000000
598594.000000
599300.000000
600042.000000
600780.000000
601489.000000
602229.000000
602970.000000
603684.000000
604422.000000
605163.000000
605894.000000
606640.000000
607383.000000
608102.000000
608838.000000
609576.000000
610299.000000
611012.000000
611744.000000
612472.000000
613176.000000
613906.000000
614630.000000
615332.000000
616053.000000
616799.000000
617525.000000
618249.000000
618986.000000
619717.000000
620432.000000
621160.000000
621893.000000
622602.000000
623334.000000
624075.000000
624792.000000
625537.000000
626282.000000
627011.000000
627730.000000
628462.000000
629191.000000
629895.000000
630620.000000
631346.000000
632051.000000
632755.000000
633470.000000
634199.000000
634908.000000
635654.000000
636407.000000
637134.000000
637865.000000
638621.000000
639395.000000
640134.000000
640879.000000
641658.000000
642459.000000
643222.000000
644006.000000
644781.000000
645549.000000
646277.000000
647018.000000
647753.000000
648479.000000
649207.000000
649964.000000
650751.000000
651508.000000
652275.000000
653066.000000
653852.000000
654612.000000
655400.000000
656197.000000
656994.000000
657764.000000
658565.000000
659379.000000
660151.000000
660944.000000
661751.000000
662549.000000
663326.000000
664142.000000
664948.000000
665710.000000
666518.000000
667336.000000
668114.000000
668961.000000
669902.000000
670780.000000
671641.000000
672500.000000
673403.000000
674221.000000
675032.000000
675840.000000
676618.000000
677399.000000
678205.000000
679031.000000
679833.000000
680685.000000
681558.000000
682374.000000
683268.000000
684131.000000
684930.000000
685756.000000
686578.000000
687354.000000
688164.000000
689003.000000
689817.000000
690631.000000
691487.000000
692340.000000
693145.000000
693975.000000
694844.000000
695638.000000
696463.000000
697289.000000
698067.000000
698895.000000
699722.000000
700504.000000
701358.000000
702213.000000
703028.000000
703909.000000
704735.000000
705542.000000
706378.000000
707180.000000
707971.000000
708758.000000
709513.000000
710259.000000
711043.000000
711829.000000
712595.000000
713393.000000
714231.000000
715016.000000
715821.000000
716638.000000
717442.000000
718203.000000
718990.000000
719800.000000
720588.000000
721386.000000
722214.000000
723022.000000
723793.000000
724590.000000
725412.000000
726186.000000
726974.000000
727781.000000
728552.000000
729322.000000
730119.000000
730929.000000
731698.000000
732531.000000
733386.000000
734179.000000
735027.000000
735867.000000
736664.000000
737453.000000
738271.000000
739081.000000
739849.000000
740643.000000
741439.000000
742201.000000
742998.000000
743827.000000
744626.000000
745425.000000
746276.000000
747132.000000
747953.000000
748845.000000
749737.000000
750537.000000
751352.000000
752136.000000
752888.000000
753672.000000
754489.000000
755289.000000
756088.000000
756940.000000
757777.000000
758568.000000
759405.000000
760261.000000
761085.000000
761995.000000
762948.000000
763772.000000
764635.000000
765520.000000
766335.000000
767072.000000
767814.000000
768566.000000
769355.000000
770206.000000
771089.000000
771950.000000
772859.000000
773764.000000
774570.000000
775400.000000
776223.000000
777016.000000
777810.000000
778629.000000
779501.000000
780369.000000
781246.000000
782173.000000
783115.000000
783947.000000
784792.000000
785639.000000
786452.000000
787249.000000
788081.000000
788909.000000
789712.000000
790451.000000
791171.000000
791887.000000
792607.000000
793358.000000
794108.000000
794847.000000
795637.000000
796465.000000
797305.000000
798146.000000
798992.000000
799844.000000
800696.000000
801541.000000
802391.000000
803255.000000
804138.000000
805034.000000
805951.000000
806878.000000
807797.000000
808724.000000
809527.000000
810343.000000
811137.000000
811906.000000
812643.000000
813382.000000
814142.000000
814905.000000
815695.000000
816522.000000
817363.000000
818137.000000
818958.000000
819731.000000
820477.000000
821235.000000
821978.000000
822706.000000
823468.000000
824230.000000
824947.000000
825662.000000
826409.000000
827172.000000
827926.000000
828736.000000
829590.000000
830365.000000
831163.000000
831990.000000
832789.000000
833588.000000
834379.000000
835142.000000
835903.000000
836680.000000
837450.000000
838185.000000
838930.000000
839684.000000
840454.000000
841222.000000
842053.000000
842908.000000
843697.000000
844520.000000
845360.000000
846155.000000
846932.000000
847719.000000
848508.000000
849285.000000
850103.000000
850908.000000
851709.000000
852547.000000
853385.000000
854181.000000
855012.000000
855837.000000
856606.000000
857415.000000
858239.000000
859018.000000
859847.000000
860672.000000
861453.000000
862276.000000
863106.000000
863886.000000
864728.000000
865560.000000
866352.000000
867149.000000
867919.000000
868680.000000
869452.000000
870208.000000
870958.000000
871730.000000
872505.000000
873256.000000
874046.000000
874843.000000
875593.000000
876377.000000
877190.000000
877957.000000
878765.000000
879596.000000
880377.000000
881195.000000
882041.000000
882819.000000
883652.000000
884544.000000
885355.000000
886190.000000
887025.000000
887847.000000
888622.000000
889447.000000
890318.000000
891161.000000
892000.000000
892843.000000
893638.000000
894431.000000
895279.000000
896181.000000
897028.000000
897852.000000
898660.000000
899476.000000
900290.000000
901085.000000
901925.000000
902818.000000
903684.000000
904541.000000
905434.000000
906371.000000
907246.000000
908079.000000
908923.000000
909778.000000
910606.000000
911402.000000
912224.000000
913055.000000
913869.000000
914684.000000
915521.000000
916335.000000
917150.000000
918007.000000
918872.000000
919662.000000
920485.000000
921317.000000
922133.000000
922918.000000
923734.000000
924573.000000
925351.000000
926161.000000
926989.000000
927785.000000
928570.000000
929394.000000
930236.000000
931017.000000
931841.000000
932687.000000
933483.000000
934283.000000
935098.000000
935897.000000
936676.000000
937526.000000
938330.000000
939097.000000
939898.000000
940715.000000
941476.000000
942277.000000
943091.000000
943863.000000
944659.000000
945469.000000
946242.000000
947018.000000
947810.000000
948582.000000
949331.000000
950116.000000
950904.000000
951678.000000
952475.000000
953277.000000
954066.000000
954826.000000
955608.000000
956406.000000
957177.000000
957964.000000
958774.000000
959567.000000
960328.000000
961110.000000
961895.000000
962643.000000
963404.000000
964183.000000
964944.000000
965689.000000
966467.000000
967235.000000
967975.000000
968747.000000
969529.000000
970270.000000
971046.000000
971835.000000
972588.000000
973360.000000
974141.000000
974892.000000
975646.000000
976411.000000
977162.000000
977901.000000
978663.000000
979429.000000
980165.000000
980938.000000
981709.000000
982458.000000
983234.000000
984006.000000
984747.000000
985489.000000
986240.000000
986986.000000
987711.000000
988457.000000
989222.000000
989960.000000
990701.000000
991480.000000
992283.000000
993036.000000
993816.000000
994583.000000
995319.000000
996084.000000
996839.000000
997577.000000
998339.000000
999072.000000
999780.000000
1000477.000000
1001198.000000
1001941.000000
1002674.000000
1003444.000000
1004230.000000
1004978.000000
1005775.000000
1006533.000000
1007241.000000
1007934.000000
1008631.000000
1009346.000000
1010080.000000
1010820.000000
1011517.000000
1012247.000000
1012968.000000
1013703.000000
1014442.000000
1015206.000000
1015981.000000
1016757.000000
1017517.000000
1018259.000000
1018973.000000
1019683.000000
1020384.000000
1021069.000000
1021746.000000
1022441.000000
1023132.000000
1023824.000000
1024494.000000
1025203.000000
1025913.000000
1026652.000000
1027369.000000
1028091.000000
1028818.000000
1029567.000000
1030315.000000
1031054.000000
1031822.000000
1032626.000000
1033466.000000
1034243.000000
1035042.000000
1035826.000000
1036572.000000
1037310.000000
1038028.000000
1038731.000000
1039420.000000
1040082.000000
1040802.000000
1041520.000000
1042241.000000
1042971.000000
1043735.000000
1044513.000000
1045251.000000
1046040.000000
1046861.000000
1047656.000000
1048423.000000
1049224.000000
1050033.000000
1050804.000000
1051629.000000
1052493.000000
1053287.000000
1054125.000000
1054957.000000
1055738.000000
1056545.000000
1057455.000000
1058299.000000
1059162.000000
1060050.000000
1060836.000000
1061626.000000
1062417.000000
1063163.000000
1063929.000000
1064721.000000
1065520.000000
1066287.000000
1067121.000000
1067978.000000
1068778.000000
1069623.000000
1070426.000000
1071217.000000
1072045.000000
1072862.000000
1073643.000000
1074487.000000
1075334.000000
1076107.000000
1076937.000000
1077756.000000
1078528.000000
1079345.000000
1080169.000000
1080938.000000
1081756.000000
1082571.000000
1083374.000000
1084164.000000
1084997.000000
1085817.000000
1086593.000000
1087404.000000
1088247.000000
1089039.000000
1089898.000000
1090769.000000
1091567.000000
1092389.000000
1093223.000000
1094019.000000
1094806.000000
1095616.000000
1096401.000000
1097166.000000
1097935.000000
1098682.000000
1099414.000000
1100131.000000
1100842.000000
1101538.000000
1102261.000000
1102986.000000
1103704.000000
1104418.000000
1105149.000000
1105893.000000
1106612.000000
1107356.000000
1108093.000000
1108810.000000
1109555.000000
1110311.000000
1111056.000000
1111807.000000
1112583.000000
1113376.000000
1114136.000000
1114934.000000
1115714.000000
1116463.000000
1117253.000000
1118050.000000
1118800.000000
1119602.000000
1120440.000000
1121262.000000
1122059.000000
1122912.000000
1123840.000000
1124672.000000
1125493.000000
1126315.000000
1127098.000000
1127877.000000
1128680.000000
1129487.000000
1130252.000000
1131053.000000
1131864.000000
1132627.000000
1133436.000000
1134258.000000
1135027.000000
1135809.000000
1136603.000000
1137426.000000
1138208.000000
1139051.000000
1139957.000000
1140777.000000
1141610.000000
1142411.000000
1143163.000000
1143938.000000
1144727.000000
1145496.000000
1146288.000000
1147095.000000
1147874.000000
1148645.000000
1149446.000000
1150240.000000
1151006.000000
1151807.000000
1152603.000000
1153357.000000
1154146.000000
1154940.000000
1155683.000000
1156453.000000
1157209.000000
1157938.000000
1158700.000000
1159489.000000
1160242.000000
1161074.000000
1161905.000000
1162686.000000
1163524.000000
1164307.000000
1165077.000000
1165873.000000
1166653.000000
1167418.000000
1168219.000000
1169014.000000
1169773.000000
1170571.000000
1171385.000000
1172149.000000
1172924.000000
1173694.000000
1174439.000000
1175181.000000
1175928.000000
1176674.000000
1177411.000000
1178190.000000
1179031.000000
1179835.000000
1180631.000000
1181453.000000
1182312.000000
1183112.000000
1183911.000000
1184750.000000
1185621.000000
1186438.000000
1187218.000000
1188021.000000
1188845.000000
1189668.000000
1190454.000000
1191247.000000
1192036.000000
1192841.000000
1193718.000000
1194706.000000
1195787.000000
1196831.000000
1197722.000000
1198599.000000
1199507.000000
1200486.000000
1201488.000000
1202395.000000
1203252.000000
1204101.000000
1204985.000000
1205895.000000
1206770.000000
1207606.000000
1208517.000000
1209532.000000
1210589.000000
1211503.000000
1212318.000000
1213126.000000
1213932.000000
