ECG (ms)
552.000000
1530.000000
2504.000000
3389.000000
4254.000000
5211.000000
6210.000000
7212.000000
8096.000000
8994.000000
9957.000000
10931.000000
11822.000000
12643.000000
13513.000000
14506.000000
15506.000000
16465.000000
17297.000000
18157.000000
19099.000000
20063.000000
20937.000000
21781.000000
22687.000000
23639.000000
24506.000000
25341.000000
26258.000000
27233.000000
28197.000000
29056.000000
29926.000000
30918.000000
31930.000000
32815.000000
33672.000000
34525.000000
35333.000000
36261.000000
37272.000000
38304.000000
39223.000000
40064.000000
40960.000000
41999.000000
43082.000000
44103.000000
44988.000000
45887.000000
46854.000000
47865.000000
48869.000000
49762.000000
50607.000000
51521.000000
52521.000000
53520.000000
54425.000000
55256.000000
56131.000000
57063.000000
58019.000000
58867.000000
59720.000000
60590.000000
61487.000000
62302.000000
63127.000000
64048.000000
65005.000000
65967.000000
66854.000000
67698.000000
68582.000000
69526.000000
70467.000000
71320.000000
72140.000000
73026.000000
73960.000000
74923.000000
75822.000000
76656.000000
77496.000000
78414.000000
79372.000000
80317.000000
81227.000000
82051.000000
82856.000000
83750.000000
84764.000000
85618.000000
86406.000000
87304.000000
88298.000000
89139.000000
89933.000000
90786.000000
91737.000000
92737.000000
93720.000000
94579.000000
95393.000000
96278.000000
97251.000000
98237.000000
99140.000000
99952.000000
100766.000000
101680.000000
102630.000000
103595.000000
104457.000000
105279.000000
106180.000000
107177.000000
108155.000000
109118.000000
109964.000000
110788.000000
111689.000000
112680.000000
113683.000000
114685.000000
115571.000000
116381.000000
117202.000000
118090.000000
119020.000000
120026.000000
120970.000000
121794.000000
122588.000000
123443.000000
124414.000000
125435.000000
126448.000000
127371.000000
128194.000000
128952.000000
129733.000000
130671.000000
131629.000000
132551.000000
133357.000000
134188.000000
135215.000000
136216.000000
137208.000000
138135.000000
138978.000000
139861.000000
140829.000000
141810.000000
142791.000000
143765.000000
144643.000000
145464.000000
146379.000000
147416.000000
148451.000000
149469.000000
150488.000000
151476.000000
152373.000000
153207.000000
154094.000000
155134.000000
156203.000000
157273.000000
158311.000000
159224.000000
160088.000000
161064.000000
162182.000000
163288.000000
164394.000000
165488.000000
166499.000000
167414.000000
168366.000000
169405.000000
170476.000000
171507.000000
172409.000000
173262.000000
174179.000000
175157.000000
176169.000000
177185.000000
178105.000000
179021.000000
180020.000000
181051.000000
182068.000000
182987.000000
183855.000000
184811.000000
185802.000000
186788.000000
187711.000000
188606.000000
189585.000000
190574.000000
191519.000000
192381.000000
193300.000000
194311.000000
195350.000000
196281.000000
197215.000000
198244.000000
199319.000000
200327.000000
201235.000000
202178.000000
203193.000000
204216.000000
205142.000000
206086.000000
207114.000000
208170.000000
209190.000000
210096.000000
211039.000000
212093.000000
213180.000000
214258.000000
215275.000000
216212.000000
217299.000000
218424.000000
219485.000000
220385.000000
221290.000000
222380.000000
223470.000000
224532.000000
225483.000000
226329.000000
227212.000000
228191.000000
229192.000000
230099.000000
230945.000000
231883.000000
232883.000000
233861.000000
234737.000000
235676.000000
236699.000000
237660.000000
238529.000000
239473.000000
240510.000000
241476.000000
242326.000000
243206.000000
244180.000000
245178.000000
246081.000000
246937.000000
247887.000000
248878.000000
249901.000000
250799.000000
251670.000000
252679.000000
253703.000000
254699.000000
255576.000000
256432.000000
257394.000000
258400.000000
259370.000000
260259.000000
261184.000000
262201.000000
263262.000000
264185.000000
265102.000000
266086.000000
267129.000000
268130.000000
269031.000000
269974.000000
271032.000000
272099.000000
273015.000000
273910.000000
274750.000000
275552.000000
276767.000000
277941.000000
278933.000000
280000.000000
281171.000000
282335.000000
283375.000000
284391.000000
285565.000000
286731.000000
287842.000000
288809.000000
289779.000000
290917.000000
292094.000000
293183.000000
294133.000000
295188.000000
296330.000000
297423.000000
298347.000000
299255.000000
300367.000000
301520.000000
302597.000000
303641.000000
304762.000000
305896.000000
306924.000000
307879.000000
308974.000000
310116.000000
311224.000000
312208.000000
313274.000000
314464.000000
315651.000000
316637.000000
317626.000000
318789.000000
319944.000000
320988.000000
321904.000000
322866.000000
323946.000000
325062.000000
326141.000000
327089.000000
327964.000000
328867.000000
329929.000000
331071.000000
332246.000000
333365.000000
334436.000000
335346.000000
336221.000000
337252.000000
338334.000000
339418.000000
340453.000000
341362.000000
342224.000000
343169.000000
344220.000000
345280.000000
346308.000000
347280.000000
348151.000000
349072.000000
350093.000000
351106.000000
351988.000000
352837.000000
353775.000000
354787.000000
355817.000000
356710.000000
357583.000000
358597.000000
359670.000000
360752.000000
361657.000000
362526.000000
363472.000000
364515.000000
365560.000000
366465.000000
367317.000000
368241.000000
369319.000000
370395.000000
371423.000000
372311.000000
373233.000000
374261.000000
375339.000000
376323.000000
377190.000000
378070.000000
379109.000000
380174.000000
381262.000000
382250.000000
383193.000000
384281.000000
385393.000000
386470.000000
387429.000000
388409.000000
389522.000000
390655.000000
391751.000000
392825.000000
393746.000000
394624.000000
395514.000000
396438.000000
397534.000000
398657.000000
399548.000000
400565.000000
401749.000000
402881.000000
404012.000000
404970.000000
405895.000000
407030.000000
408181.000000
409319.000000
410438.000000
411455.000000
412336.000000
413187.000000
414002.000000
414922.000000
416230.000000
417451.000000
418669.000000
419891.000000
421114.000000
422271.000000
423249.000000
424169.000000
425079.000000
426066.000000
427291.000000
428515.000000
429723.000000
430893.000000
432039.000000
433019.000000
433903.000000
434774.000000
435676.000000
436696.000000
437887.000000
439062.000000
440195.000000
441297.000000
442371.000000
443438.000000
444475.000000
445386.000000
446230.000000
447064.000000
447949.000000
448962.000000
450027.000000
451085.000000
452125.000000
453147.000000
454186.000000
455209.000000
456151.000000
457000.000000
457861.000000
458874.000000
459962.000000
461067.000000
462164.000000
463228.000000
464257.000000
465171.000000
466039.000000
466942.000000
467993.000000
469148.000000
470294.000000
471410.000000
472525.000000
473617.000000
474639.000000
475526.000000
476364.000000
477218.000000
478298.000000
479462.000000
480565.000000
481645.000000
482737.000000
483773.000000
484786.000000
485679.000000
486518.000000
487371.000000
488245.000000
489223.000000
490306.000000
491401.000000
492491.000000
493528.000000
494536.000000
495519.000000
496485.000000
497357.000000
498186.000000
499059.000000
500045.000000
501094.000000
502135.000000
503158.000000
504179.000000
505168.000000
506139.000000
507109.000000
508081.000000
509065.000000
510043.000000
510934.000000
511786.000000
512720.000000
513715.000000
514712.000000
515716.000000
516688.000000
517557.000000
518440.000000
519409.000000
520429.000000
521437.000000
522460.000000
523348.000000
524207.000000
525016.000000
525787.000000
526669.000000
527678.000000
528724.000000
529630.000000
530477.000000
531449.000000
532596.000000
533729.000000
534834.000000
535800.000000
536751.000000
537880.000000
539020.000000
540108.000000
541173.000000
542128.000000
542987.000000
543848.000000
544862.000000
546007.000000
547150.000000
548246.000000
549207.000000
550086.000000
550951.000000
551877.000000
553045.000000
554200.000000
555341.000000
556451.000000
557414.000000
558282.000000
559133.000000
560034.000000
561179.000000
562358.000000
563497.000000
564603.000000
565653.000000
566570.000000
567448.000000
568343.000000
569464.000000
570616.000000
571757.000000
572874.000000
573978.000000
574916.000000
575814.000000
576730.000000
577923.000000
579082.000000
580241.000000
581344.000000
582444.000000
583521.000000
584592.000000
585627.000000
586555.000000
587451.000000
588394.000000
589525.000000
590653.000000
591760.000000
592697.000000
593624.000000
594622.000000
595669.000000
596702.000000
597632.000000
598587.000000
599661.000000
600745.000000
601729.000000
602727.000000
603876.000000
605019.000000
606110.000000
607122.000000
608062.000000
609115.000000
610276.000000
611399.000000
612503.000000
613616.000000
614577.000000
615514.000000
616586.000000
617778.000000
618915.000000
620005.000000
620969.000000
621843.000000
622701.000000
623663.000000
624793.000000
625912.000000
627045.000000
628141.000000
629098.000000
629988.000000
631020.000000
632153.000000
633245.000000
634302.000000
635244.000000
636287.000000
637384.000000
638467.000000
639432.000000
640363.000000
641420.000000
642523.000000
643602.000000
644543.000000
645556.000000
646704.000000
647845.000000
648843.000000
649810.000000
650895.000000
652025.000000
653104.000000
654039.000000
654922.000000
655822.000000
656767.000000
657871.000000
659064.000000
660239.000000
661400.000000
662505.000000
663451.000000
664504.000000
665658.000000
666804.000000
667941.000000
668914.000000
669914.000000
671021.000000
672162.000000
673258.000000
674228.000000
675136.000000
676091.000000
677200.000000
678344.000000
679478.000000
680549.000000
681549.000000
682430.000000
683284.000000
684176.000000
685326.000000
686498.000000
687656.000000
688790.000000
689800.000000
690894.000000
692016.000000
693123.000000
694223.000000
695309.000000
696266.000000
697161.000000
698032.000000
698998.000000
700213.000000
701395.000000
702331.000000
703193.000000
704402.000000
705558.000000
706691.000000
707666.000000
708553.000000
709443.000000
710433.000000
711582.000000
712747.000000
713878.000000
714964.000000
716029.000000
716936.000000
717822.000000
718850.000000
719932.000000
721039.000000
722055.000000
722948.000000
723865.000000
724961.000000
726092.000000
727149.000000
728059.000000
728978.000000
730078.000000
731191.000000
732155.000000
733039.000000
733990.000000
735055.000000
736118.000000
737044.000000
737917.000000
738870.000000
739913.000000
740927.000000
741836.000000
742778.000000
743830.000000
744896.000000
745835.000000
746738.000000
747746.000000
748803.000000
749761.000000
750633.000000
751566.000000
752606.000000
753640.000000
754545.000000
755419.000000
756428.000000
757488.000000
758441.000000
759325.000000
760319.000000
761395.000000
762436.000000
763338.000000
764269.000000
765295.000000
766352.000000
767296.000000
768273.000000
769410.000000
770544.000000
771551.000000
772597.000000
773735.000000
774821.000000
775794.000000
776813.000000
777886.000000
778945.000000
779873.000000
780789.000000
781807.000000
782881.000000
783962.000000
784922.000000
785935.000000
787056.000000
788179.000000
789159.000000
790168.000000
791306.000000
792396.000000
793492.000000
794462.000000
795423.000000
796480.000000
797557.000000
798584.000000
799495.000000
800373.000000
801362.000000
802441.000000
803552.000000
804652.000000
805602.000000
806530.000000
807618.000000
808730.000000
809819.000000
810798.000000
811857.000000
812937.000000
814026.000000
815009.000000
815923.000000
816855.000000
817962.000000
819130.000000
820287.000000
821410.000000
822512.000000
823582.000000
824519.000000
825405.000000
826474.000000
827649.000000
828771.000000
829708.000000
830732.000000
831828.000000
832933.000000
833975.000000
834883.000000
835814.000000
836881.000000
837970.000000
838898.000000
839880.000000
840985.000000
842081.000000
843023.000000
843994.000000
845065.000000
846117.000000
847049.000000
847918.000000
848878.000000
849933.000000
850875.000000
851743.000000
852690.000000
853700.000000
854650.000000
855515.000000
856438.000000
857505.000000
858548.000000
859454.000000
860399.000000
861422.000000
862436.000000
863331.000000
864241.000000
865247.000000
866284.000000
867218.000000
868127.000000
869145.000000
870200.000000
871153.000000
872027.000000
872946.000000
873958.000000
874975.000000
875880.000000
876761.000000
877767.000000
878798.000000
879810.000000
880709.000000
881659.000000
882721.000000
883782.000000
884757.000000
885640.000000
886523.000000
887508.000000
888593.000000
889696.000000
890755.000000
891753.000000
892634.000000
893493.000000
894457.000000
895533.000000
896629.000000
897691.000000
898606.000000
899490.000000
900530.000000
901654.000000
902789.000000
903903.000000
904875.000000
905899.000000
907035.000000
908184.000000
909243.000000
910206.000000
911301.000000
912438.000000
913531.000000
914500.000000
915472.000000
916600.000000
917722.000000
918846.000000
919820.000000
920718.000000
921626.000000
922567.000000
923693.000000
924843.000000
925989.000000
927080.000000
928179.000000
929235.000000
930117.000000
930954.000000
931817.000000
932803.000000
933984.000000
935137.000000
936031.000000
936901.000000
938036.000000
939108.000000
940007.000000
940916.000000
941982.000000
943076.000000
944169.000000
945147.000000
946113.000000
947186.000000
948291.000000
949248.000000
950140.000000
951105.000000
952177.000000
953200.000000
954107.000000
955111.000000
956219.000000
957259.000000
958186.000000
959213.000000
960302.000000
961324.000000
962245.000000
963237.000000
964278.000000
965261.000000
966149.000000
967109.000000
968171.000000
969233.000000
970164.000000
971191.000000
972260.000000
973319.000000
974220.000000
975124.000000
976125.000000
977197.000000
978190.000000
979085.000000
980070.000000
981149.000000
982244.000000
983190.000000
984134.000000
985219.000000
986334.000000
987328.000000
988256.000000
989374.000000
990510.000000
991542.000000
992488.000000
993521.000000
994597.000000
995653.000000
996587.000000
997473.000000
998365.000000
999278.000000
1000322.000000
1001486.000000
1002668.000000
1003821.000000
1004964.000000
1006073.000000
1007162.000000
1008240.000000
1009167.000000
1010071.000000
1010906.000000
1011697.000000
1012645.000000
1013795.000000
1014919.000000
1016004.000000
1016940.000000
1017857.000000
1018846.000000
1019961.000000
1021089.000000
1022172.000000
1023278.000000
1024338.000000
1025274.000000
1026154.000000
1027142.000000
1028299.000000
1029470.000000
1030594.000000
1031594.000000
1032540.000000
1033673.000000
1034836.000000
1035921.000000
1036862.000000
1037940.000000
1039110.000000
1040208.000000
1041134.000000
1042136.000000
1043215.000000
1044309.000000
1045271.000000
1046265.000000
1047436.000000
1048566.000000
1049605.000000
1050577.000000
1051598.000000
1052791.000000
1053952.000000
1055098.000000
1056175.000000
1057130.000000
1058207.000000
1059341.000000
1060432.000000
1061385.000000
1062261.000000
1063213.000000
1064261.000000
1065215.000000
1066072.000000
1066994.000000
1068029.000000
1069069.000000
1069990.000000
1070946.000000
1071970.000000
1073014.000000
1073922.000000
1074836.000000
1075838.000000
1076840.000000
1077746.000000
1078634.000000
1079640.000000
1080681.000000
1081612.000000
1082540.000000
1083545.000000
1084575.000000
1085494.000000
1086420.000000
1087440.000000
1088522.000000
1089486.000000
1090370.000000
1091343.000000
1092453.000000
1093586.000000
1094682.000000
1095643.000000
1096600.000000
1097754.000000
1098910.000000
1099979.000000
1100950.000000
1102062.000000
1103220.000000
1104272.000000
1105226.000000
1106276.000000
1107373.000000
1108413.000000
1109349.000000
1110429.000000
1111550.000000
1112652.000000
1113620.000000
1114688.000000
1115798.000000
1116877.000000
1117834.000000
1118699.000000
1119582.000000
1120674.000000
1121804.000000
1122931.000000
1124012.000000
1124976.000000
1126134.000000
1127314.000000
1128455.000000
1129407.000000
1130459.000000
1131598.000000
1132698.000000
1133631.000000
1134656.000000
1135790.000000
1136853.000000
1137789.000000
1138839.000000
1139949.000000
1141041.000000
1142076.000000
1142969.000000
1143855.000000
1144993.000000
1146159.000000
1147286.000000
1148298.000000
1149221.000000
1150211.000000
1151380.000000
1152534.000000
1153573.000000
1154578.000000
1155716.000000
1156825.000000
1157913.000000
1158839.000000
1159828.000000
1160956.000000
1162065.000000
1163174.000000
1164134.000000
1165116.000000
1166261.000000
1167424.000000
1168550.000000
1169584.000000
1170489.000000
1171368.000000
1172358.000000
1173526.000000
1174688.000000
1175798.000000
1176708.000000
1177680.000000
1178821.000000
1179944.000000
1180873.000000
1181855.000000
1182978.000000
1184131.000000
1185084.000000
1185924.000000
1186713.000000
1187629.000000
1188903.000000
1190078.000000
1191251.000000
1192405.000000
1193336.000000
1194230.000000
1195118.000000
1196359.000000
1197600.000000
1198839.000000
1200030.000000
1201218.000000
1202402.000000
1203549.000000
