ECG (ms)
354.000000
1182.000000
2009.000000
2879.000000
3737.000000
4557.000000
5398.000000
6239.000000
7064.000000
7933.000000
8837.000000
9758.000000
10666.000000
11583.000000
12476.000000
13360.000000
14233.000000
15103.000000
15997.000000
16910.000000
17857.000000
18795.000000
19707.000000
20603.000000
21486.000000
22336.000000
23238.000000
24141.000000
25009.000000
25898.000000
26766.000000
27600.000000
28492.000000
29363.000000
30254.000000
31178.000000
32097.000000
32986.000000
33830.000000
34684.000000
35621.000000
36603.000000
37540.000000
38524.000000
39529.000000
40523.000000
41471.000000
42344.000000
43219.000000
44160.000000
45160.000000
46114.000000
47070.000000
48112.000000
48765.000000
49906.000000
50946.000000
51953.000000
52945.000000
53861.000000
54752.000000
55702.000000
56727.000000
57700.000000
58650.000000
59639.000000
60642.000000
61599.000000
62254.000000
63397.000000
64361.000000
65283.000000
66192.000000
67098.000000
68116.000000
69151.000000
70144.000000
71074.000000
72067.000000
73031.000000
73911.000000
74771.000000
75670.000000
76611.000000
77488.000000
78451.000000
79449.000000
80394.000000
81327.000000
82300.000000
83294.000000
84219.000000
85107.000000
86018.000000
86940.000000
87834.000000
88733.000000
89693.000000
90700.000000
91626.000000
92555.000000
93486.000000
94425.000000
95336.000000
96208.000000
97128.000000
98098.000000
99042.000000
99952.000000
100912.000000
101949.000000
102948.000000
103842.000000
104762.000000
105695.000000
106586.000000
107509.000000
108533.000000
109499.000000
110422.000000
111410.000000
112440.000000
113462.000000
114403.000000
115324.000000
116245.000000
117188.000000
118099.000000
118961.000000
119849.000000
120791.000000
121407.000000
122545.000000
123575.000000
124574.000000
125475.000000
126330.000000
127225.000000
128135.000000
129039.000000
129982.000000
130937.000000
131859.000000
132750.000000
133689.000000
134626.000000
135517.000000
136412.000000
137324.000000
138221.000000
139091.000000
139985.000000
140897.000000
141781.000000
142710.000000
143661.000000
144597.000000
145486.000000
146346.000000
147205.000000
148090.000000
149008.000000
149918.000000
150812.000000
151801.000000
152815.000000
153753.000000
154627.000000
155525.000000
156417.000000
157283.000000
158143.000000
159034.000000
159970.000000
160872.000000
161804.000000
162775.000000
163755.000000
164679.000000
165546.000000
166419.000000
167305.000000
168232.000000
169134.000000
170040.000000
171023.000000
172059.000000
173042.000000
173943.000000
174853.000000
175791.000000
176733.000000
177619.000000
178528.000000
179504.000000
180474.000000
181394.000000
182330.000000
183255.000000
184232.000000
185202.000000
186150.000000
187085.000000
188020.000000
188937.000000
189831.000000
190741.000000
191716.000000
192718.000000
193698.000000
194640.000000
195618.000000
196663.000000
197667.000000
198608.000000
199564.000000
200517.000000
201439.000000
202323.000000
203245.000000
204186.000000
204810.000000
205913.000000
206883.000000
207843.000000
208768.000000
209643.000000
210527.000000
211441.000000
212354.000000
213232.000000
214146.000000
215114.000000
216059.000000
216982.000000
217972.000000
218934.000000
219829.000000
220701.000000
221594.000000
222522.000000
223399.000000
224274.000000
225220.000000
226216.000000
227140.000000
228058.000000
228989.000000
229912.000000
230799.000000
231700.000000
232628.000000
233547.000000
234440.000000
235345.000000
236274.000000
237226.000000
238166.000000
239093.000000
240021.000000
240937.000000
241822.000000
242703.000000
243633.000000
244253.000000
245395.000000
246349.000000
247296.000000
248223.000000
249108.000000
249966.000000
250848.000000
251753.000000
252641.000000
253531.000000
254487.000000
255434.000000
256325.000000
257200.000000
258102.000000
259027.000000
259993.000000
260910.000000
261864.000000
262851.000000
263761.000000
264662.000000
265598.000000
266540.000000
267463.000000
268351.000000
269296.000000
270263.000000
271211.000000
272115.000000
273029.000000
273960.000000
274898.000000
275794.000000
276717.000000
277683.000000
278675.000000
279609.000000
280555.000000
281549.000000
282554.000000
283496.000000
284429.000000
285381.000000
286345.000000
287253.000000
288137.000000
289070.000000
290075.000000
291026.000000
291926.000000
292837.000000
293767.000000
294673.000000
295547.000000
296442.000000
297394.000000
298425.000000
299440.000000
300391.000000
301337.000000
302324.000000
303306.000000
304224.000000
305124.000000
306033.000000
306980.000000
307916.000000
308820.000000
309804.000000
310869.000000
311899.000000
312847.000000
313771.000000
314699.000000
315630.000000
316501.000000
317359.000000
318263.000000
319259.000000
320210.000000
321158.000000
322131.000000
323199.000000
324175.000000
325121.000000
326055.000000
326977.000000
327873.000000
328793.000000
329733.000000
330675.000000
331583.000000
332541.000000
333521.000000
334469.000000
335439.000000
336426.000000
337353.000000
338241.000000
339181.000000
340127.000000
341040.000000
341974.000000
342953.000000
343903.000000
344808.000000
345704.000000
346611.000000
347489.000000
348340.000000
349245.000000
350179.000000
351086.000000
351955.000000
352867.000000
353788.000000
354673.000000
355561.000000
356504.000000
357438.000000
358356.000000
359283.000000
360229.000000
361190.000000
362103.000000
362989.000000
363914.000000
364862.000000
365775.000000
366667.000000
367604.000000
368572.000000
369501.000000
370416.000000
371354.000000
372298.000000
373221.000000
374145.000000
375054.000000
375964.000000
376896.000000
377856.000000
378818.000000
379753.000000
380721.000000
381676.000000
382596.000000
383492.000000
384411.000000
385388.000000
386353.000000
387288.000000
388232.000000
389222.000000
390229.000000
391229.000000
392214.000000
393214.000000
394218.000000
395178.000000
396087.000000
397003.000000
397930.000000
398846.000000
399756.000000
400765.000000
401781.000000
402730.000000
403716.000000
404699.000000
405614.000000
406526.000000
407508.000000
408501.000000
409439.000000
410398.000000
411455.000000
412437.000000
413374.000000
414324.000000
415282.000000
416179.000000
417067.000000
417992.000000
418936.000000
419841.000000
420770.000000
421756.000000
422701.000000
423596.000000
424518.000000
425440.000000
426339.000000
427214.000000
428139.000000
429210.000000
430248.000000
431201.000000
432164.000000
433125.000000
434059.000000
434939.000000
435827.000000
436747.000000
437682.000000
438578.000000
439466.000000
440394.000000
441339.000000
442257.000000
443159.000000
444072.000000
444986.000000
445861.000000
446726.000000
447629.000000
448551.000000
449426.000000
450285.000000
451181.000000
452109.000000
453010.000000
453878.000000
454768.000000
455682.000000
456595.000000
457482.000000
458414.000000
459369.000000
460313.000000
461215.000000
462161.000000
463127.000000
464064.000000
464961.000000
465851.000000
466760.000000
467665.000000
468553.000000
469460.000000
470411.000000
471341.000000
472226.000000
473120.000000
474032.000000
474929.000000
475809.000000
476712.000000
477694.000000
478693.000000
479604.000000
480526.000000
481474.000000
482446.000000
483355.000000
484259.000000
485177.000000
486125.000000
487085.000000
488005.000000
488903.000000
489831.000000
490796.000000
491745.000000
492651.000000
493554.000000
494514.000000
495481.000000
496392.000000
497265.000000
498144.000000
499057.000000
499990.000000
500867.000000
501721.000000
502612.000000
503549.000000
504516.000000
505418.000000
506313.000000
507217.000000
508130.000000
509021.000000
509888.000000
510785.000000
511726.000000
512634.000000
513506.000000
514406.000000
515327.000000
516225.000000
517086.000000
517981.000000
518947.000000
519933.000000
520848.000000
521736.000000
522647.000000
523559.000000
524456.000000
525352.000000
526295.000000
527284.000000
528209.000000
529132.000000
530064.000000
531008.000000
531913.000000
532825.000000
533742.000000
534669.000000
535588.000000
536489.000000
537463.000000
538464.000000
539387.000000
540278.000000
541189.000000
542112.000000
543019.000000
543920.000000
544850.000000
545819.000000
546792.000000
547706.000000
548621.000000
549559.000000
550505.000000
551418.000000
552321.000000
553279.000000
554243.000000
555154.000000
556051.000000
557031.000000
558057.000000
559050.000000
559966.000000
560889.000000
561850.000000
562840.000000
563787.000000
564707.000000
565648.000000
566587.000000
567496.000000
568427.000000
569370.000000
570324.000000
571233.000000
572143.000000
573080.000000
574021.000000
574911.000000
575811.000000
576753.000000
577709.000000
578634.000000
579540.000000
580477.000000
581440.000000
582403.000000
583314.000000
584223.000000
585158.000000
586062.000000
586947.000000
587844.000000
588802.000000
589783.000000
590719.000000
591606.000000
592524.000000
593493.000000
594425.000000
595359.000000
596442.000000
597553.000000
598568.000000
599565.000000
600588.000000
601595.000000
602559.000000
603515.000000
604498.000000
605482.000000
606434.000000
607454.000000
608483.000000
609457.000000
610429.000000
611422.000000
612407.000000
613355.000000
614257.000000
615193.000000
616153.000000
617118.000000
618048.000000
619031.000000
620038.000000
620981.000000
621888.000000
622826.000000
623808.000000
624834.000000
625839.000000
626851.000000
627916.000000
628943.000000
629876.000000
630734.000000
631567.000000
632396.000000
633302.000000
634304.000000
635335.000000
636328.000000
637290.000000
638261.000000
639236.000000
640178.000000
641106.000000
642049.000000
642995.000000
643928.000000
644912.000000
645920.000000
646880.000000
647775.000000
648682.000000
649610.000000
650566.000000
651458.000000
652427.000000
653443.000000
654395.000000
655290.000000
656202.000000
657144.000000
658105.000000
659040.000000
659958.000000
660973.000000
661992.000000
662948.000000
663886.000000
664888.000000
665911.000000
666878.000000
667855.000000
668883.000000
669864.000000
670772.000000
671706.000000
672680.000000
673618.000000
674590.000000
675614.000000
676628.000000
677607.000000
678606.000000
679582.000000
680508.000000
681426.000000
682364.000000
683345.000000
684284.000000
685260.000000
686273.000000
687225.000000
688182.000000
689149.000000
690109.000000
691024.000000
692021.000000
693115.000000
694193.000000
695218.000000
696213.000000
697228.000000
698233.000000
699185.000000
700110.000000
701082.000000
702116.000000
703104.000000
704098.000000
705110.000000
706097.000000
707044.000000
708019.000000
709010.000000
709962.000000
710883.000000
711866.000000
712918.000000
713893.000000
714860.000000
715835.000000
716788.000000
717710.000000
718702.000000
719755.000000
720743.000000
721744.000000
722797.000000
723884.000000
724903.000000
725879.000000
726883.000000
727923.000000
728881.000000
729814.000000
730784.000000
731795.000000
732772.000000
733700.000000
734675.000000
735679.000000
736625.000000
737571.000000
738546.000000
739586.000000
740596.000000
741566.000000
742590.000000
743634.000000
744645.000000
745599.000000
746538.000000
747507.000000
748507.000000
749473.000000
750443.000000
751476.000000
752511.000000
753459.000000
754376.000000
755305.000000
756243.000000
757159.000000
758079.000000
759045.000000
760031.000000
760961.000000
761881.000000
762826.000000
763789.000000
764708.000000
765614.000000
766559.000000
767529.000000
768500.000000
769418.000000
770400.000000
771403.000000
772346.000000
773274.000000
774245.000000
775252.000000
776209.000000
777161.000000
778171.000000
779186.000000
780148.000000
781095.000000
782061.000000
783037.000000
783973.000000
784871.000000
785786.000000
786767.000000
787735.000000
788668.000000
789646.000000
790672.000000
791672.000000
792617.000000
793570.000000
794524.000000
795421.000000
796312.000000
797251.000000
798282.000000
799267.000000
800224.000000
801244.000000
802282.000000
803306.000000
804262.000000
805174.000000
806080.000000
806979.000000
807874.000000
808717.000000
809537.000000
810395.000000
811400.000000
812445.000000
813413.000000
814412.000000
815413.000000
816358.000000
817289.000000
818241.000000
819190.000000
820099.000000
821038.000000
822011.000000
822990.000000
823930.000000
824857.000000
825803.000000
826788.000000
827720.000000
828656.000000
829637.000000
830652.000000
831587.000000
832535.000000
833496.000000
834429.000000
835328.000000
836259.000000
837251.000000
838284.000000
839264.000000
840295.000000
841332.000000
842318.000000
843262.000000
844209.000000
845213.000000
846167.000000
847126.000000
848120.000000
849088.000000
850013.000000
850962.000000
851949.000000
852949.000000
853898.000000
854873.000000
855919.000000
856905.000000
857834.000000
858771.000000
859726.000000
860681.000000
861622.000000
862629.000000
863666.000000
864636.000000
865580.000000
866548.000000
867529.000000
868470.000000
869461.000000
870480.000000
871473.000000
872415.000000
873389.000000
874394.000000
875359.000000
876346.000000
877344.000000
878304.000000
879223.000000
880196.000000
881213.000000
882211.000000
883197.000000
884230.000000
885261.000000
886235.000000
887190.000000
888130.000000
889056.000000
889972.000000
890912.000000
891894.000000
892888.000000
893830.000000
894795.000000
895775.000000
896709.000000
897610.000000
898566.000000
899623.000000
900744.000000
