ECG (ms)
709.000000
1542.000000
2328.000000
3140.000000
3956.000000
4734.000000
5527.000000
6339.000000
7135.000000
7912.000000
8697.000000
9492.000000
10283.000000
11045.000000
11769.000000
12537.000000
13333.000000
14106.000000
14933.000000
15769.000000
16543.000000
17363.000000
18204.000000
18995.000000
19818.000000
20658.000000
21443.000000
22240.000000
23059.000000
23817.000000
24585.000000
25371.000000
26196.000000
26982.000000
27805.000000
28562.000000
29271.000000
30017.000000
30762.000000
31555.000000
32381.000000
33182.000000
33943.000000
34744.000000
35552.000000
36286.000000
37042.000000
37833.000000
38583.000000
39338.000000
40170.000000
40983.000000
41747.000000
42553.000000
43337.000000
44068.000000
44857.000000
45643.000000
46437.000000
47152.000000
47926.000000
48712.000000
49502.000000
50289.000000
51054.000000
51829.000000
52629.000000
53385.000000
54195.000000
55012.000000
55817.000000
56602.000000
57352.000000
58158.000000
58949.000000
59743.000000
60509.000000
61249.000000
61942.000000
62657.000000
63391.000000
64160.000000
64960.000000
65762.000000
66505.000000
67296.000000
68089.000000
68831.000000
69565.000000
70317.000000
71035.000000
71757.000000
72529.000000
73319.000000
74060.000000
74863.000000
75702.000000
76468.000000
77249.000000
77922.000000
78564.000000
79199.000000
79831.000000
80447.000000
81113.000000
81824.000000
82547.000000
83333.000000
84168.000000
84972.000000
85776.000000
86576.000000
87333.000000
88022.000000
88743.000000
89518.000000
90268.000000
91054.000000
91799.000000
92512.000000
93223.000000
93952.000000
94636.000000
95411.000000
96188.000000
96934.000000
97627.000000
98259.000000
98934.000000
99608.000000
100239.000000
100835.000000
101513.000000
102340.000000
103086.000000
103864.000000
104635.000000
105406.000000
106037.000000
106657.000000
107284.000000
107954.000000
108635.000000
109390.000000
110192.000000
110968.000000
111767.000000
112596.000000
113388.000000
114173.000000
114961.000000
115722.000000
116441.000000
117154.000000
117901.000000
118655.000000
119394.000000
120151.000000
120933.000000
121653.000000
122397.000000
123117.000000
123879.000000
124565.000000
125310.000000
126121.000000
126878.000000
127636.000000
128451.000000
129267.000000
130018.000000
130792.000000
131586.000000
132337.000000
133076.000000
133874.000000
134642.000000
135469.000000
136236.000000
137044.000000
137847.000000
138580.000000
139330.000000
140138.000000
140918.000000
141703.000000
142497.000000
143271.000000
144082.000000
144898.000000
145678.000000
146499.000000
147325.000000
148118.000000
148842.000000
149639.000000
150458.000000
151219.000000
152041.000000
152881.000000
153672.000000
154443.000000
155245.000000
156024.000000
156736.000000
157505.000000
158336.000000
159152.000000
159894.000000
160646.000000
161440.000000
162229.000000
162975.000000
163767.000000
164634.000000
165456.000000
166275.000000
167048.000000
167786.000000
168582.000000
169345.000000
170072.000000
170861.000000
171687.000000
172465.000000
173237.000000
174032.000000
174856.000000
175615.000000
176405.000000
177236.000000
178060.000000
178830.000000
179671.000000
180526.000000
180938.000000
181328.000000
182148.000000
182937.000000
183709.000000
184465.000000
185194.000000
185876.000000
186573.000000
187269.000000
188010.000000
188757.000000
189534.000000
190292.000000
191015.000000
191723.000000
192507.000000
193291.000000
194055.000000
194762.000000
195436.000000
196101.000000
196757.000000
197423.000000
198046.000000
198651.000000
199437.000000
200302.000000
201095.000000
201902.000000
202739.000000
203566.000000
204362.000000
205169.000000
205983.000000
206787.000000
207568.000000
208366.000000
209187.000000
209971.000000
210784.000000
211622.000000
212457.000000
213280.000000
214063.000000
214867.000000
215680.000000
216467.000000
217282.000000
218118.000000
218956.000000
219763.000000
220558.000000
221373.000000
222189.000000
222982.000000
223797.000000
224628.000000
225476.000000
226278.000000
227104.000000
227923.000000
228738.000000
229541.000000
230299.000000
231089.000000
231902.000000
232690.000000
233522.000000
234392.000000
235225.000000
236076.000000
236932.000000
237784.000000
238604.000000
239385.000000
240199.000000
241026.000000
241829.000000
242620.000000
243453.000000
244319.000000
245151.000000
245976.000000
246826.000000
247665.000000
248453.000000
249289.000000
250134.000000
250972.000000
251785.000000
252582.000000
253393.000000
254173.000000
254944.000000
255746.000000
256576.000000
257417.000000
258246.000000
259070.000000
259858.000000
260649.000000
261451.000000
262243.000000
263014.000000
263841.000000
264714.000000
265567.000000
266429.000000
267319.000000
268182.000000
269007.000000
269861.000000
270701.000000
271511.000000
272268.000000
273080.000000
273923.000000
274793.000000
275589.000000
276345.000000
277017.000000
277723.000000
278629.000000
279450.000000
280305.000000
281170.000000
281978.000000
282777.000000
283581.000000
284368.000000
285143.000000
285987.000000
286878.000000
287725.000000
288611.000000
289493.000000
290318.000000
291168.000000
291999.000000
292787.000000
293556.000000
294295.000000
295022.000000
295746.000000
296492.000000
297337.000000
298189.000000
299020.000000
299862.000000
300662.000000
301479.000000
302315.000000
303112.000000
303929.000000
304768.000000
305603.000000
306402.000000
307211.000000
308018.000000
308810.000000
309619.000000
310416.000000
311201.000000
312020.000000
312858.000000
313667.000000
314506.000000
315365.000000
316190.000000
317037.000000
317893.000000
318728.000000
319532.000000
320380.000000
321254.000000
322087.000000
322939.000000
323803.000000
324633.000000
325438.000000
326287.000000
327069.000000
327900.000000
328744.000000
329592.000000
330425.000000
331217.000000
332038.000000
332872.000000
333665.000000
334479.000000
335302.000000
336099.000000
336898.000000
337719.000000
338510.000000
339311.000000
340130.000000
340963.000000
341755.000000
342561.000000
343384.000000
344174.000000
344978.000000
345810.000000
346640.000000
347436.000000
348234.000000
349030.000000
349833.000000
350639.000000
351418.000000
352168.000000
352958.000000
353802.000000
354625.000000
355402.000000
356210.000000
357039.000000
357836.000000
358598.000000
359384.000000
360167.000000
360909.000000
361636.000000
362372.000000
363118.000000
363883.000000
364698.000000
365510.000000
366275.000000
367014.000000
367744.000000
368482.000000
369236.000000
370014.000000
370797.000000
371520.000000
372223.000000
372933.000000
373656.000000
374461.000000
375252.000000
376103.000000
376828.000000
377556.000000
378311.000000
379085.000000
379882.000000
380663.000000
381426.000000
382167.000000
382870.000000
383567.000000
384326.000000
385133.000000
385934.000000
386683.000000
387349.000000
387970.000000
388586.000000
389274.000000
390050.000000
390796.000000
391604.000000
392419.000000
393168.000000
393882.000000
394650.000000
395463.000000
396309.000000
397133.000000
397913.000000
398632.000000
399323.000000
399982.000000
400622.000000
401289.000000
402104.000000
402986.000000
403770.000000
404605.000000
405435.000000
406288.000000
407124.000000
407938.000000
408741.000000
409489.000000
410260.000000
411012.000000
411764.000000
412514.000000
413251.000000
414007.000000
414703.000000
415383.000000
416199.000000
416986.000000
417784.000000
418588.000000
419425.000000
420237.000000
421053.000000
421852.000000
422626.000000
423340.000000
424066.000000
424817.000000
425580.000000
426381.000000
427181.000000
428018.000000
428831.000000
429645.000000
430483.000000
431308.000000
432125.000000
432972.000000
433794.000000
434586.000000
435351.000000
436125.000000
436913.000000
437693.000000
438450.000000
439190.000000
439885.000000
440639.000000
441449.000000
442310.000000
443110.000000
443923.000000
444743.000000
445523.000000
446321.000000
447140.000000
447970.000000
448774.000000
449626.000000
450506.000000
451352.000000
452206.000000
453092.000000
453951.000000
454750.000000
455575.000000
456409.000000
457247.000000
458020.000000
458827.000000
459655.000000
460452.000000
461293.000000
462124.000000
462957.000000
463727.000000
464505.000000
465333.000000
466126.000000
466929.000000
467808.000000
468667.000000
469469.000000
470319.000000
471165.000000
471955.000000
472767.000000
473593.000000
474393.000000
475146.000000
475858.000000
476597.000000
477387.000000
478158.000000
478948.000000
479805.000000
480668.000000
481458.000000
482261.000000
483087.000000
483907.000000
484676.000000
485479.000000
486301.000000
487082.000000
487847.000000
488665.000000
489503.000000
490300.000000
491128.000000
491973.000000
492784.000000
493551.000000
494274.000000
494987.000000
495717.000000
496480.000000
497240.000000
498055.000000
498911.000000
499713.000000
500521.000000
501341.000000
502140.000000
502899.000000
503685.000000
504485.000000
505245.000000
505996.000000
506776.000000
507579.000000
508335.000000
509119.000000
509932.000000
510717.000000
511476.000000
512284.000000
513101.000000
513869.000000
514633.000000
515431.000000
516208.000000
516988.000000
517760.000000
518530.000000
519255.000000
519959.000000
520666.000000
521351.000000
521990.000000
522654.000000
523422.000000
524213.000000
525098.000000
525984.000000
526800.000000
527587.000000
528376.000000
529121.000000
529858.000000
530639.000000
531411.000000
532213.000000
533022.000000
533806.000000
534577.000000
535371.000000
536206.000000
537034.000000
537855.000000
538618.000000
539376.000000
540154.000000
540956.000000
541752.000000
542463.000000
543211.000000
543976.000000
544748.000000
545490.000000
546238.000000
546979.000000
547709.000000
548439.000000
549137.000000
549818.000000
550529.000000
551401.000000
552250.000000
553099.000000
553889.000000
554643.000000
555395.000000
556172.000000
556945.000000
557692.000000
558411.000000
559165.000000
559945.000000
560791.000000
561587.000000
562361.000000
563155.000000
563973.000000
564757.000000
565535.000000
566351.000000
567175.000000
567981.000000
568723.000000
569419.000000
570089.000000
570711.000000
571366.000000
572321.000000
573193.000000
574000.000000
574808.000000
575633.000000
576438.000000
577244.000000
578031.000000
578788.000000
579515.000000
580302.000000
581163.000000
582064.000000
582906.000000
583779.000000
584646.000000
585460.000000
586289.000000
587145.000000
587979.000000
588780.000000
589601.000000
590429.000000
591225.000000
592048.000000
592875.000000
593726.000000
594525.000000
595344.000000
596173.000000
596967.000000
597777.000000
598611.000000
599381.000000
600200.000000
601047.000000
601896.000000
602734.000000
603524.000000
604294.000000
605092.000000
605901.000000
606677.000000
607483.000000
608329.000000
609178.000000
609994.000000
610820.000000
611652.000000
612465.000000
613247.000000
614041.000000
614856.000000
615664.000000
616467.000000
617307.000000
618149.000000
618950.000000
619771.000000
620592.000000
621383.000000
622201.000000
623019.000000
623801.000000
624595.000000
625397.000000
626176.000000
626969.000000
627774.000000
628555.000000
629349.000000
630178.000000
631004.000000
631794.000000
632614.000000
633450.000000
634290.000000
635082.000000
635887.000000
636675.000000
637365.000000
638003.000000
638643.000000
639406.000000
640204.000000
641035.000000
641888.000000
642657.000000
643457.000000
644219.000000
644945.000000
645626.000000
646350.000000
647129.000000
647959.000000
648769.000000
649678.000000
650609.000000
651473.000000
652361.000000
653274.000000
654159.000000
655002.000000
655801.000000
656625.000000
657509.000000
658377.000000
659183.000000
660008.000000
660862.000000
661750.000000
662630.000000
663406.000000
664217.000000
665052.000000
665905.000000
666769.000000
667625.000000
668428.000000
669227.000000
670039.000000
670879.000000
671721.000000
672510.000000
673298.000000
674074.000000
674921.000000
675796.000000
676667.000000
677543.000000
678408.000000
679248.000000
680067.000000
680855.000000
681632.000000
682421.000000
683262.000000
684126.000000
684960.000000
685783.000000
686634.000000
687515.000000
688366.000000
689222.000000
690099.000000
690966.000000
691782.000000
692644.000000
693533.000000
694386.000000
695238.000000
696113.000000
696984.000000
697802.000000
698644.000000
699467.000000
700307.000000
701152.000000
701982.000000
702841.000000
703699.000000
704551.000000
705349.000000
706163.000000
706986.000000
707816.000000
708639.000000
709469.000000
710298.000000
711100.000000
711843.000000
712553.000000
713190.000000
713835.000000
714756.000000
715613.000000
716427.000000
717278.000000
718138.000000
718976.000000
719757.000000
720566.000000
721379.000000
722172.000000
723003.000000
723866.000000
724714.000000
725566.000000
726439.000000
727269.000000
728102.000000
728956.000000
729810.000000
730611.000000
731433.000000
732280.000000
733125.000000
733950.000000
734797.000000
735659.000000
736477.000000
737295.000000
738151.000000
739024.000000
739854.000000
740708.000000
741542.000000
742389.000000
743236.000000
744021.000000
744823.000000
745653.000000
746500.000000
747301.000000
748101.000000
748931.000000
749749.000000
750545.000000
751372.000000
752217.000000
753027.000000
753884.000000
754761.000000
755587.000000
756413.000000
757249.000000
758095.000000
758929.000000
759719.000000
760529.000000
761331.000000
762089.000000
762736.000000
763455.000000
764239.000000
765097.000000
765992.000000
766817.000000
767591.000000
768423.000000
769263.000000
770037.000000
770878.000000
771772.000000
772608.000000
773449.000000
774320.000000
775160.000000
775985.000000
776835.000000
777693.000000
778499.000000
779331.000000
780170.000000
780987.000000
781837.000000
782659.000000
783482.000000
784310.000000
785134.000000
785942.000000
786757.000000
787597.000000
788362.000000
789180.000000
790095.000000
790985.000000
791767.000000
792574.000000
793421.000000
794293.000000
795158.000000
795984.000000
796783.000000
797601.000000
798370.000000
799180.000000
800034.000000
800901.000000
801706.000000
802552.000000
803384.000000
804186.000000
805009.000000
805835.000000
806654.000000
807449.000000
808281.000000
809142.000000
809977.000000
810827.000000
811680.000000
812510.000000
813319.000000
814150.000000
814999.000000
815791.000000
816598.000000
817446.000000
818253.000000
819088.000000
819945.000000
820798.000000
821639.000000
822456.000000
823288.000000
824147.000000
824986.000000
825843.000000
826719.000000
827570.000000
828420.000000
829294.000000
830159.000000
831001.000000
831857.000000
832712.000000
833568.000000
834406.000000
835239.000000
836048.000000
836855.000000
837715.000000
838573.000000
839446.000000
840347.000000
841212.000000
842074.000000
842952.000000
843773.000000
844615.000000
845483.000000
846374.000000
847244.000000
848134.000000
849008.000000
849852.000000
850718.000000
851588.000000
852431.000000
853261.000000
854109.000000
854988.000000
855844.000000
856613.000000
857434.000000
858261.000000
859044.000000
859378.000000
859762.000000
860409.000000
861170.000000
862034.000000
862831.000000
863681.000000
864535.000000
865322.000000
866101.000000
866932.000000
867737.000000
868545.000000
869428.000000
870304.000000
871144.000000
872027.000000
872923.000000
873760.000000
874638.000000
875515.000000
876337.000000
877162.000000
878013.000000
878875.000000
879701.000000
880570.000000
881460.000000
882235.000000
883017.000000
883748.000000
884482.000000
885207.000000
885896.000000
886602.000000
887345.000000
888101.000000
888855.000000
889629.000000
890418.000000
891181.000000
891935.000000
892718.000000
893515.000000
894280.000000
895071.000000
895852.000000
896699.000000
897531.000000
898337.000000
899190.000000
899981.000000
900793.000000
901639.000000
902483.000000
903283.000000
904158.000000
905054.000000
905895.000000
906756.000000
907651.000000
908580.000000
909451.000000
910334.000000
911230.000000
912039.000000
912734.000000
913404.000000
914309.000000
915178.000000
916083.000000
916992.000000
917889.000000
918735.000000
919577.000000
920438.000000
921274.000000
922082.000000
922948.000000
923855.000000
924761.000000
925604.000000
926496.000000
927414.000000
928309.000000
929143.000000
929997.000000
930894.000000
931794.000000
932648.000000
933506.000000
934401.000000
935298.000000
936149.000000
936978.000000
937852.000000
938750.000000
939599.000000
940465.000000
941361.000000
942229.000000
943058.000000
943894.000000
944771.000000
945653.000000
946519.000000
947328.000000
948135.000000
949004.000000
949897.000000
950779.000000
951616.000000
952461.000000
953334.000000
954200.000000
955016.000000
955859.000000
956729.000000
957592.000000
958428.000000
959290.000000
960169.000000
961017.000000
961866.000000
962740.000000
963610.000000
964465.000000
965372.000000
966284.000000
967146.000000
968005.000000
968907.000000
969794.000000
970637.000000
971472.000000
972349.000000
973216.000000
974044.000000
974885.000000
975768.000000
976640.000000
977462.000000
978290.000000
979169.000000
980066.000000
980909.000000
981772.000000
982652.000000
983497.000000
984339.000000
985228.000000
986104.000000
986935.000000
987800.000000
988691.000000
989541.000000
990364.000000
991215.000000
992071.000000
992909.000000
993814.000000
994741.000000
995609.000000
996488.000000
997395.000000
998264.000000
999092.000000
999953.000000
1000821.000000
1001650.000000
1002469.000000
1003321.000000
1004196.000000
1005031.000000
1005888.000000
1006768.000000
1007629.000000
1008453.000000
1009324.000000
1010216.000000
1011079.000000
1011899.000000
1012742.000000
1013591.000000
1014441.000000
1015260.000000
1016129.000000
1017026.000000
1017891.000000
1018765.000000
1019656.000000
1020524.000000
1021346.000000
1022210.000000
1023080.000000
1023903.000000
1024747.000000
1025605.000000
1026436.000000
1027256.000000
1028118.000000
1028993.000000
1029828.000000
1030686.000000
1031569.000000
1032419.000000
1033251.000000
1034122.000000
1034982.000000
1035809.000000
1036674.000000
1037559.000000
1038390.000000
1039255.000000
1040142.000000
1040985.000000
1041795.000000
1042652.000000
1043513.000000
1044347.000000
1045143.000000
1045980.000000
1046853.000000
1047682.000000
1048519.000000
1049381.000000
1050235.000000
1051053.000000
1051791.000000
1052459.000000
1053303.000000
1054121.000000
1054935.000000
1055807.000000
1056710.000000
1057540.000000
1058379.000000
1059240.000000
1060081.000000
1060853.000000
1061663.000000
1062556.000000
1063434.000000
1064243.000000
1065098.000000
1066010.000000
1066890.000000
1067707.000000
1068562.000000
1069440.000000
1070298.000000
1071123.000000
1071981.000000
1072844.000000
1073663.000000
1074483.000000
1075334.000000
1076206.000000
1077030.000000
1077864.000000
1078719.000000
1079567.000000
1080370.000000
1081218.000000
1082080.000000
1082902.000000
1083702.000000
1084546.000000
1085403.000000
1086222.000000
1087036.000000
1087877.000000
1088712.000000
1089500.000000
1090312.000000
1091143.000000
1091950.000000
1092785.000000
1093654.000000
1094510.000000
1095319.000000
1096157.000000
1096995.000000
1097788.000000
1098599.000000
1099430.000000
1100258.000000
1101061.000000
1101912.000000
1102763.000000
1103579.000000
1104425.000000
1105279.000000
1106082.000000
1106898.000000
1107746.000000
1108607.000000
1109419.000000
1110208.000000
1111037.000000
1111897.000000
1112747.000000
1113548.000000
1114396.000000
1115242.000000
1116077.000000
1116862.000000
1117646.000000
1118475.000000
1119336.000000
1120182.000000
1120975.000000
1121783.000000
1122627.000000
1123482.000000
1124290.000000
1125063.000000
1125878.000000
1126744.000000
1127607.000000
1128427.000000
1129194.000000
1130001.000000
1130848.000000
1131707.000000
1132520.000000
1133292.000000
1134111.000000
1134965.000000
1135813.000000
1136619.000000
1137435.000000
1138281.000000
1139128.000000
1139945.000000
1140767.000000
1141602.000000
1142439.000000
1143238.000000
1144064.000000
1144889.000000
1145686.000000
1146507.000000
1147344.000000
1148182.000000
1148986.000000
1149806.000000
1150647.000000
1151472.000000
1152272.000000
1153117.000000
1153969.000000
1154783.000000
1155586.000000
1156425.000000
1157273.000000
1158068.000000
1158882.000000
1159723.000000
1160551.000000
1161354.000000
1162198.000000
1163075.000000
1163912.000000
1164727.000000
1165588.000000
1166469.000000
1167320.000000
1168129.000000
1168968.000000
1169820.000000
1170671.000000
1171470.000000
1172303.000000
1173140.000000
1173981.000000
1174773.000000
1175530.000000
1176344.000000
1177187.000000
1178044.000000
1178895.000000
1179694.000000
1180508.000000
1181339.000000
1182164.000000
1182951.000000
1183765.000000
1184584.000000
1185368.000000
1186194.000000
1187045.000000
1187845.000000
1188658.000000
1189470.000000
1190309.000000
1191089.000000
1191878.000000
1192717.000000
1193567.000000
1194351.000000
1195092.000000
1195913.000000
1196791.000000
1197668.000000
1198469.000000
1199268.000000
1200122.000000
1201000.000000
1201800.000000
1202594.000000
1203413.000000
1204239.000000
1205064.000000
1205947.000000
