ECG (ms)
692.000000
1498.000000
2276.000000
3069.000000
3830.000000
4522.000000
5214.000000
6263.000000
7156.000000
7985.000000
8832.000000
9780.000000
10787.000000
11717.000000
12579.000000
13394.000000
14418.000000
15439.000000
16403.000000
17258.000000
18036.000000
18854.000000
19760.000000
20743.000000
21695.000000
22633.000000
23484.000000
24296.000000
25204.000000
26236.000000
27291.000000
28267.000000
29125.000000
29972.000000
30889.000000
31778.000000
32718.000000
33673.000000
34552.000000
35343.000000
36212.000000
37178.000000
38137.000000
39076.000000
39965.000000
40765.000000
41542.000000
42423.000000
43281.000000
44126.000000
45008.000000
45908.000000
46760.000000
47583.000000
48378.000000
49145.000000
49969.000000
50931.000000
51947.000000
52908.000000
53808.000000
54622.000000
55388.000000
56185.000000
57112.000000
58184.000000
59145.000000
60008.000000
60845.000000
61762.000000
62725.000000
63628.000000
64480.000000
65304.000000
66135.000000
67053.000000
67995.000000
68939.000000
69841.000000
70633.000000
71431.000000
72281.000000
73158.000000
74040.000000
74867.000000
75669.000000
76443.000000
77322.000000
78242.000000
79145.000000
80015.000000
80844.000000
81662.000000
82438.000000
83288.000000
84122.000000
84919.000000
85733.000000
86664.000000
87620.000000
88518.000000
89311.000000
90091.000000
90937.000000
91798.000000
92668.000000
93555.000000
94411.000000
95188.000000
95990.000000
96858.000000
97716.000000
98515.000000
99316.000000
100128.000000
100911.000000
101707.000000
102547.000000
103351.000000
104140.000000
104941.000000
105738.000000
106581.000000
107446.000000
108261.000000
109051.000000
109848.000000
110635.000000
111425.000000
112227.000000
113064.000000
113990.000000
114896.000000
115797.000000
116654.000000
117535.000000
118395.000000
119197.000000
119965.000000
120739.000000
121469.000000
122161.000000
122882.000000
124033.000000
125073.000000
125991.000000
126791.000000
127610.000000
128549.000000
129485.000000
130447.000000
131338.000000
132141.000000
133298.000000
134341.000000
135325.000000
136232.000000
137086.000000
138031.000000
139006.000000
139983.000000
140935.000000
141831.000000
142676.000000
143562.000000
144467.000000
145327.000000
146155.000000
146966.000000
147797.000000
148726.000000
149672.000000
150570.000000
151481.000000
152325.000000
153172.000000
154060.000000
154952.000000
155814.000000
156790.000000
157775.000000
158686.000000
159550.000000
160365.000000
161196.000000
162056.000000
162932.000000
163791.000000
164610.000000
165416.000000
166277.000000
167149.000000
168102.000000
169139.000000
170153.000000
171080.000000
171991.000000
172998.000000
173980.000000
174890.000000
175752.000000
176629.000000
177577.000000
178461.000000
179365.000000
180387.000000
181335.000000
182302.000000
183237.000000
184119.000000
184940.000000
185812.000000
186694.000000
187613.000000
188502.000000
189411.000000
190272.000000
191147.000000
192067.000000
192985.000000
193800.000000
194610.000000
195477.000000
196279.000000
197075.000000
197851.000000
198623.000000
199399.000000
200237.000000
201153.000000
202043.000000
202877.000000
203700.000000
204542.000000
205315.000000
206077.000000
206818.000000
207508.000000
208209.000000
209040.000000
209869.000000
210775.000000
211866.000000
212866.000000
213789.000000
214647.000000
215544.000000
216486.000000
217495.000000
218443.000000
219425.000000
220419.000000
221361.000000
222267.000000
223172.000000
224079.000000
225042.000000
225987.000000
226901.000000
227803.000000
228691.000000
229572.000000
230436.000000
231348.000000
232171.000000
233066.000000
233979.000000
234850.000000
235606.000000
236337.000000
237301.000000
238372.000000
239368.000000
240361.000000
241270.000000
242195.000000
243376.000000
244537.000000
245636.000000
246718.000000
247782.000000
248847.000000
249820.000000
250765.000000
251655.000000
252630.000000
253783.000000
254805.000000
255821.000000
256755.000000
257771.000000
258805.000000
259810.000000
260701.000000
261583.000000
262586.000000
263625.000000
264616.000000
265512.000000
266498.000000
267481.000000
268451.000000
269320.000000
270155.000000
271132.000000
272188.000000
273120.000000
273953.000000
274810.000000
275773.000000
276759.000000
277744.000000
278748.000000
279618.000000
280404.000000
281173.000000
281998.000000
282798.000000
283599.000000
284393.000000
285198.000000
285955.000000
286698.000000
287448.000000
288219.000000
289018.000000
289828.000000
290634.000000
291400.000000
292135.000000
292878.000000
293629.000000
294413.000000
295190.000000
295940.000000
296716.000000
297515.000000
298305.000000
299073.000000
299841.000000
300590.000000
301328.000000
302051.000000
302790.000000
303546.000000
304325.000000
305088.000000
305849.000000
306639.000000
307391.000000
308136.000000
308891.000000
309635.000000
310386.000000
311123.000000
311874.000000
312572.000000
313289.000000
314184.000000
314966.000000
315780.000000
316583.000000
317410.000000
318207.000000
318943.000000
319673.000000
320524.000000
321699.000000
322738.000000
323836.000000
324911.000000
325888.000000
326873.000000
327882.000000
328936.000000
329953.000000
330963.000000
331913.000000
332945.000000
334088.000000
335191.000000
336223.000000
337253.000000
338345.000000
339385.000000
340326.000000
341212.000000
342129.000000
343074.000000
344066.000000
345065.000000
345980.000000
346931.000000
347915.000000
348886.000000
349775.000000
350706.000000
351566.000000
352372.000000
353177.000000
354282.000000
355300.000000
356350.000000
357381.000000
358376.000000
359368.000000
360319.000000
361341.000000
362344.000000
363329.000000
364263.000000
365142.000000
366060.000000
366959.000000
367828.000000
368663.000000
369560.000000
370439.000000
371303.000000
372087.000000
372839.000000
373613.000000
374415.000000
375194.000000
376049.000000
376898.000000
377751.000000
378849.000000
379833.000000
380714.000000
381584.000000
382487.000000
383341.000000
384118.000000
384966.000000
385817.000000
386695.000000
387569.000000
388443.000000
389279.000000
390126.000000
391138.000000
392139.000000
393117.000000
394101.000000
395117.000000
396075.000000
397010.000000
397877.000000
398724.000000
399590.000000
400447.000000
401449.000000
402332.000000
403079.000000
403808.000000
404746.000000
405888.000000
406954.000000
408035.000000
409068.000000
410043.000000
411038.000000
411982.000000
412866.000000
413815.000000
414870.000000
415960.000000
417020.000000
418001.000000
419063.000000
420123.000000
421104.000000
422114.000000
423194.000000
424174.000000
425100.000000
426173.000000
427258.000000
428394.000000
429436.000000
430447.000000
431465.000000
432490.000000
433475.000000
434387.000000
435346.000000
436294.000000
437238.000000
438212.000000
439236.000000
440248.000000
441207.000000
442248.000000
443282.000000
444292.000000
445285.000000
446199.000000
447114.000000
447976.000000
448828.000000
449898.000000
450849.000000
451801.000000
452762.000000
453691.000000
454543.000000
455376.000000
456247.000000
457136.000000
458031.000000
458924.000000
459747.000000
460580.000000
461385.000000
462182.000000
463030.000000
463817.000000
464564.000000
465259.000000
465982.000000
466813.000000
467613.000000
468411.000000
469253.000000
470128.000000
470971.000000
471771.000000
472668.000000
473808.000000
474845.000000
475787.000000
476704.000000
477693.000000
478747.000000
479776.000000
480712.000000
481608.000000
482600.000000
483672.000000
484663.000000
485595.000000
486616.000000
487653.000000
488651.000000
489555.000000
490432.000000
491378.000000
492403.000000
493380.000000
494255.000000
495274.000000
496294.000000
497203.000000
498091.000000
499000.000000
499935.000000
500821.000000
501708.000000
502587.000000
503607.000000
504665.000000
505701.000000
506647.000000
507570.000000
508481.000000
509418.000000
510382.000000
511254.000000
512120.000000
513071.000000
513967.000000
514798.000000
515716.000000
516596.000000
517441.000000
518284.000000
519157.000000
520010.000000
520814.000000
521683.000000
522519.000000
523378.000000
524203.000000
524990.000000
525771.000000
526552.000000
527312.000000
528031.000000
528800.000000
529964.000000
531044.000000
532072.000000
533105.000000
534102.000000
535047.000000
535955.000000
536900.000000
537835.000000
538737.000000
539707.000000
540619.000000
541480.000000
542367.000000
543284.000000
544170.000000
545057.000000
546029.000000
547010.000000
547939.000000
549160.000000
550300.000000
551430.000000
552536.000000
553610.000000
554681.000000
555777.000000
556782.000000
557810.000000
558955.000000
560073.000000
561111.000000
562161.000000
563230.000000
564177.000000
565159.000000
566068.000000
566997.000000
568018.000000
569070.000000
569977.000000
570938.000000
572005.000000
573093.000000
574119.000000
575110.000000
576024.000000
577032.000000
578072.000000
578962.000000
579767.000000
580670.000000
581667.000000
582847.000000
583939.000000
585029.000000
586144.000000
587176.000000
588213.000000
589236.000000
590291.000000
591348.000000
592495.000000
593574.000000
594516.000000
595493.000000
596574.000000
597630.000000
598670.000000
599646.000000
600562.000000
601535.000000
602561.000000
603432.000000
604223.000000
605079.000000
606202.000000
607266.000000
608370.000000
609454.000000
610481.000000
611461.000000
612344.000000
613176.000000
614104.000000
615086.000000
616077.000000
617086.000000
618097.000000
619117.000000
619982.000000
620869.000000
621847.000000
622873.000000
623886.000000
624930.000000
626008.000000
627050.000000
628019.000000
628972.000000
629974.000000
630948.000000
631841.000000
632755.000000
633753.000000
634691.000000
635569.000000
636435.000000
637321.000000
638197.000000
639090.000000
640023.000000
640962.000000
641839.000000
642654.000000
643509.000000
644306.000000
645022.000000
645826.000000
646673.000000
647569.000000
648465.000000
649368.000000
650273.000000
651120.000000
652057.000000
653011.000000
653947.000000
654837.000000
655742.000000
656883.000000
657970.000000
659119.000000
660252.000000
661338.000000
662399.000000
663477.000000
664449.000000
665548.000000
666645.000000
667758.000000
668695.000000
669644.000000
670641.000000
671654.000000
672589.000000
673549.000000
674550.000000
675552.000000
676528.000000
677449.000000
678270.000000
679050.000000
679925.000000
680825.000000
681842.000000
682996.000000
684023.000000
685103.000000
686195.000000
687273.000000
688276.000000
689264.000000
690338.000000
691481.000000
692540.000000
693597.000000
694535.000000
695432.000000
696358.000000
697326.000000
698215.000000
699125.000000
700020.000000
700896.000000
701854.000000
702821.000000
703747.000000
704646.000000
705606.000000
706543.000000
707484.000000
708507.000000
709527.000000
710542.000000
711552.000000
712551.000000
713524.000000
714403.000000
715283.000000
716235.000000
717237.000000
718250.000000
719185.000000
720110.000000
721066.000000
722005.000000
722976.000000
723954.000000
724954.000000
725910.000000
726863.000000
727839.000000
728875.000000
729876.000000
730844.000000
731747.000000
732744.000000
733738.000000
734741.000000
735664.000000
736635.000000
737554.000000
738398.000000
739171.000000
739949.000000
741070.000000
741991.000000
743020.000000
744135.000000
745217.000000
746263.000000
747278.000000
748306.000000
749311.000000
750201.000000
751125.000000
752181.000000
753264.000000
754322.000000
755281.000000
756262.000000
757345.000000
758415.000000
759411.000000
760362.000000
761326.000000
762290.000000
763188.000000
764127.000000
765117.000000
766051.000000
767031.000000
767986.000000
768912.000000
769802.000000
770676.000000
771523.000000
772391.000000
773295.000000
774132.000000
775001.000000
775899.000000
776788.000000
777609.000000
778461.000000
779229.000000
780056.000000
780889.000000
781684.000000
782455.000000
783254.000000
784107.000000
784952.000000
785833.000000
786675.000000
787541.000000
788368.000000
789178.000000
790020.000000
790822.000000
791626.000000
792437.000000
793200.000000
793914.000000
794822.000000
795786.000000
796717.000000
797691.000000
798758.000000
799797.000000
800728.000000
801609.000000
802544.000000
803664.000000
804655.000000
805602.000000
806644.000000
807620.000000
808755.000000
809836.000000
810782.000000
811707.000000
812735.000000
813685.000000
814666.000000
815630.000000
816558.000000
817468.000000
818286.000000
819179.000000
820061.000000
821001.000000
821942.000000
822883.000000
823810.000000
824607.000000
825461.000000
826401.000000
827340.000000
828231.000000
829119.000000
830036.000000
830919.000000
831798.000000
832615.000000
833518.000000
834314.000000
835064.000000
836222.000000
837268.000000
838236.000000
839191.000000
840179.000000
841197.000000
842121.000000
843002.000000
843918.000000
844831.000000
845716.000000
846653.000000
847611.000000
848602.000000
849556.000000
850560.000000
851543.000000
852479.000000
853435.000000
854329.000000
855299.000000
856330.000000
857410.000000
858444.000000
859451.000000
860395.000000
861443.000000
862522.000000
863567.000000
864510.000000
865558.000000
866611.000000
867646.000000
868581.000000
869617.000000
870747.000000
871821.000000
872840.000000
873911.000000
874967.000000
875918.000000
876895.000000
877986.000000
879078.000000
880133.000000
881163.000000
882221.000000
883299.000000
884355.000000
885313.000000
886285.000000
887231.000000
888078.000000
888985.000000
889923.000000
890849.000000
891776.000000
892592.000000
893361.000000
894147.000000
894920.000000
896012.000000
896981.000000
897858.000000
898687.000000
899465.000000
900310.000000
901340.000000
902372.000000
903298.000000
904132.000000
905030.000000
905990.000000
906886.000000
907795.000000
908700.000000
909558.000000
910433.000000
911284.000000
912114.000000
912984.000000
913815.000000
914683.000000
915556.000000
916372.000000
917184.000000
917947.000000
918745.000000
919552.000000
920407.000000
921217.000000
922021.000000
922876.000000
923729.000000
924570.000000
925403.000000
926249.000000
927119.000000
927994.000000
928870.000000
929715.000000
930722.000000
931735.000000
932623.000000
933467.000000
934321.000000
935217.000000
936062.000000
936953.000000
937795.000000
938666.000000
939843.000000
940888.000000
941837.000000
942738.000000
943617.000000
944466.000000
945265.000000
946049.000000
946844.000000
947562.000000
948427.000000
949450.000000
950348.000000
951268.000000
952225.000000
953139.000000
954122.000000
955231.000000
956293.000000
957248.000000
958148.000000
959213.000000
960186.000000
961078.000000
961971.000000
963016.000000
964115.000000
965146.000000
966212.000000
967276.000000
968348.000000
969334.000000
970327.000000
971260.000000
972209.000000
973120.000000
974084.000000
975043.000000
975912.000000
976788.000000
977628.000000
978583.000000
979526.000000
980637.000000
981608.000000
982521.000000
983398.000000
984180.000000
984984.000000
985853.000000
986784.000000
987709.000000
988676.000000
989883.000000
991017.000000
992099.000000
993048.000000
993982.000000
995056.000000
996098.000000
997053.000000
998091.000000
999223.000000
1000251.000000
1001210.000000
1002177.000000
1003134.000000
1004036.000000
1004959.000000
1005899.000000
1006897.000000
1007790.000000
1008705.000000
1009643.000000
1010498.000000
1011410.000000
1012362.000000
1013348.000000
1014305.000000
1015182.000000
1015985.000000
1016805.000000
1017662.000000
1018515.000000
1019355.000000
1020137.000000
1020985.000000
1021861.000000
1022749.000000
1023599.000000
1024397.000000
1025154.000000
1025883.000000
1026692.000000
1027511.000000
1028336.000000
1029157.000000
1029965.000000
1030767.000000
1031510.000000
1032248.000000
1033006.000000
1033710.000000
1034424.000000
1035323.000000
1036231.000000
1037125.000000
1037955.000000
1038736.000000
1039566.000000
1040502.000000
1041436.000000
1042321.000000
1043143.000000
1044040.000000
1044936.000000
1045830.000000
1046710.000000
1047585.000000
1048623.000000
1049625.000000
1050563.000000
1051532.000000
1052455.000000
1053326.000000
1054213.000000
1055145.000000
1056102.000000
1057048.000000
1057990.000000
1058844.000000
1059631.000000
1060602.000000
1061766.000000
1062818.000000
1063851.000000
1064766.000000
1065729.000000
1066768.000000
1067772.000000
1068660.000000
1069558.000000
1070508.000000
1071517.000000
1072554.000000
1073584.000000
1074560.000000
1075414.000000
1076318.000000
1077260.000000
1078134.000000
1079015.000000
1079950.000000
1080929.000000
1081875.000000
1082783.000000
1083655.000000
1084561.000000
1085475.000000
1086373.000000
1087306.000000
1088179.000000
1089073.000000
1089929.000000
1090704.000000
1091486.000000
1092342.000000
1093303.000000
1094320.000000
1095323.000000
1096316.000000
1097177.000000
1097979.000000
1098844.000000
1099802.000000
1100830.000000
1101787.000000
1102794.000000
1103799.000000
1104830.000000
1105783.000000
1106836.000000
1107765.000000
1108743.000000
1109711.000000
1110673.000000
1111682.000000
1112647.000000
1113494.000000
1114400.000000
1115346.000000
1116300.000000
1117298.000000
1118344.000000
1119344.000000
1120354.000000
1121307.000000
1122257.000000
1123284.000000
1124232.000000
1125247.000000
1126282.000000
1127256.000000
1128255.000000
1129301.000000
1130379.000000
1131450.000000
1132434.000000
1133511.000000
1134579.000000
1135542.000000
1136453.000000
1137349.000000
1138258.000000
1139217.000000
1140208.000000
1141195.000000
1142096.000000
1143026.000000
1143846.000000
1144647.000000
1145535.000000
1146394.000000
1147324.000000
1148326.000000
1149336.000000
1150286.000000
1151114.000000
1151942.000000
1152898.000000
1153892.000000
1154914.000000
1155940.000000
1156921.000000
1157938.000000
1158984.000000
1160015.000000
1160998.000000
1161885.000000
1162905.000000
1163958.000000
1164969.000000
1165897.000000
1166836.000000
1167799.000000
1168831.000000
1169814.000000
1170782.000000
1171736.000000
1172674.000000
1173627.000000
1174622.000000
1175635.000000
1176576.000000
1177592.000000
1178544.000000
1179496.000000
1180350.000000
1181198.000000
1182047.000000
1182972.000000
1183891.000000
1184815.000000
1185681.000000
1186452.000000
1187221.000000
1188065.000000
1189014.000000
1190059.000000
1190971.000000
1191894.000000
1192846.000000
1193738.000000
1194613.000000
1195526.000000
1196414.000000
1197231.000000
1198144.000000
1199028.000000
1199858.000000
1200714.000000
1201563.000000
1202502.000000
1203322.000000
1204134.000000
1204950.000000
1205788.000000
1206607.000000
1207404.000000
1208214.000000
1209055.000000
1209860.000000
1210700.000000
1211606.000000
1212507.000000
1213337.000000
1214153.000000
1214955.000000
1215777.000000
1216583.000000
1217404.000000
1218198.000000
1219012.000000
1219838.000000
1220719.000000
1221543.000000
1222321.000000
1223031.000000
1223749.000000
1224765.000000
1225733.000000
1226677.000000
1227553.000000
1228472.000000
1229496.000000
1230433.000000
1231425.000000
1232502.000000
1233529.000000
1234434.000000
1235366.000000
1236366.000000
1237427.000000
1238535.000000
1239626.000000
1240576.000000
1241575.000000
1242605.000000
1243555.000000
1244478.000000
1245489.000000
1246455.000000
1247368.000000
1248180.000000
1249012.000000
1249900.000000
1250825.000000
1251743.000000
1252655.000000
1253532.000000
1254376.000000
1255308.000000
1256289.000000
1257227.000000
1258179.000000
1259020.000000
1259891.000000
1260854.000000
1261786.000000
1262668.000000
1263621.000000
1264565.000000
1265540.000000
1266498.000000
1267465.000000
1268424.000000
1269373.000000
1270230.000000
1271086.000000
1271980.000000
1272918.000000
1273889.000000
1274752.000000
1275680.000000
1276650.000000
1277601.000000
1278482.000000
1279329.000000
1280136.000000
1280971.000000
1281854.000000
1282734.000000
1283617.000000
1284415.000000
1285222.000000
1286131.000000
1287020.000000
1288126.000000
1289204.000000
1290246.000000
1291244.000000
1292147.000000
1293068.000000
1294018.000000
1294944.000000
1295965.000000
1297039.000000
1298002.000000
1298919.000000
1299896.000000
1300910.000000
1301928.000000
1302939.000000
1303958.000000
1304843.000000
1305683.000000
1306548.000000
1307543.000000
1308568.000000
1309558.000000
1310500.000000
1311470.000000
1312397.000000
1313205.000000
1314068.000000
1315093.000000
1316003.000000
1317020.000000
1318051.000000
1319008.000000
1319988.000000
1320973.000000
1321820.000000
1322244.000000
1322656.000000
1323473.000000
1324298.000000
1325059.000000
1325848.000000
1326948.000000
1327948.000000
1328843.000000
1329794.000000
1330823.000000
1331827.000000
1332909.000000
1333956.000000
1334992.000000
1336046.000000
1337040.000000
1338033.000000
1339055.000000
1340135.000000
1341124.000000
1342007.000000
1342887.000000
1343874.000000
1344904.000000
1345907.000000
1346807.000000
1347793.000000
1348849.000000
1349839.000000
1350769.000000
1351678.000000
1352600.000000
1353441.000000
1354215.000000
1355052.000000
1356108.000000
1357029.000000
1357882.000000
1358634.000000
1359398.000000
1360359.000000
1361280.000000
1362168.000000
1363021.000000
1364144.000000
1365089.000000
1365989.000000
1366900.000000
1367801.000000
1368684.000000
1369576.000000
1370367.000000
1371328.000000
1372243.000000
1373216.000000
1374099.000000
1375105.000000
1375972.000000
1376807.000000
1377679.000000
1378718.000000
1379887.000000
1380910.000000
1382039.000000
1383190.000000
1384313.000000
1385386.000000
1386483.000000
1387610.000000
1388639.000000
1389717.000000
1390783.000000
1391832.000000
1392935.000000
1393964.000000
1395029.000000
1396086.000000
1397162.000000
1398214.000000
1399249.000000
1400303.000000
1401355.000000
1402416.000000
1403498.000000
1404511.000000
1405586.000000
1406689.000000
1407794.000000
1408905.000000
1410052.000000
1411163.000000
1412239.000000
1413293.000000
1414352.000000
1415431.000000
1416515.000000
1417527.000000
1418568.000000
1419688.000000
1420732.000000
1421799.000000
1422857.000000
1423932.000000
1425030.000000
1426150.000000
1427272.000000
1428377.000000
1429403.000000
1430481.000000
1431579.000000
1432643.000000
1433738.000000
1434834.000000
1435895.000000
1436983.000000
1438098.000000
1439194.000000
1440262.000000
1441319.000000
1442414.000000
1443532.000000
1444598.000000
1445682.000000
1446759.000000
1447835.000000
1448867.000000
1449861.000000
1450873.000000
1451935.000000
1452994.000000
1454090.000000
1455168.000000
1456172.000000
1457228.000000
1458253.000000
1459234.000000
1460196.000000
1461161.000000
1462085.000000
1462875.000000
1463699.000000
1464540.000000
1465316.000000
1466044.000000
1466847.000000
1467727.000000
1468522.000000
1469247.000000
1469964.000000
1470765.000000
1471896.000000
1472882.000000
1473775.000000
1474632.000000
1475455.000000
1476203.000000
1477020.000000
1477947.000000
1478840.000000
1479727.000000
1480686.000000
1481704.000000
1482710.000000
1483650.000000
1484573.000000
1485523.000000
1486361.000000
1487195.000000
1488117.000000
1489035.000000
1489947.000000
1490990.000000
1491960.000000
1492884.000000
1493793.000000
1494677.000000
1495578.000000
1496506.000000
1497380.000000
1498340.000000
1499259.000000
1500239.000000
1501213.000000
1502133.000000
1503110.000000
1504074.000000
1505011.000000
1505958.000000
1507022.000000
1508052.000000
1508999.000000
1509966.000000
1510962.000000
1511783.000000
1512715.000000
1513876.000000
1514946.000000
1516079.000000
1517144.000000
1518188.000000
1519253.000000
1520343.000000
1521367.000000
1522347.000000
1523346.000000
1524349.000000
1525388.000000
1526423.000000
1527337.000000
1528290.000000
1529237.000000
1530105.000000
1531035.000000
1532042.000000
1533039.000000
1534003.000000
1534974.000000
1535896.000000
1536725.000000
1537605.000000
1538598.000000
1539594.000000
1540555.000000
1541461.000000
1542288.000000
1543154.000000
1544006.000000
1544956.000000
1545989.000000
1547009.000000
1548013.000000
1549011.000000
1550007.000000
1551040.000000
1551976.000000
1552844.000000
1553774.000000
1554745.000000
1555695.000000
1556698.000000
1557607.000000
1558612.000000
1559662.000000
1560728.000000
1561609.000000
1562487.000000
1563451.000000
1564474.000000
1565486.000000
1566497.000000
1567450.000000
1568479.000000
1569531.000000
1570605.000000
1571609.000000
1572694.000000
1573779.000000
1574731.000000
1575546.000000
1576370.000000
1577361.000000
1578442.000000
1579583.000000
1580705.000000
1581774.000000
1582906.000000
1584066.000000
1585170.000000
1586164.000000
1587264.000000
1588426.000000
1589599.000000
1590665.000000
1591797.000000
1592958.000000
1594046.000000
1595152.000000
1596293.000000
1597438.000000
1598598.000000
1599668.000000
1600681.000000
1601797.000000
1602918.000000
1604018.000000
1605056.000000
1606132.000000
1607208.000000
1608257.000000
1609241.000000
1610114.000000
1611077.000000
1612163.000000
1613204.000000
1614193.000000
1615164.000000
1616117.000000
1617013.000000
1618106.000000
1619239.000000
1620340.000000
1621396.000000
1622430.000000
1623513.000000
1624631.000000
1625718.000000
1626725.000000
1627793.000000
1628929.000000
1630043.000000
1631144.000000
1632199.000000
1633225.000000
1634335.000000
1635446.000000
1636529.000000
1637553.000000
1638655.000000
1639835.000000
1640992.000000
1642156.000000
1643288.000000
1644348.000000
1645505.000000
1646685.000000
1647880.000000
1649018.000000
1650097.000000
1651221.000000
1652377.000000
1653556.000000
1654709.000000
1655822.000000
1656916.000000
1657976.000000
1658959.000000
1659987.000000
1661113.000000
1662269.000000
1663340.000000
1664421.000000
1665609.000000
1666769.000000
1667906.000000
1668960.000000
1670034.000000
1671077.000000
1672159.000000
1673179.000000
1674179.000000
1675241.000000
1676388.000000
1677466.000000
1678443.000000
1679424.000000
1680406.000000
1681237.000000
1682125.000000
1683159.000000
1684135.000000
1685272.000000
1686440.000000
1687587.000000
1688657.000000
1689759.000000
1690911.000000
1692052.000000
1693123.000000
1694195.000000
1695359.000000
1696496.000000
1697526.000000
1698540.000000
1699673.000000
1700832.000000
1701960.000000
1703010.000000
1704126.000000
1705286.000000
1706430.000000
1707546.000000
1708605.000000
1709647.000000
1710732.000000
1711877.000000
1712957.000000
1713971.000000
1715044.000000
1716160.000000
1717252.000000
1718311.000000
1719368.000000
1720502.000000
1721625.000000
1722750.000000
1723780.000000
1724785.000000
1725816.000000
1726921.000000
1727990.000000
1729101.000000
1730153.000000
1731202.000000
1732270.000000
1733410.000000
1734588.000000
1735657.000000
1736690.000000
1737741.000000
1738799.000000
1739890.000000
1740979.000000
1741996.000000
1742969.000000
1744125.000000
1745273.000000
1746400.000000
1747465.000000
1748486.000000
1749591.000000
1750764.000000
1751811.000000
1752665.000000
1753445.000000
1754352.000000
1755581.000000
1756737.000000
1757949.000000
1759059.000000
1760181.000000
1761219.000000
1762262.000000
1763359.000000
1764317.000000
1765322.000000
1766432.000000
1767534.000000
1768539.000000
1769557.000000
1770489.000000
1771637.000000
1772805.000000
1773825.000000
1774768.000000
1775786.000000
1776929.000000
1777919.000000
1778845.000000
1779778.000000
1780781.000000
1781990.000000
1783112.000000
1784142.000000
1785071.000000
1785965.000000
1786870.000000
1787933.000000
1788947.000000
1789948.000000
1790888.000000
1791952.000000
1792995.000000
1794026.000000
1794932.000000
1795882.000000
1796895.000000
1798082.000000
1799174.000000
1800154.000000
