ECG (ms)
819.000000
1624.000000
2792.000000
3938.000000
5017.000000
6033.000000
7123.000000
8195.000000
9209.000000
10293.000000
11406.000000
12488.000000
13629.000000
14777.000000
15881.000000
16998.000000
18125.000000
19254.000000
20316.000000
21410.000000
22521.000000
23620.000000
24681.000000
25711.000000
26710.000000
27764.000000
28874.000000
29946.000000
31000.000000
32028.000000
33114.000000
34202.000000
35302.000000
36371.000000
37444.000000
38555.000000
39647.000000
40672.000000
41701.000000
42760.000000
43819.000000
44825.000000
45837.000000
46975.000000
48108.000000
49185.000000
50226.000000
51338.000000
52437.000000
53510.000000
54534.000000
55550.000000
56638.000000
57749.000000
58853.000000
59878.000000
60907.000000
62005.000000
63084.000000
64119.000000
65140.000000
66208.000000
67322.000000
68448.000000
69545.000000
70580.000000
71597.000000
72671.000000
73759.000000
74834.000000
75852.000000
76945.000000
78048.000000
79107.000000
80113.000000
81147.000000
82240.000000
83326.000000
84364.000000
85348.000000
86373.000000
87421.000000
88484.000000
89496.000000
90470.000000
91473.000000
92485.000000
93497.000000
94481.000000
95482.000000
96531.000000
97678.000000
98808.000000
99904.000000
100924.000000
101932.000000
102982.000000
104035.000000
105146.000000
106163.000000
107165.000000
108236.000000
109325.000000
110391.000000
111384.000000
112394.000000
113442.000000
114496.000000
115482.000000
116412.000000
117399.000000
118418.000000
119403.000000
120365.000000
121367.000000
122424.000000
123459.000000
124429.000000
125441.000000
126347.000000
127357.000000
128429.000000
129403.000000
130358.000000
131399.000000
132503.000000
133590.000000
134637.000000
135684.000000
136774.000000
137842.000000
138870.000000
139937.000000
141020.000000
142085.000000
143128.000000
144242.000000
145347.000000
146439.000000
147476.000000
148516.000000
149607.000000
150695.000000
151772.000000
152776.000000
153751.000000
154772.000000
155793.000000
156787.000000
157728.000000
158692.000000
159788.000000
160936.000000
162029.000000
163085.000000
164154.000000
165260.000000
166345.000000
167417.000000
168414.000000
169460.000000
170556.000000
171649.000000
172664.000000
173662.000000
174755.000000
175846.000000
176871.000000
177879.000000
178954.000000
180015.000000
181036.000000
182099.000000
183213.000000
184312.000000
185370.000000
186474.000000
187565.000000
188667.000000
189711.000000
190697.000000
191730.000000
192785.000000
193799.000000
194766.000000
195792.000000
196820.000000
197809.000000
198781.000000
199837.000000
200919.000000
201961.000000
202965.000000
203953.000000
204996.000000
206036.000000
207061.000000
208063.000000
209118.000000
210190.000000
211221.000000
212212.000000
213191.000000
214264.000000
215420.000000
216541.000000
217598.000000
218602.000000
219632.000000
220737.000000
221853.000000
222941.000000
224001.000000
225011.000000
226085.000000
227183.000000
228224.000000
229246.000000
230311.000000
231377.000000
232391.000000
233400.000000
234426.000000
235460.000000
236455.000000
237461.000000
238492.000000
239496.000000
240461.000000
241454.000000
242480.000000
243469.000000
244420.000000
245419.000000
246452.000000
247425.000000
248364.000000
249351.000000
250371.000000
251348.000000
252291.000000
253312.000000
254359.000000
255375.000000
256330.000000
257285.000000
258298.000000
259331.000000
260319.000000
261345.000000
262435.000000
263499.000000
264525.000000
265500.000000
266486.000000
267498.000000
268572.000000
269608.000000
270594.000000
271555.000000
272585.000000
273642.000000
274693.000000
275752.000000
276795.000000
277852.000000
278939.000000
279992.000000
280991.000000
282027.000000
283089.000000
284132.000000
285110.000000
286105.000000
287112.000000
288102.000000
289028.000000
289997.000000
291009.000000
292007.000000
292924.000000
293804.000000
294611.000000
295383.000000
296151.000000
297371.000000
298414.000000
299478.000000
300548.000000
301621.000000
302635.000000
303630.000000
304681.000000
305802.000000
306893.000000
307913.000000
308958.000000
310058.000000
311106.000000
312073.000000
313091.000000
314131.000000
315143.000000
316097.000000
317071.000000
318204.000000
319357.000000
320432.000000
321455.000000
322500.000000
323619.000000
324733.000000
325780.000000
326792.000000
327829.000000
328884.000000
329949.000000
330994.000000
332075.000000
333242.000000
334386.000000
335484.000000
336591.000000
337728.000000
338867.000000
339936.000000
341009.000000
342117.000000
343208.000000
344247.000000
345253.000000
346319.000000
347388.000000
348445.000000
349460.000000
350447.000000
351506.000000
352574.000000
353652.000000
354709.000000
355692.000000
356632.000000
357640.000000
358743.000000
359826.000000
360849.000000
361951.000000
363100.000000
364190.000000
365253.000000
366347.000000
367381.000000
368378.000000
369452.000000
370505.000000
371497.000000
372490.000000
373547.000000
374617.000000
375677.000000
376682.000000
377706.000000
378828.000000
379938.000000
381027.000000
382066.000000
383076.000000
384132.000000
385220.000000
386259.000000
387328.000000
388388.000000
389399.000000
390392.000000
391441.000000
392531.000000
393606.000000
394616.000000
395563.000000
396445.000000
397469.000000
398443.000000
399350.000000
400266.000000
401331.000000
402458.000000
403437.000000
404421.000000
405421.000000
406367.000000
407278.000000
408304.000000
409382.000000
410362.000000
411379.000000
412405.000000
413360.000000
414360.000000
415401.000000
416400.000000
417350.000000
418334.000000
419341.000000
420339.000000
421343.000000
422407.000000
423442.000000
424453.000000
425506.000000
426553.000000
427535.000000
428472.000000
429315.000000
430307.000000
431248.000000
432173.000000
433235.000000
434332.000000
435377.000000
436358.000000
437400.000000
438417.000000
439362.000000
440214.000000
441052.000000
442253.000000
443343.000000
444338.000000
445322.000000
446425.000000
447507.000000
448531.000000
449576.000000
450646.000000
451649.000000
452560.000000
453315.000000
454550.000000
455590.000000
456599.000000
457709.000000
458835.000000
459919.000000
460941.000000
462029.000000
463140.000000
464255.000000
465302.000000
466359.000000
467453.000000
468538.000000
469549.000000
470593.000000
471686.000000
472794.000000
473891.000000
474934.000000
475994.000000
477087.000000
478171.000000
479230.000000
480254.000000
481370.000000
482504.000000
483578.000000
484613.000000
485713.000000
486831.000000
487942.000000
488986.000000
489990.000000
491049.000000
492129.000000
493192.000000
494210.000000
495193.000000
496209.000000
497258.000000
498183.000000
499094.000000
500248.000000
501404.000000
502497.000000
503537.000000
504599.000000
505711.000000
506794.000000
507796.000000
508855.000000
509929.000000
511033.000000
512095.000000
513166.000000
514299.000000
515416.000000
516456.000000
517499.000000
518619.000000
519726.000000
520782.000000
521840.000000
522927.000000
523991.000000
525009.000000
526091.000000
527186.000000
528182.000000
529224.000000
530311.000000
531381.000000
532407.000000
533448.000000
534611.000000
535732.000000
536782.000000
537749.000000
538751.000000
539817.000000
540782.000000
541812.000000
542920.000000
543926.000000
544910.000000
545985.000000
546960.000000
547848.000000
548916.000000
550017.000000
551016.000000
551913.000000
552978.000000
554058.000000
555022.000000
556009.000000
557118.000000
558183.000000
559156.000000
560113.000000
561291.000000
562401.000000
563491.000000
564521.000000
565542.000000
566553.000000
567492.000000
568378.000000
569340.000000
570453.000000
571506.000000
572461.000000
573529.000000
574592.000000
575546.000000
576521.000000
577596.000000
578595.000000
579472.000000
580348.000000
581450.000000
582560.000000
583499.000000
584508.000000
585593.000000
586593.000000
587545.000000
588650.000000
589693.000000
590629.000000
591533.000000
592619.000000
593677.000000
594616.000000
595538.000000
596417.000000
597585.000000
598713.000000
599773.000000
600766.000000
601801.000000
602907.000000
603978.000000
605010.000000
606060.000000
607119.000000
608134.000000
609164.000000
610182.000000
611154.000000
612128.000000
613140.000000
614127.000000
615045.000000
615921.000000
616908.000000
617954.000000
618913.000000
619808.000000
620651.000000
621500.000000
622547.000000
623520.000000
624449.000000
625379.000000
626404.000000
627430.000000
628346.000000
629232.000000
630176.000000
631180.000000
632116.000000
632999.000000
634112.000000
635169.000000
636001.000000
636748.000000
637495.000000
638429.000000
639272.000000
640452.000000
641640.000000
642752.000000
643744.000000
644609.000000
645473.000000
646579.000000
647604.000000
648556.000000
649650.000000
650801.000000
651879.000000
652884.000000
653959.000000
655053.000000
656098.000000
657179.000000
658293.000000
659352.000000
660403.000000
661434.000000
662581.000000
663663.000000
664689.000000
665660.000000
666709.000000
667797.000000
668860.000000
669856.000000
670784.000000
671682.000000
672879.000000
673979.000000
675053.000000
676078.000000
677133.000000
678236.000000
679347.000000
680406.000000
681452.000000
682524.000000
683589.000000
684601.000000
685640.000000
686736.000000
687784.000000
688810.000000
689908.000000
691030.000000
692095.000000
693118.000000
694171.000000
695230.000000
696281.000000
697308.000000
698343.000000
699387.000000
700490.000000
701572.000000
702658.000000
703715.000000
704743.000000
705827.000000
706926.000000
708017.000000
709071.000000
710075.000000
711094.000000
712065.000000
713071.000000
714037.000000
714949.000000
715983.000000
717184.000000
718266.000000
719305.000000
720303.000000
721252.000000
722294.000000
723239.000000
724376.000000
725491.000000
726577.000000
727625.000000
728587.000000
729434.000000
730217.000000
730953.000000
731884.000000
732846.000000
733949.000000
735148.000000
736295.000000
737339.000000
738344.000000
739469.000000
740596.000000
741627.000000
742720.000000
743821.000000
744920.000000
745975.000000
747054.000000
748174.000000
749281.000000
750369.000000
751413.000000
752536.000000
753679.000000
754792.000000
755863.000000
756814.000000
757897.000000
759019.000000
760098.000000
761131.000000
762305.000000
763458.000000
764553.000000
765548.000000
766586.000000
767730.000000
768806.000000
769767.000000
770896.000000
772000.000000
773021.000000
774076.000000
775150.000000
776102.000000
777053.000000
778180.000000
779218.000000
780191.000000
781330.000000
782438.000000
783497.000000
784578.000000
785702.000000
786832.000000
787941.000000
789016.000000
790132.000000
791262.000000
792387.000000
793466.000000
794563.000000
795661.000000
796748.000000
797758.000000
798751.000000
799872.000000
800962.000000
801991.000000
803061.000000
804134.000000
805147.000000
806190.000000
807346.000000
808448.000000
809460.000000
810558.000000
811645.000000
812664.000000
813664.000000
814762.000000
815823.000000
816850.000000
817933.000000
819037.000000
820086.000000
821075.000000
822133.000000
823128.000000
824017.000000
824878.000000
826062.000000
827154.000000
828167.000000
829251.000000
830369.000000
831428.000000
832430.000000
833469.000000
834518.000000
835504.000000
836620.000000
837746.000000
838799.000000
839831.000000
840918.000000
841999.000000
843024.000000
844056.000000
845122.000000
846196.000000
847193.000000
848202.000000
849314.000000
850432.000000
851441.000000
852444.000000
853592.000000
854688.000000
855674.000000
856831.000000
857961.000000
858993.000000
860007.000000
861098.000000
862159.000000
863121.000000
864188.000000
865288.000000
866328.000000
867242.000000
868241.000000
869358.000000
870465.000000
871530.000000
872554.000000
873399.000000
874154.000000
875027.000000
875985.000000
877056.000000
878199.000000
879317.000000
880274.000000
881249.000000
882338.000000
883341.000000
884292.000000
885418.000000
886524.000000
887501.000000
888548.000000
889615.000000
890608.000000
891622.000000
892703.000000
893745.000000
894743.000000
895799.000000
896875.000000
897953.000000
898989.000000
900054.000000
901163.000000
902256.000000
903303.000000
904337.000000
905431.000000
906503.000000
907510.000000
908531.000000
909642.000000
910737.000000
911849.000000
912951.000000
914153.000000
915304.000000
916379.000000
917492.000000
918636.000000
919734.000000
920777.000000
921928.000000
923055.000000
924118.000000
925233.000000
926332.000000
927382.000000
928457.000000
929520.000000
930530.000000
931600.000000
932692.000000
933763.000000
934774.000000
935765.000000
936812.000000
937868.000000
938903.000000
939870.000000
940724.000000
941478.000000
942689.000000
943776.000000
944862.000000
945907.000000
946912.000000
947958.000000
949064.000000
950197.000000
951268.000000
952287.000000
953335.000000
954326.000000
955208.000000
955959.000000
957123.000000
958131.000000
959214.000000
960282.000000
961328.000000
962346.000000
963438.000000
964510.000000
965547.000000
966553.000000
967597.000000
968626.000000
969614.000000
970658.000000
971708.000000
972720.000000
973737.000000
974726.000000
975672.000000
976694.000000
977773.000000
978812.000000
979867.000000
980928.000000
981960.000000
982935.000000
984013.000000
985113.000000
986193.000000
987244.000000
988313.000000
989405.000000
990467.000000
991516.000000
992635.000000
993712.000000
994722.000000
995786.000000
996830.000000
997827.000000
998861.000000
999996.000000
1001103.000000
1002184.000000
1003313.000000
1004395.000000
1005466.000000
1006588.000000
1007683.000000
1008750.000000
1009872.000000
1010977.000000
1012045.000000
1013125.000000
1014238.000000
1015353.000000
1016410.000000
1017435.000000
1018516.000000
1019563.000000
1020518.000000
1021363.000000
1022315.000000
1023376.000000
1024379.000000
1025455.000000
1026500.000000
1027463.000000
1028432.000000
1029429.000000
1030493.000000
1031503.000000
1032625.000000
1033753.000000
1034836.000000
1035883.000000
1037020.000000
1038139.000000
1039248.000000
1040364.000000
1041395.000000
1042511.000000
1043686.000000
1044771.000000
1045739.000000
1046758.000000
1047861.000000
1048950.000000
1049929.000000
1050940.000000
1051993.000000
1053065.000000
1054071.000000
1055045.000000
1056164.000000
1057311.000000
1058434.000000
1059536.000000
1060538.000000
1061506.000000
1062645.000000
1063785.000000
1064860.000000
1065852.000000
1066676.000000
1067536.000000
1068737.000000
1069756.000000
1070794.000000
1072029.000000
1073181.000000
1074272.000000
1075345.000000
1076451.000000
1077524.000000
1078532.000000
1079618.000000
1080664.000000
1081634.000000
1082658.000000
1083727.000000
1084738.000000
1085632.000000
1086640.000000
1087769.000000
1088828.000000
1089743.000000
1090785.000000
1091909.000000
1092988.000000
1094036.000000
1095186.000000
1096327.000000
1097410.000000
1098367.000000
1099405.000000
1100546.000000
1101665.000000
1102705.000000
1103830.000000
1104978.000000
1106048.000000
1107115.000000
1108198.000000
1109203.000000
1110225.000000
1111398.000000
1112514.000000
1113524.000000
1114637.000000
1115701.000000
1116649.000000
1117552.000000
1118570.000000
1119625.000000
1120624.000000
1121572.000000
1122698.000000
1123797.000000
1124849.000000
1125847.000000
1126977.000000
1128134.000000
1129245.000000
1130300.000000
1131316.000000
1132344.000000
1133504.000000
1134633.000000
1135746.000000
1136814.000000
1137804.000000
1138821.000000
1139952.000000
1141059.000000
1142089.000000
1143015.000000
1143854.000000
1144622.000000
1145407.000000
1146723.000000
1147908.000000
1149050.000000
1150159.000000
1151167.000000
1152176.000000
1153335.000000
1154467.000000
1155562.000000
1156630.000000
1157719.000000
1158834.000000
1159909.000000
1160933.000000
1161984.000000
1163039.000000
1164062.000000
1165023.000000
1166080.000000
1167183.000000
1168260.000000
1169213.000000
1170177.000000
1171191.000000
1172005.000000
1172775.000000
1173635.000000
1174442.000000
1175328.000000
1176534.000000
1177597.000000
1178533.000000
1179412.000000
1180482.000000
1181528.000000
1182469.000000
1183326.000000
1184260.000000
1185377.000000
1186390.000000
1187396.000000
1188472.000000
1189581.000000
1190608.000000
1191708.000000
1192723.000000
1193605.000000
1194410.000000
1195590.000000
1196707.000000
1197714.000000
1198692.000000
1199510.000000
1200263.000000
1201470.000000
1202603.000000
1203615.000000
1204699.000000
