ECG (ms)
587.000000
1380.000000
2153.000000
2925.000000
3697.000000
4502.000000
5350.000000
6201.000000
7015.000000
7809.000000
8616.000000
9453.000000
10305.000000
11149.000000
11977.000000
12820.000000
13664.000000
14525.000000
15357.000000
16193.000000
17044.000000
17924.000000
18794.000000
19648.000000
20497.000000
21369.000000
22239.000000
23090.000000
23934.000000
24787.000000
25660.000000
26523.000000
27369.000000
28241.000000
29119.000000
29986.000000
30823.000000
31662.000000
32510.000000
33387.000000
34272.000000
35129.000000
35964.000000
36815.000000
37691.000000
38583.000000
39464.000000
40315.000000
41140.000000
41980.000000
42867.000000
43785.000000
44669.000000
45529.000000
46396.000000
47278.000000
48185.000000
49089.000000
49957.000000
50801.000000
51646.000000
52511.000000
53378.000000
54252.000000
55096.000000
55935.000000
56834.000000
57729.000000
58602.000000
59438.000000
60254.000000
61095.000000
61958.000000
62842.000000
63709.000000
64549.000000
65421.000000
66311.000000
67221.000000
68106.000000
68962.000000
69781.000000
70602.000000
71437.000000
72295.000000
73167.000000
74017.000000
74902.000000
75808.000000
76727.000000
77617.000000
78469.000000
79349.000000
80237.000000
81134.000000
82000.000000
82840.000000
83658.000000
84480.000000
85335.000000
86214.000000
87095.000000
87944.000000
88772.000000
89602.000000
90434.000000
91287.000000
92180.000000
93070.000000
93943.000000
94791.000000
95608.000000
96402.000000
97183.000000
97996.000000
98877.000000
99776.000000
100673.000000
101545.000000
102385.000000
103214.000000
104033.000000
104878.000000
105740.000000
106614.000000
107469.000000
108299.000000
109093.000000
109881.000000
110697.000000
111543.000000
112443.000000
113349.000000
114227.000000
115081.000000
115915.000000
116754.000000
117632.000000
118530.000000
119445.000000
120319.000000
121172.000000
121991.000000
122797.000000
123629.000000
124491.000000
125400.000000
126321.000000
127200.000000
128052.000000
128885.000000
129737.000000
130627.000000
131533.000000
132432.000000
133287.000000
134125.000000
134949.000000
135779.000000
136635.000000
137519.000000
138417.000000
139281.000000
140111.000000
140917.000000
141736.000000
142585.000000
143474.000000
144357.000000
145211.000000
146048.000000
146879.000000
147730.000000
148609.000000
149505.000000
150375.000000
151207.000000
152020.000000
152846.000000
153692.000000
154568.000000
155449.000000
156319.000000
157155.000000
157984.000000
158829.000000
159687.000000
160551.000000
161424.000000
162273.000000
163100.000000
163922.000000
164755.000000
165603.000000
166469.000000
167314.000000
168149.000000
169055.000000
169952.000000
170857.000000
171722.000000
172555.000000
173373.000000
174216.000000
175079.000000
175952.000000
176808.000000
177651.000000
178479.000000
179305.000000
180160.000000
181038.000000
181918.000000
182788.000000
183634.000000
184463.000000
185287.000000
186117.000000
186991.000000
187874.000000
188763.000000
189632.000000
190477.000000
191305.000000
192136.000000
192978.000000
193852.000000
194745.000000
195611.000000
196459.000000
197267.000000
198085.000000
198930.000000
199803.000000
200699.000000
201572.000000
202432.000000
203257.000000
204106.000000
204963.000000
205839.000000
206705.000000
207556.000000
208389.000000
209222.000000
210065.000000
210931.000000
211810.000000
212654.000000
213477.000000
214300.000000
215127.000000
215973.000000
216813.000000
217632.000000
218442.000000
219273.000000
220120.000000
220989.000000
221863.000000
222717.000000
223543.000000
224361.000000
225181.000000
226029.000000
226889.000000
227736.000000
228554.000000
229355.000000
230156.000000
230992.000000
231868.000000
232760.000000
233618.000000
234457.000000
235321.000000
236215.000000
237114.000000
237981.000000
238823.000000
239660.000000
240525.000000
241394.000000
242269.000000
243133.000000
243951.000000
244759.000000
245589.000000
246443.000000
247323.000000
248190.000000
249034.000000
249862.000000
250721.000000
251609.000000
252484.000000
253339.000000
254174.000000
254989.000000
255828.000000
256704.000000
257607.000000
258474.000000
259332.000000
260163.000000
261035.000000
261926.000000
262819.000000
263699.000000
264545.000000
265371.000000
266192.000000
267042.000000
267927.000000
268801.000000
269670.000000
270509.000000
271332.000000
272168.000000
273023.000000
273920.000000
274805.000000
275686.000000
276536.000000
277373.000000
278237.000000
279146.000000
280059.000000
280954.000000
281820.000000
282662.000000
283524.000000
284388.000000
285272.000000
286154.000000
287024.000000
287870.000000
288702.000000
289563.000000
290434.000000
291331.000000
292207.000000
293057.000000
293881.000000
294696.000000
295526.000000
296393.000000
297301.000000
298191.000000
299043.000000
299868.000000
300700.000000
301542.000000
302406.000000
303262.000000
304084.000000
304883.000000
305717.000000
306582.000000
307476.000000
308356.000000
309190.000000
310009.000000
310839.000000
311701.000000
312592.000000
313474.000000
314344.000000
315190.000000
316053.000000
316939.000000
317823.000000
318691.000000
319531.000000
320376.000000
321219.000000
322074.000000
322930.000000
323761.000000
324584.000000
325413.000000
326279.000000
327164.000000
328051.000000
328896.000000
329718.000000
330560.000000
331412.000000
332266.000000
333121.000000
333941.000000
334783.000000
335649.000000
336516.000000
337371.000000
338202.000000
339038.000000
339893.000000
340756.000000
341619.000000
342465.000000
343296.000000
344114.000000
344948.000000
345808.000000
346687.000000
347553.000000
348393.000000
349212.000000
350031.000000
350867.000000
351739.000000
352637.000000
353487.000000
354315.000000
355161.000000
356038.000000
356925.000000
357781.000000
358596.000000
359390.000000
360207.000000
361023.000000
361864.000000
362716.000000
363587.000000
364462.000000
365375.000000
366306.000000
367228.000000
368118.000000
368972.000000
369824.000000
370691.000000
371563.000000
372428.000000
373274.000000
374100.000000
374930.000000
375786.000000
376666.000000
377532.000000
378378.000000
379202.000000
380059.000000
380929.000000
381808.000000
382648.000000
383502.000000
384353.000000
385226.000000
386083.000000
386918.000000
387759.000000
388620.000000
389495.000000
390373.000000
391203.000000
392022.000000
392842.000000
393685.000000
394570.000000
395470.000000
396355.000000
397212.000000
398087.000000
399011.000000
399918.000000
400811.000000
401691.000000
402535.000000
403369.000000
404211.000000
405073.000000
405948.000000
406816.000000
407660.000000
408480.000000
409296.000000
410136.000000
411007.000000
411902.000000
412780.000000
413630.000000
414457.000000
415300.000000
416159.000000
417040.000000
417909.000000
418750.000000
419614.000000
420484.000000
421354.000000
422224.000000
423054.000000
423898.000000
424751.000000
425607.000000
426465.000000
427295.000000
428128.000000
428971.000000
429850.000000
430718.000000
431551.000000
432419.000000
433294.000000
434178.000000
435039.000000
435878.000000
436716.000000
437569.000000
438446.000000
439303.000000
440138.000000
440994.000000
441853.000000
442725.000000
443566.000000
444391.000000
445232.000000
446088.000000
446959.000000
447805.000000
448645.000000
449516.000000
450420.000000
451321.000000
452178.000000
453056.000000
453911.000000
454762.000000
455584.000000
456441.000000
457286.000000
458170.000000
459031.000000
459914.000000
460810.000000
461705.000000
462561.000000
463443.000000
464321.000000
465195.000000
466038.000000
466887.000000
467765.000000
468649.000000
469510.000000
470360.000000
471233.000000
472113.000000
472984.000000
473824.000000
474644.000000
475492.000000
476352.000000
477229.000000
478077.000000
478910.000000
479768.000000
480638.000000
481500.000000
482341.000000
483162.000000
484006.000000
484860.000000
485728.000000
486576.000000
487412.000000
488247.000000
489103.000000
489978.000000
490852.000000
491698.000000
492513.000000
493363.000000
494163.000000
494933.000000
495709.000000
496495.000000
497270.000000
498066.000000
498890.000000
499752.000000
500603.000000
501425.000000
502219.000000
503038.000000
503902.000000
504796.000000
505691.000000
506551.000000
507379.000000
508194.000000
509024.000000
509900.000000
510829.000000
511736.000000
512621.000000
513473.000000
514313.000000
515154.000000
516024.000000
516932.000000
517848.000000
518763.000000
519637.000000
520532.000000
521425.000000
522313.000000
523189.000000
524042.000000
524908.000000
525786.000000
526689.000000
527586.000000
528466.000000
529323.000000
530164.000000
531035.000000
531912.000000
532794.000000
533680.000000
534521.000000
535346.000000
536193.000000
537060.000000
537935.000000
538783.000000
539634.000000
540505.000000
541371.000000
542219.000000
543048.000000
543888.000000
544749.000000
545596.000000
546413.000000
547257.000000
548115.000000
548989.000000
549839.000000
550671.000000
551527.000000
552404.000000
553285.000000
554145.000000
554986.000000
555844.000000
556713.000000
557592.000000
558456.000000
559338.000000
560239.000000
561157.000000
562041.000000
562899.000000
563776.000000
564657.000000
565538.000000
566400.000000
567263.000000
568146.000000
569032.000000
569888.000000
570740.000000
571602.000000
572468.000000
573327.000000
574153.000000
575016.000000
575892.000000
576776.000000
577652.000000
578550.000000
579462.000000
580362.000000
581215.000000
582077.000000
582946.000000
583835.000000
584717.000000
585578.000000
586461.000000
587360.000000
588278.000000
589160.000000
590016.000000
590885.000000
591754.000000
592631.000000
593477.000000
594334.000000
595217.000000
596124.000000
597003.000000
597862.000000
598758.000000
599658.000000
600550.000000
601423.000000
602304.000000
603196.000000
604068.000000
604918.000000
605805.000000
606709.000000
607598.000000
608447.000000
609340.000000
610236.000000
611137.000000
611992.000000
612877.000000
613780.000000
614693.000000
615544.000000
616430.000000
617330.000000
618243.000000
619123.000000
620007.000000
620901.000000
621794.000000
622662.000000
623542.000000
624434.000000
625323.000000
626199.000000
627094.000000
628000.000000
628887.000000
629741.000000
630608.000000
631476.000000
632358.000000
633218.000000
634089.000000
634980.000000
635884.000000
636776.000000
637681.000000
638598.000000
639518.000000
640389.000000
641229.000000
642107.000000
642989.000000
643895.000000
644752.000000
645631.000000
646522.000000
647412.000000
648262.000000
649136.000000
649994.000000
650832.000000
651704.000000
652579.000000
653454.000000
654289.000000
655158.000000
656036.000000
656884.000000
657742.000000
658624.000000
659521.000000
660377.000000
661206.000000
662074.000000
662980.000000
663896.000000
664753.000000
665601.000000
666475.000000
667361.000000
668235.000000
669077.000000
669956.000000
670846.000000
671735.000000
672585.000000
673460.000000
674351.000000
675237.000000
676095.000000
676981.000000
677863.000000
678745.000000
679604.000000
680483.000000
681372.000000
682266.000000
683114.000000
684007.000000
684897.000000
685790.000000
686656.000000
687546.000000
688462.000000
689366.000000
690239.000000
691131.000000
692036.000000
692957.000000
693833.000000
694711.000000
695610.000000
696524.000000
697445.000000
698321.000000
699208.000000
700110.000000
701018.000000
701918.000000
702788.000000
703700.000000
704619.000000
705533.000000
706404.000000
707267.000000
708144.000000
709045.000000
709936.000000
710797.000000
711701.000000
712613.000000
713512.000000
714394.000000
715260.000000
716140.000000
717025.000000
717910.000000
718757.000000
719653.000000
720579.000000
721475.000000
722353.000000
723264.000000
724194.000000
725127.000000
726012.000000
726910.000000
727811.000000
728719.000000
729604.000000
730454.000000
731328.000000
732232.000000
733114.000000
733952.000000
734828.000000
735718.000000
736593.000000
737437.000000
738315.000000
739225.000000
740113.000000
740972.000000
741872.000000
742775.000000
743665.000000
744515.000000
745391.000000
746274.000000
747153.000000
747992.000000
748853.000000
749708.000000
750604.000000
751480.000000
752379.000000
753320.000000
754266.000000
755166.000000
756034.000000
756887.000000
757759.000000
758659.000000
759579.000000
760482.000000
761359.000000
762203.000000
763045.000000
763923.000000
764802.000000
765695.000000
766572.000000
767431.000000
768283.000000
769158.000000
770057.000000
770971.000000
771856.000000
772707.000000
773544.000000
774387.000000
775251.000000
776160.000000
777083.000000
777989.000000
778861.000000
779718.000000
780611.000000
781522.000000
782435.000000
783309.000000
784155.000000
784992.000000
785858.000000
786744.000000
787639.000000
788529.000000
789404.000000
790251.000000
791130.000000
792035.000000
792936.000000
793824.000000
794680.000000
795514.000000
796365.000000
797255.000000
798156.000000
799060.000000
799948.000000
800811.000000
801678.000000
802567.000000
803472.000000
804363.000000
805212.000000
806079.000000
806967.000000
807862.000000
808753.000000
809604.000000
810477.000000
811350.000000
812230.000000
813072.000000
813933.000000
814821.000000
815722.000000
816630.000000
817479.000000
818330.000000
819182.000000
820063.000000
820970.000000
821869.000000
822735.000000
823590.000000
824432.000000
825301.000000
826201.000000
827094.000000
827958.000000
828804.000000
829684.000000
830571.000000
831450.000000
832319.000000
833154.000000
834007.000000
834872.000000
835751.000000
836621.000000
837466.000000
838339.000000
839226.000000
840111.000000
840967.000000
841844.000000
842729.000000
843620.000000
844478.000000
845359.000000
846244.000000
847113.000000
847939.000000
848769.000000
849625.000000
850500.000000
851357.000000
852219.000000
853125.000000
854044.000000
854937.000000
855793.000000
856682.000000
857583.000000
858477.000000
859330.000000
860162.000000
861025.000000
861912.000000
862819.000000
863705.000000
864619.000000
865539.000000
866460.000000
867336.000000
868227.000000
869140.000000
870037.000000
870891.000000
871728.000000
872596.000000
873474.000000
874338.000000
875178.000000
876047.000000
876935.000000
877817.000000
878712.000000
879569.000000
880413.000000
881293.000000
882177.000000
883039.000000
883899.000000
884776.000000
885666.000000
886531.000000
887365.000000
888231.000000
889105.000000
889994.000000
890844.000000
891745.000000
892646.000000
893542.000000
894388.000000
895243.000000
896104.000000
896965.000000
897790.000000
898620.000000
899470.000000
900352.000000
901202.000000
902086.000000
903005.000000
903924.000000
904803.000000
905648.000000
906530.000000
907421.000000
908316.000000
909168.000000
910013.000000
910891.000000
911775.000000
912639.000000
913487.000000
914382.000000
915270.000000
916136.000000
916974.000000
917838.000000
918706.000000
919584.000000
920453.000000
921310.000000
922194.000000
923079.000000
923961.000000
924817.000000
925689.000000
926567.000000
927446.000000
928287.000000
929108.000000
929964.000000
930865.000000
931759.000000
932635.000000
933536.000000
934451.000000
935345.000000
936208.000000
937048.000000
937926.000000
938804.000000
939679.000000
940519.000000
941386.000000
942256.000000
943142.000000
943994.000000
944844.000000
945721.000000
946606.000000
947472.000000
948307.000000
949152.000000
950033.000000
950924.000000
951813.000000
952677.000000
953567.000000
954452.000000
955352.000000
956212.000000
957066.000000
957951.000000
958832.000000
959714.000000
960567.000000
961435.000000
962330.000000
963216.000000
964095.000000
964926.000000
965779.000000
966667.000000
967554.000000
968435.000000
969294.000000
970179.000000
971071.000000
971961.000000
972803.000000
973668.000000
974539.000000
975413.000000
976286.000000
977130.000000
978014.000000
978920.000000
979826.000000
980696.000000
981570.000000
982450.000000
983353.000000
984256.000000
985111.000000
985991.000000
986877.000000
987768.000000
988624.000000
989528.000000
990441.000000
991383.000000
992294.000000
993165.000000
994064.000000
994948.000000
995831.000000
996690.000000
997556.000000
998456.000000
999391.000000
1000333.000000
1001224.000000
1002086.000000
1002976.000000
1003859.000000
1004757.000000
1005630.000000
1006520.000000
1007424.000000
1008334.000000
1009212.000000
1010081.000000
1010979.000000
1011877.000000
1012751.000000
1013588.000000
1014466.000000
1015331.000000
1016182.000000
1017007.000000
1017878.000000
1018793.000000
1019747.000000
1020654.000000
1021639.000000
1022580.000000
1023519.000000
1024415.000000
1025331.000000
1026247.000000
1027169.000000
1028051.000000
1028908.000000
1029797.000000
1030676.000000
1031567.000000
1032428.000000
1033321.000000
1034237.000000
1035143.000000
1036025.000000
1036938.000000
1037854.000000
1038777.000000
1039661.000000
1040567.000000
1041480.000000
1042390.000000
1043281.000000
1044172.000000
1045090.000000
1046014.000000
1046911.000000
1047788.000000
1048693.000000
1049608.000000
1050514.000000
1051388.000000
1052288.000000
1053200.000000
1054108.000000
1054976.000000
1055866.000000
1056764.000000
1057663.000000
1058538.000000
1059391.000000
1060276.000000
1061171.000000
1062076.000000
1062954.000000
1063813.000000
1064710.000000
1065619.000000
1066514.000000
1067370.000000
1068234.000000
1069118.000000
1070028.000000
1070928.000000
1071805.000000
1072664.000000
1073546.000000
1074442.000000
1075346.000000
1076221.000000
1077067.000000
1077925.000000
1078793.000000
1079686.000000
1080575.000000
1081447.000000
1082299.000000
1083170.000000
1084046.000000
1084933.000000
1085794.000000
1086628.000000
1087483.000000
1088354.000000
1089204.000000
1090068.000000
1090956.000000
1091845.000000
1092696.000000
1093558.000000
1094421.000000
1095271.000000
1096108.000000
1096965.000000
1097830.000000
1098702.000000
1099561.000000
1100403.000000
1101277.000000
1102176.000000
1103075.000000
1103966.000000
1104822.000000
1105672.000000
1106544.000000
1107435.000000
1108349.000000
1109252.000000
1110139.000000
1111010.000000
1111859.000000
1112742.000000
1113663.000000
1114589.000000
1115512.000000
1116418.000000
1117297.000000
1118209.000000
1119120.000000
1120024.000000
1120913.000000
1121782.000000
1122629.000000
1123482.000000
1124364.000000
1125266.000000
1126191.000000
1127106.000000
1127995.000000
1128855.000000
1129719.000000
1130596.000000
1131498.000000
1132404.000000
1133282.000000
1134131.000000
1135004.000000
1135878.000000
1136739.000000
1137582.000000
1138450.000000
1139328.000000
1140202.000000
1141046.000000
1141883.000000
1142728.000000
1143589.000000
1144468.000000
1145320.000000
1146203.000000
1147097.000000
1147994.000000
1148859.000000
1149711.000000
1150584.000000
1151472.000000
1152370.000000
1153247.000000
1154148.000000
1155056.000000
1155951.000000
1156816.000000
1157676.000000
1158542.000000
1159470.000000
1160409.000000
1161349.000000
1162283.000000
1163185.000000
1164047.000000
1164922.000000
1165827.000000
1166725.000000
1167624.000000
1168492.000000
1169339.000000
1170218.000000
1171120.000000
1172069.000000
1173012.000000
1173923.000000
1174801.000000
1175665.000000
1176547.000000
1177455.000000
1178368.000000
1179270.000000
1180145.000000
1181029.000000
1181933.000000
1182842.000000
1183762.000000
1184648.000000
1185529.000000
1186430.000000
1187330.000000
1188213.000000
1189075.000000
1189930.000000
1190824.000000
1191743.000000
1192639.000000
1193486.000000
1194342.000000
1195206.000000
1196101.000000
1196975.000000
1197827.000000
1198731.000000
1199663.000000
1200579.000000
1201446.000000
1202301.000000
1203179.000000
1204062.000000
1204945.000000
1205804.000000
1206670.000000
1207543.000000
1208426.000000
1209304.000000
1210164.000000
1211070.000000
1211982.000000
1212893.000000
1213768.000000
1214613.000000
1215487.000000
1216369.000000
1217238.000000
