ECG (ms)
856.000000
1892.000000
2884.000000
3946.000000
5059.000000
6138.000000
7242.000000
8317.000000
9310.000000
10402.000000
11540.000000
12568.000000
13624.000000
14699.000000
15752.000000
16779.000000
17917.000000
18979.000000
20058.000000
21166.000000
22192.000000
23221.000000
24286.000000
25275.000000
26332.000000
27410.000000
28429.000000
29522.000000
30605.000000
31570.000000
32588.000000
33661.000000
34644.000000
35799.000000
36959.000000
38044.000000
39161.000000
40210.000000
41256.000000
42264.000000
43270.000000
44324.000000
45319.000000
46355.000000
47366.000000
48377.000000
49390.000000
50346.000000
51334.000000
52274.000000
53226.000000
54182.000000
55111.000000
56111.000000
57098.000000
58079.000000
59151.000000
60172.000000
61213.000000
62300.000000
63329.000000
64399.000000
65480.000000
66482.000000
67535.000000
68518.000000
69489.000000
70478.000000
71415.000000
72440.000000
73487.000000
74467.000000
75513.000000
76516.000000
77535.000000
78562.000000
79536.000000
80570.000000
81614.000000
82611.000000
83605.000000
84539.000000
85465.000000
86461.000000
87395.000000
88475.000000
89650.000000
90685.000000
91708.000000
92754.000000
93808.000000
94854.000000
95935.000000
96982.000000
98001.000000
99113.000000
100157.000000
101236.000000
102377.000000
103448.000000
104545.000000
105648.000000
106721.000000
107832.000000
108870.000000
109949.000000
111115.000000
112185.000000
113291.000000
114420.000000
115445.000000
116502.000000
117595.000000
118615.000000
119730.000000
120843.000000
121935.000000
123028.000000
124059.000000
125161.000000
126216.000000
127262.000000
128422.000000
129434.000000
130439.000000
131492.000000
132494.000000
133533.000000
134669.000000
135680.000000
136774.000000
137825.000000
138849.000000
139917.000000
140889.000000
141909.000000
142904.000000
143833.000000
144796.000000
145697.000000
146606.000000
147602.000000
148513.000000
149476.000000
150476.000000
151422.000000
152416.000000
153360.000000
154277.000000
155221.000000
156115.000000
157032.000000
157999.000000
158985.000000
159900.000000
160893.000000
161894.000000
162829.000000
163787.000000
164785.000000
165715.000000
166692.000000
167652.000000
168586.000000
169596.000000
170541.000000
171533.000000
172532.000000
173486.000000
174503.000000
175453.000000
176350.000000
177313.000000
178250.000000
179217.000000
180229.000000
181207.000000
182251.000000
183297.000000
184304.000000
185358.000000
186347.000000
187348.000000
188349.000000
189328.000000
190360.000000
191353.000000
192374.000000
193385.000000
194366.000000
195395.000000
196341.000000
197290.000000
198285.000000
199213.000000
200195.000000
201165.000000
202087.000000
203104.000000
204081.000000
205032.000000
206058.000000
207076.000000
208053.000000
209062.000000
210036.000000
210943.000000
211908.000000
212904.000000
213822.000000
214790.000000
215823.000000
216774.000000
217783.000000
218764.000000
219727.000000
220734.000000
221628.000000
222509.000000
223426.000000
224304.000000
225220.000000
226245.000000
227257.000000
228255.000000
229296.000000
230282.000000
231260.000000
232268.000000
233171.000000
234051.000000
234951.000000
235819.000000
236720.000000
237638.000000
238509.000000
239426.000000
240385.000000
241285.000000
242154.000000
243077.000000
243934.000000
244769.000000
245576.000000
246344.000000
247116.000000
247909.000000
248774.000000
249718.000000
250589.000000
251528.000000
252464.000000
253334.000000
254279.000000
255165.000000
256017.000000
256903.000000
257769.000000
258655.000000
259652.000000
260615.000000
261616.000000
262653.000000
263633.000000
264640.000000
265593.000000
266543.000000
267541.000000
268488.000000
269438.000000
270439.000000
271349.000000
272280.000000
273195.000000
274074.000000
275035.000000
276002.000000
276879.000000
277840.000000
278848.000000
279801.000000
280747.000000
281765.000000
282704.000000
283681.000000
284686.000000
285605.000000
286540.000000
287660.000000
288800.000000
289862.000000
290978.000000
292074.000000
293143.000000
294239.000000
295314.000000
296428.000000
297552.000000
298598.000000
299695.000000
300768.000000
301785.000000
302859.000000
303960.000000
305036.000000
306158.000000
307273.000000
308358.000000
309488.000000
310531.000000
311553.000000
312667.000000
313831.000000
314886.000000
315991.000000
317045.000000
318061.000000
319139.000000
320153.000000
321248.000000
322386.000000
323367.000000
324359.000000
325368.000000
326298.000000
327278.000000
328319.000000
329246.000000
330197.000000
331245.000000
332214.000000
333231.000000
334419.000000
335491.000000
336552.000000
337662.000000
338732.000000
339769.000000
340822.000000
341811.000000
342858.000000
343917.000000
344937.000000
346019.000000
347059.000000
348058.000000
349003.000000
349858.000000
350766.000000
351672.000000
352625.000000
353713.000000
354683.000000
355685.000000
356766.000000
357784.000000
358790.000000
359858.000000
360860.000000
361913.000000
362997.000000
364000.000000
365051.000000
366089.000000
367113.000000
368178.000000
369172.000000
370219.000000
371253.000000
372240.000000
373293.000000
374327.000000
375358.000000
376439.000000
377468.000000
378521.000000
379537.000000
380572.000000
381613.000000
382624.000000
383684.000000
384718.000000
385786.000000
386834.000000
387820.000000
388850.000000
389852.000000
390860.000000
391928.000000
392911.000000
393956.000000
395025.000000
396028.000000
397056.000000
398075.000000
399078.000000
400132.000000
401093.000000
402140.000000
403164.000000
404156.000000
405194.000000
406193.000000
407141.000000
408151.000000
409188.000000
410188.000000
411283.000000
412322.000000
413393.000000
414445.000000
415455.000000
416493.000000
417458.000000
418440.000000
419409.000000
420297.000000
421250.000000
422219.000000
423160.000000
424181.000000
425175.000000
426136.000000
427146.000000
428117.000000
429114.000000
430088.000000
431028.000000
432044.000000
433026.000000
433978.000000
434968.000000
435907.000000
436874.000000
437834.000000
438767.000000
439743.000000
440670.000000
441542.000000
442481.000000
443431.000000
444325.000000
445299.000000
446271.000000
447205.000000
448183.000000
449114.000000
450024.000000
450996.000000
451899.000000
452814.000000
453801.000000
454732.000000
455700.000000
456691.000000
457617.000000
458621.000000
459613.000000
460580.000000
461607.000000
462567.000000
463570.000000
464601.000000
465563.000000
466591.000000
467583.000000
468527.000000
469537.000000
470505.000000
471514.000000
472594.000000
473640.000000
474709.000000
475798.000000
476834.000000
477894.000000
478884.000000
479908.000000
480976.000000
482005.000000
483085.000000
484156.000000
485209.000000
486295.000000
487295.000000
488347.000000
489381.000000
490434.000000
491558.000000
492621.000000
493703.000000
494774.000000
495786.000000
496832.000000
497851.000000
498881.000000
499952.000000
500938.000000
501935.000000
502956.000000
503930.000000
504991.000000
506136.000000
507172.000000
508210.000000
509282.000000
510322.000000
511347.000000
512345.000000
513341.000000
514459.000000
515484.000000
516631.000000
517811.000000
518941.000000
520091.000000
521184.000000
522301.000000
523309.000000
524340.000000
525387.000000
526383.000000
527366.000000
528320.000000
529249.000000
530308.000000
531363.000000
532433.000000
533513.000000
534517.000000
535585.000000
536600.000000
537588.000000
538606.000000
539571.000000
540536.000000
541564.000000
542600.000000
543592.000000
544671.000000
545721.000000
546710.000000
547748.000000
548764.000000
549736.000000
550734.000000
551694.000000
552657.000000
553712.000000
554721.000000
555760.000000
556848.000000
557864.000000
558927.000000
559963.000000
560936.000000
561947.000000
562946.000000
563915.000000
564969.000000
566007.000000
567030.000000
568091.000000
569127.000000
570199.000000
571249.000000
572249.000000
573298.000000
574300.000000
575332.000000
576483.000000
577582.000000
578682.000000
579821.000000
580862.000000
581954.000000
583072.000000
584129.000000
585255.000000
586378.000000
587518.000000
588598.000000
589592.000000
590663.000000
591757.000000
592778.000000
593845.000000
594900.000000
595899.000000
596960.000000
598015.000000
599008.000000
600005.000000
600997.000000
601907.000000
602907.000000
603958.000000
604926.000000
605987.000000
607017.000000
608043.000000
609070.000000
609999.000000
610930.000000
611948.000000
612890.000000
613862.000000
614905.000000
615893.000000
616920.000000
617990.000000
619000.000000
620005.000000
620972.000000
621899.000000
622891.000000
623886.000000
624855.000000
625807.000000
626718.000000
627657.000000
628623.000000
629538.000000
630457.000000
631422.000000
632378.000000
633352.000000
634283.000000
635166.000000
635987.000000
636793.000000
637614.000000
638482.000000
639497.000000
640437.000000
641440.000000
642510.000000
643516.000000
644555.000000
645536.000000
646510.000000
647500.000000
648421.000000
649334.000000
650305.000000
651249.000000
652153.000000
653099.000000
654031.000000
654905.000000
655846.000000
656827.000000
657752.000000
658756.000000
659738.000000
660635.000000
661571.000000
662480.000000
663341.000000
664260.000000
665234.000000
666168.000000
667068.000000
668071.000000
669042.000000
669995.000000
671010.000000
671976.000000
672930.000000
673955.000000
674929.000000
675920.000000
676943.000000
677892.000000
678876.000000
679939.000000
680914.000000
681945.000000
683023.000000
684069.000000
685250.000000
686349.000000
687419.000000
688493.000000
689545.000000
690578.000000
691685.000000
692764.000000
693902.000000
695010.000000
696110.000000
697281.000000
698363.000000
699440.000000
700608.000000
701649.000000
702725.000000
703844.000000
704923.000000
706041.000000
707056.000000
708117.000000
709187.000000
710164.000000
711191.000000
712189.000000
713132.000000
714159.000000
715147.000000
716134.000000
717186.000000
718181.000000
719213.000000
720258.000000
721286.000000
722474.000000
723615.000000
724710.000000
725812.000000
726840.000000
727931.000000
729044.000000
730062.000000
731166.000000
732224.000000
733266.000000
734368.000000
735400.000000
736457.000000
737576.000000
738567.000000
739615.000000
740692.000000
741755.000000
742868.000000
743911.000000
745008.000000
746057.000000
747095.000000
748135.000000
749189.000000
750290.000000
751347.000000
752453.000000
753533.000000
754586.000000
755672.000000
756701.000000
757748.000000
758862.000000
759924.000000
761051.000000
762225.000000
763292.000000
764386.000000
765505.000000
766544.000000
767647.000000
768720.000000
769782.000000
770897.000000
771969.000000
773078.000000
774115.000000
775153.000000
776238.000000
777267.000000
778352.000000
779444.000000
780554.000000
781737.000000
782876.000000
783970.000000
785051.000000
786088.000000
787183.000000
788269.000000
789329.000000
790461.000000
791559.000000
792639.000000
793759.000000
794835.000000
795909.000000
797026.000000
798074.000000
799159.000000
800261.000000
801320.000000
802421.000000
803558.000000
804636.000000
805747.000000
806818.000000
807898.000000
809032.000000
810128.000000
811206.000000
812279.000000
813278.000000
814326.000000
815379.000000
816385.000000
817519.000000
818626.000000
819784.000000
820917.000000
821973.000000
823083.000000
824097.000000
825128.000000
826156.000000
827168.000000
828242.000000
829291.000000
830361.000000
831407.000000
832433.000000
833493.000000
834524.000000
835564.000000
836588.000000
837605.000000
838624.000000
839597.000000
840616.000000
841612.000000
842599.000000
843619.000000
844589.000000
845621.000000
846638.000000
847643.000000
848680.000000
849658.000000
850620.000000
851600.000000
852507.000000
853488.000000
854519.000000
855527.000000
856508.000000
857555.000000
858583.000000
859622.000000
860653.000000
861629.000000
862565.000000
863563.000000
864577.000000
865500.000000
866459.000000
867311.000000
868175.000000
869075.000000
870019.000000
871248.000000
872337.000000
873505.000000
874637.000000
875719.000000
876862.000000
877943.000000
879014.000000
880144.000000
881218.000000
882338.000000
883418.000000
884478.000000
885599.000000
886655.000000
887777.000000
888787.000000
889764.000000
890918.000000
892076.000000
893145.000000
894285.000000
895379.000000
896415.000000
897433.000000
898441.000000
899548.000000
900668.000000
901669.000000
902687.000000
903753.000000
904788.000000
905886.000000
907018.000000
908071.000000
909098.000000
910171.000000
911177.000000
912253.000000
913423.000000
914503.000000
915622.000000
916745.000000
917862.000000
919018.000000
920108.000000
921204.000000
922336.000000
923389.000000
924500.000000
925591.000000
926655.000000
927877.000000
928995.000000
930181.000000
931359.000000
932430.000000
933584.000000
934746.000000
935853.000000
937067.000000
938301.000000
939364.000000
940424.000000
941531.000000
942606.000000
943736.000000
944876.000000
946042.000000
947181.000000
948163.000000
949172.000000
950235.000000
951214.000000
952239.000000
953240.000000
954187.000000
955253.000000
956284.000000
957352.000000
958489.000000
959588.000000
960673.000000
961713.000000
962715.000000
963745.000000
964722.000000
965686.000000
966702.000000
967691.000000
968682.000000
969747.000000
970744.000000
971764.000000
972841.000000
973827.000000
974845.000000
975862.000000
976872.000000
977978.000000
979033.000000
980170.000000
981234.000000
982273.000000
983418.000000
984496.000000
985528.000000
986615.000000
987659.000000
988596.000000
989560.000000
990587.000000
991571.000000
992641.000000
993716.000000
994766.000000
995871.000000
996915.000000
998062.000000
999102.000000
1000126.000000
1001291.000000
1002423.000000
1003473.000000
1004556.000000
1005596.000000
1006574.000000
1007544.000000
1008490.000000
1009470.000000
1010564.000000
1011628.000000
1012712.000000
1013783.000000
1014829.000000
1015935.000000
1016923.000000
1017832.000000
1018796.000000
1019807.000000
1020829.000000
1021801.000000
1022916.000000
1023988.000000
1025079.000000
1026188.000000
1027196.000000
1028244.000000
1029335.000000
1030306.000000
1031275.000000
1032292.000000
1033326.000000
1034296.000000
1035327.000000
1036353.000000
1037384.000000
1038519.000000
1039599.000000
1040663.000000
1041741.000000
1042751.000000
1043813.000000
1044933.000000
1046012.000000
1047129.000000
1048224.000000
1049242.000000
1050293.000000
1051348.000000
1052350.000000
1053439.000000
1054503.000000
1055524.000000
1056603.000000
1057671.000000
1058697.000000
1059766.000000
1060747.000000
1061660.000000
1062583.000000
1063510.000000
1064434.000000
1065501.000000
1066526.000000
1067565.000000
1068679.000000
1069772.000000
1070892.000000
1071955.000000
1072998.000000
1074005.000000
1075036.000000
1076134.000000
1077187.000000
1078254.000000
1079358.000000
1080407.000000
1081460.000000
1082533.000000
1083589.000000
1084603.000000
1085672.000000
1086693.000000
1087780.000000
1088856.000000
1089931.000000
1091045.000000
1092077.000000
1093176.000000
1094330.000000
1095387.000000
1096491.000000
1097594.000000
1098634.000000
1099728.000000
1100790.000000
1101798.000000
1102839.000000
1103827.000000
1104868.000000
1105981.000000
1107016.000000
1108067.000000
1109073.000000
1110071.000000
1111117.000000
1112086.000000
1113142.000000
1114192.000000
1115218.000000
1116290.000000
1117262.000000
1118294.000000
1119303.000000
1120223.000000
1121172.000000
1122063.000000
1123006.000000
1123998.000000
1124924.000000
1125913.000000
1126821.000000
1127694.000000
1128632.000000
1129532.000000
1130414.000000
1131371.000000
1132317.000000
1133238.000000
1134163.000000
1135141.000000
1136064.000000
1136992.000000
1137918.000000
1138792.000000
1139606.000000
1140419.000000
1141295.000000
1142187.000000
1143061.000000
1143978.000000
1144852.000000
1145747.000000
1146720.000000
1147627.000000
1148512.000000
1149475.000000
1150412.000000
1151302.000000
1152286.000000
1153228.000000
1154141.000000
1155110.000000
1156064.000000
1157033.000000
1158035.000000
1158988.000000
1160000.000000
1161076.000000
1162064.000000
1163080.000000
1164090.000000
1165076.000000
1166177.000000
1167258.000000
1168364.000000
1169534.000000
1170606.000000
1171677.000000
1172788.000000
1173896.000000
1175170.000000
1176464.000000
1177615.000000
1178800.000000
1179955.000000
1181082.000000
1182386.000000
1183543.000000
1184717.000000
1185849.000000
1186933.000000
1188134.000000
1189203.000000
1190312.000000
1191503.000000
1192601.000000
1193753.000000
1194849.000000
