ECG (ms)
30.000000
765.000000
1462.000000
2162.000000
2880.000000
3600.000000
4313.000000
5003.000000
5706.000000
6438.000000
7181.000000
7941.000000
8645.000000
9324.000000
9994.000000
10649.000000
11283.000000
11877.000000
12447.000000
13025.000000
13624.000000
14296.000000
15097.000000
15927.000000
16611.000000
17274.000000
17963.000000
18648.000000
19332.000000
20005.000000
20672.000000
21326.000000
21990.000000
22671.000000
23339.000000
23997.000000
24651.000000
25341.000000
26071.000000
26823.000000
27537.000000
28219.000000
28903.000000
29654.000000
30384.000000
31103.000000
31799.000000
32476.000000
33150.000000
33827.000000
34532.000000
35235.000000
35934.000000
36629.000000
37352.000000
38081.000000
38797.000000
39512.000000
40200.000000
40863.000000
41546.000000
42249.000000
42969.000000
43694.000000
44413.000000
45109.000000
45805.000000
46504.000000
47202.000000
47907.000000
48596.000000
49266.000000
49940.000000
50638.000000
51348.000000
52050.000000
52743.000000
53426.000000
54119.000000
54843.000000
55570.000000
56318.000000
57032.000000
57727.000000
58416.000000
59100.000000
59788.000000
60484.000000
61176.000000
61867.000000
62592.000000
63314.000000
64042.000000
64748.000000
65429.000000
66111.000000
66805.000000
67534.000000
68283.000000
69002.000000
69696.000000
70396.000000
71115.000000
71842.000000
72569.000000
73273.000000
73974.000000
74689.000000
75429.000000
76201.000000
76933.000000
77648.000000
78358.000000
79079.000000
79795.000000
80498.000000
81189.000000
81875.000000
82576.000000
83298.000000
84020.000000
84733.000000
85436.000000
86110.000000
86790.000000
87486.000000
88211.000000
88951.000000
89699.000000
90420.000000
91118.000000
91800.000000
92485.000000
93185.000000
93895.000000
94593.000000
95281.000000
95964.000000
96679.000000
97431.000000
98169.000000
98860.000000
99531.000000
100220.000000
100939.000000
101650.000000
102330.000000
102989.000000
103656.000000
104347.000000
105076.000000
105790.000000
106471.000000
107139.000000
107832.000000
108528.000000
109221.000000
109915.000000
110565.000000
111221.000000
111893.000000
112593.000000
113305.000000
114000.000000
114680.000000
115376.000000
116125.000000
116906.000000
117625.000000
118296.000000
118952.000000
119617.000000
120288.000000
120955.000000
121615.000000
122265.000000
122947.000000
123685.000000
124433.000000
125159.000000
125869.000000
126561.000000
127261.000000
127983.000000
128699.000000
129419.000000
130117.000000
130798.000000
131484.000000
132173.000000
132878.000000
133586.000000
134272.000000
134936.000000
135619.000000
136319.000000
137029.000000
137712.000000
138371.000000
139024.000000
139688.000000
140390.000000
141073.000000
141734.000000
142377.000000
143045.000000
143744.000000
144478.000000
145176.000000
145849.000000
146521.000000
147203.000000
147892.000000
148573.000000
149235.000000
149885.000000
150570.000000
151283.000000
151997.000000
152709.000000
153391.000000
154059.000000
154738.000000
155432.000000
156114.000000
156775.000000
157430.000000
158107.000000
158825.000000
159574.000000
160321.000000
161027.000000
161743.000000
162465.000000
163194.000000
163885.000000
164545.000000
165205.000000
165901.000000
166652.000000
167381.000000
168076.000000
168765.000000
169496.000000
170252.000000
171001.000000
171710.000000
172394.000000
173068.000000
173743.000000
174419.000000
175098.000000
175762.000000
176414.000000
177083.000000
177804.000000
178560.000000
179257.000000
179943.000000
180638.000000
181326.000000
182025.000000
182704.000000
183366.000000
184046.000000
184736.000000
185441.000000
186143.000000
186837.000000
187529.000000
188228.000000
188943.000000
189649.000000
190339.000000
191013.000000
191701.000000
192404.000000
193120.000000
193814.000000
194497.000000
195194.000000
195891.000000
196596.000000
197313.000000
198024.000000
198721.000000
199405.000000
200092.000000
200795.000000
201517.000000
202251.000000
202984.000000
203709.000000
204438.000000
205169.000000
205911.000000
206642.000000
207363.000000
208066.000000
208747.000000
209437.000000
210171.000000
210918.000000
211639.000000
212336.000000
213052.000000
213793.000000
214546.000000
215268.000000
215973.000000
216671.000000
217376.000000
218082.000000
218775.000000
219453.000000
220117.000000
220778.000000
221469.000000
222186.000000
222884.000000
223567.000000
224243.000000
224939.000000
225672.000000
226417.000000
227105.000000
227761.000000
228420.000000
229124.000000
229875.000000
230594.000000
231292.000000
231961.000000
232642.000000
233337.000000
234041.000000
234719.000000
235372.000000
236027.000000
236727.000000
237498.000000
238289.000000
239023.000000
239708.000000
240387.000000
241087.000000
241807.000000
242544.000000
243237.000000
243902.000000
244589.000000
245307.000000
246066.000000
246784.000000
247463.000000
248131.000000
248815.000000
249514.000000
250214.000000
250901.000000
251605.000000
252353.000000
253134.000000
253898.000000
254605.000000
255319.000000
256028.000000
256743.000000
257435.000000
258125.000000
258825.000000
259545.000000
260275.000000
261019.000000
261739.000000
262424.000000
263121.000000
263834.000000
264556.000000
265253.000000
265930.000000
266596.000000
267288.000000
268008.000000
268751.000000
269456.000000
270126.000000
270806.000000
271505.000000
272201.000000
272899.000000
273579.000000
274257.000000
274979.000000
275768.000000
276557.000000
277305.000000
278015.000000
278733.000000
279460.000000
280169.000000
280852.000000
281512.000000
282182.000000
282902.000000
283653.000000
284414.000000
285143.000000
285838.000000
286557.000000
287298.000000
288039.000000
288747.000000
289433.000000
290120.000000
290825.000000
291567.000000
292333.000000
293058.000000
293753.000000
294457.000000
295183.000000
295907.000000
296628.000000
297318.000000
297981.000000
298645.000000
299351.000000
300062.000000
300760.000000
301429.000000
302103.000000
302797.000000
303503.000000
304193.000000
304854.000000
305519.000000
306196.000000
306909.000000
307619.000000
308289.000000
308945.000000
309597.000000
310271.000000
310956.000000
311665.000000
312349.000000
313004.000000
313676.000000
314381.000000
315103.000000
315851.000000
316590.000000
317269.000000
317935.000000
318601.000000
319292.000000
320002.000000
320688.000000
321362.000000
322045.000000
322762.000000
323501.000000
324205.000000
324887.000000
325585.000000
326316.000000
327052.000000
327778.000000
328469.000000
329146.000000
329812.000000
330469.000000
331129.000000
331796.000000
332451.000000
333103.000000
333783.000000
334520.000000
335269.000000
335970.000000
336631.000000
337287.000000
337951.000000
338645.000000
339317.000000
339987.000000
340659.000000
341349.000000
342065.000000
342787.000000
343483.000000
344147.000000
344822.000000
345513.000000
346226.000000
346921.000000
347583.000000
348249.000000
348943.000000
349640.000000
350361.000000
351035.000000
351687.000000
352350.000000
353043.000000
353746.000000
354429.000000
355094.000000
355768.000000
356462.000000
357166.000000
357844.000000
358503.000000
359153.000000
359830.000000
360533.000000
361222.000000
361913.000000
362601.000000
363297.000000
364001.000000
364695.000000
365361.000000
366009.000000
366688.000000
367390.000000
368109.000000
368822.000000
369507.000000
370183.000000
370879.000000
371617.000000
372416.000000
373180.000000
373895.000000
374593.000000
375289.000000
376006.000000
376753.000000
377460.000000
378146.000000
378870.000000
379617.000000
380379.000000
381120.000000
381814.000000
382514.000000
383252.000000
384000.000000
384701.000000
385395.000000
386081.000000
386790.000000
387526.000000
388247.000000
388951.000000
389644.000000
390350.000000
391067.000000
391766.000000
392459.000000
393156.000000
393860.000000
394578.000000
395310.000000
396025.000000
396723.000000
397427.000000
398140.000000
398848.000000
399545.000000
400242.000000
400941.000000
401661.000000
402373.000000
403095.000000
403789.000000
404474.000000
405161.000000
405854.000000
406547.000000
407229.000000
407902.000000
408600.000000
409338.000000
410099.000000
410836.000000
411539.000000
412229.000000
412913.000000
413603.000000
414296.000000
414987.000000
415686.000000
416410.000000
417170.000000
417931.000000
418660.000000
419373.000000
420092.000000
420821.000000
421556.000000
422277.000000
422983.000000
423699.000000
424410.000000
425120.000000
425821.000000
426513.000000
427201.000000
427909.000000
428630.000000
429372.000000
430095.000000
430801.000000
431506.000000
432213.000000
432932.000000
433630.000000
434347.000000
435096.000000
435869.000000
436630.000000
437340.000000
438057.000000
438775.000000
439494.000000
440207.000000
440912.000000
441615.000000
442340.000000
443098.000000
443851.000000
444578.000000
445284.000000
445999.000000
446723.000000
447454.000000
448161.000000
448860.000000
449572.000000
450305.000000
451043.000000
451768.000000
452472.000000
453184.000000
453907.000000
454638.000000
455353.000000
456048.000000
456751.000000
457468.000000
458210.000000
458951.000000
459674.000000
460394.000000
461121.000000
461852.000000
462573.000000
463287.000000
464006.000000
464729.000000
465442.000000
466158.000000
466855.000000
467541.000000
468237.000000
468936.000000
469660.000000
470404.000000
471113.000000
471811.000000
472520.000000
473249.000000
473977.000000
474701.000000
475408.000000
476120.000000
476862.000000
477601.000000
478342.000000
479056.000000
479752.000000
480452.000000
481160.000000
481879.000000
482617.000000
483349.000000
484072.000000
484810.000000
485558.000000
486314.000000
487046.000000
487750.000000
488453.000000
489161.000000
489866.000000
490582.000000
491279.000000
491981.000000
492700.000000
493437.000000
494145.000000
494840.000000
495533.000000
496233.000000
496946.000000
497657.000000
498345.000000
499043.000000
499746.000000
500455.000000
501150.000000
501847.000000
502560.000000
503295.000000
504037.000000
504776.000000
505492.000000
506199.000000
506912.000000
507634.000000
508363.000000
509066.000000
509761.000000
510456.000000
511179.000000
511914.000000
512663.000000
513387.000000
514106.000000
514816.000000
515538.000000
516272.000000
516994.000000
517700.000000
518406.000000
519131.000000
519875.000000
520596.000000
521309.000000
522008.000000
522718.000000
523434.000000
524135.000000
524825.000000
525499.000000
526199.000000
526924.000000
527643.000000
528357.000000
529078.000000
529819.000000
530575.000000
531330.000000
532050.000000
532759.000000
533460.000000
534170.000000
534903.000000
535655.000000
536380.000000
537092.000000
537807.000000
538534.000000
539272.000000
540021.000000
540741.000000
541437.000000
542151.000000
542876.000000
543616.000000
544346.000000
545057.000000
545754.000000
546464.000000
547177.000000
547884.000000
548594.000000
549320.000000
550039.000000
550761.000000
551472.000000
552168.000000
552871.000000
553590.000000
554325.000000
555060.000000
555768.000000
556476.000000
557197.000000
557929.000000
558643.000000
559337.000000
560020.000000
560712.000000
561422.000000
562147.000000
562857.000000
563538.000000
564234.000000
564973.000000
565708.000000
566430.000000
567121.000000
567806.000000
568497.000000
569209.000000
569928.000000
570627.000000
571357.000000
572140.000000
572945.000000
573697.000000
574415.000000
575146.000000
575913.000000
576694.000000
577415.000000
578114.000000
578793.000000
579506.000000
580220.000000
580941.000000
581652.000000
582345.000000
583085.000000
583853.000000
584595.000000
585311.000000
586009.000000
586732.000000
587472.000000
588176.000000
588866.000000
589545.000000
590244.000000
590988.000000
591777.000000
592500.000000
593209.000000
593914.000000
594621.000000
595335.000000
596067.000000
596771.000000
597464.000000
598155.000000
598882.000000
599607.000000
600298.000000
600973.000000
601661.000000
602393.000000
603178.000000
603944.000000
604682.000000
605400.000000
606125.000000
606857.000000
607597.000000
608323.000000
609024.000000
609729.000000
610451.000000
611207.000000
611928.000000
612632.000000
613346.000000
614067.000000
614826.000000
615552.000000
616257.000000
616960.000000
617681.000000
618451.000000
619188.000000
