ECG (ms)
65.000000
815.000000
1505.000000
2189.000000
2892.000000
3661.000000
4371.000000
5106.000000
5902.000000
6665.000000
7396.000000
8130.000000
8874.000000
9597.000000
10297.000000
11004.000000
11738.000000
12480.000000
13188.000000
13881.000000
14589.000000
15312.000000
16027.000000
16712.000000
17381.000000
18056.000000
18736.000000
19443.000000
20151.000000
20865.000000
21613.000000
22388.000000
23135.000000
23834.000000
24531.000000
25249.000000
26028.000000
26770.000000
27530.000000
28358.000000
29238.000000
30048.000000
30914.000000
31834.000000
32624.000000
33446.000000
34368.000000
35249.000000
36260.000000
37311.000000
38156.000000
38979.000000
40003.000000
40999.000000
41901.000000
42834.000000
43753.000000
44627.000000
45594.000000
46585.000000
47504.000000
48450.000000
49424.000000
50398.000000
51290.000000
52226.000000
53206.000000
54156.000000
55112.000000
56155.000000
57197.000000
58156.000000
59169.000000
60178.000000
61117.000000
62088.000000
63101.000000
64059.000000
65022.000000
66080.000000
67136.000000
68106.000000
69140.000000
70159.000000
71111.000000
72098.000000
73094.000000
74055.000000
74982.000000
75976.000000
76997.000000
77969.000000
78876.000000
79824.000000
80825.000000
81800.000000
82737.000000
83788.000000
84859.000000
85872.000000
86853.000000
87883.000000
88935.000000
89967.000000
90925.000000
91922.000000
92949.000000
93986.000000
94958.000000
96024.000000
97157.000000
98242.000000
99231.000000
100261.000000
101300.000000
102316.000000
103263.000000
104232.000000
105288.000000
106352.000000
107372.000000
108393.000000
109436.000000
110484.000000
111457.000000
112442.000000
113491.000000
114588.000000
115604.000000
116550.000000
117543.000000
118558.000000
119581.000000
120515.000000
121452.000000
122462.000000
123514.000000
124549.000000
125569.000000
126544.000000
127550.000000
128544.000000
129448.000000
130420.000000
131412.000000
132458.000000
133469.000000
134458.000000
135466.000000
136486.000000
137514.000000
138513.000000
139455.000000
140465.000000
141508.000000
142544.000000
143509.000000
144519.000000
145552.000000
146593.000000
147601.000000
148578.000000
149613.000000
150679.000000
151733.000000
152733.000000
153744.000000
154787.000000
155802.000000
156763.000000
157768.000000
158808.000000
159848.000000
160848.000000
161834.000000
162879.000000
163910.000000
164916.000000
165865.000000
166879.000000
167937.000000
168964.000000
169931.000000
170942.000000
171960.000000
172939.000000
173894.000000
174909.000000
175941.000000
176982.000000
177954.000000
178939.000000
179969.000000
181018.000000
182008.000000
182960.000000
183980.000000
185076.000000
186155.000000
187163.000000
188200.000000
189294.000000
190366.000000
191377.000000
192348.000000
193370.000000
194443.000000
195437.000000
196424.000000
197482.000000
198562.000000
199623.000000
200615.000000
201651.000000
202687.000000
203666.000000
204652.000000
205657.000000
206664.000000
207625.000000
208645.000000
209693.000000
210716.000000
211673.000000
212618.000000
213617.000000
214621.000000
215629.000000
216596.000000
217666.000000
218751.000000
219787.000000
220805.000000
221823.000000
222859.000000
223842.000000
224873.000000
225925.000000
226955.000000
228058.000000
229157.000000
230229.000000
231220.000000
232271.000000
233325.000000
234323.000000
235329.000000
236388.000000
237439.000000
238430.000000
239451.000000
240541.000000
241590.000000
242614.000000
243670.000000
244745.000000
245779.000000
246846.000000
247946.000000
248998.000000
250033.000000
251102.000000
252167.000000
253144.000000
254151.000000
255200.000000
256310.000000
257389.000000
258509.000000
259602.000000
260598.000000
261578.000000
262585.000000
263641.000000
264653.000000
265673.000000
266742.000000
267791.000000
268788.000000
269835.000000
270896.000000
271886.000000
272926.000000
273994.000000
275021.000000
276040.000000
277137.000000
278270.000000
279322.000000
280433.000000
281512.000000
282508.000000
283554.000000
284632.000000
285615.000000
286495.000000
287422.000000
288558.000000
289786.000000
290986.000000
292083.000000
293105.000000
294141.000000
295194.000000
296256.000000
297294.000000
298307.000000
299365.000000
300436.000000
301492.000000
302489.000000
303457.000000
304473.000000
305526.000000
306588.000000
307584.000000
308581.000000
309597.000000
310647.000000
311703.000000
312702.000000
313664.000000
314682.000000
315727.000000
316779.000000
317775.000000
318758.000000
319771.000000
320822.000000
321863.000000
322839.000000
323807.000000
324863.000000
325969.000000
327091.000000
328151.000000
329172.000000
330178.000000
331201.000000
332201.000000
333151.000000
334060.000000
335019.000000
336087.000000
337138.000000
338113.000000
339124.000000
340153.000000
341138.000000
342073.000000
343063.000000
344104.000000
345130.000000
346098.000000
347113.000000
348139.000000
349124.000000
350069.000000
351072.000000
352148.000000
353173.000000
354158.000000
355211.000000
356285.000000
357316.000000
358289.000000
359340.000000
360405.000000
361447.000000
362445.000000
363507.000000
364588.000000
365609.000000
366630.000000
367718.000000
368876.000000
369937.000000
371000.000000
372082.000000
373130.000000
374160.000000
375244.000000
376309.000000
377361.000000
378334.000000
379300.000000
380316.000000
381351.000000
382382.000000
383354.000000
384372.000000
385408.000000
386428.000000
387378.000000
388333.000000
389361.000000
390380.000000
391327.000000
392284.000000
393324.000000
394374.000000
395330.000000
396279.000000
397277.000000
398364.000000
399383.000000
400442.000000
401530.000000
402564.000000
403562.000000
404577.000000
405577.000000
406620.000000
407682.000000
408677.000000
409692.000000
410761.000000
411791.000000
412806.000000
413846.000000
414888.000000
415882.000000
416982.000000
418117.000000
419190.000000
420287.000000
421358.000000
422348.000000
423397.000000
424475.000000
425513.000000
426642.000000
427733.000000
428747.000000
429830.000000
430904.000000
431921.000000
433043.000000
434131.000000
435163.000000
436248.000000
437341.000000
438353.000000
439420.000000
440519.000000
441537.000000
442574.000000
443643.000000
444687.000000
445643.000000
446642.000000
447713.000000
448805.000000
449822.000000
450900.000000
452026.000000
453064.000000
454120.000000
455201.000000
456207.000000
457269.000000
458384.000000
459455.000000
460520.000000
461612.000000
462629.000000
463702.000000
464748.000000
465772.000000
466908.000000
468016.000000
469086.000000
470223.000000
471275.000000
472314.000000
473382.000000
474385.000000
475492.000000
476588.000000
477600.000000
478718.000000
479903.000000
481032.000000
482231.000000
483332.000000
484447.000000
485582.000000
486605.000000
487693.000000
488791.000000
489791.000000
490832.000000
491962.000000
493012.000000
494036.000000
495122.000000
496114.000000
497106.000000
498131.000000
499108.000000
500088.000000
501113.000000
502100.000000
503131.000000
504237.000000
505258.000000
506296.000000
507355.000000
508365.000000
509334.000000
510370.000000
511458.000000
512459.000000
513544.000000
514610.000000
515641.000000
516699.000000
517756.000000
518740.000000
519804.000000
520890.000000
521894.000000
522968.000000
524015.000000
525017.000000
526098.000000
527128.000000
528172.000000
529241.000000
530234.000000
531249.000000
532355.000000
533435.000000
534468.000000
535557.000000
536603.000000
537621.000000
538718.000000
539802.000000
540844.000000
541946.000000
543011.000000
544015.000000
545084.000000
546145.000000
547148.000000
548218.000000
549267.000000
550282.000000
551353.000000
552369.000000
553375.000000
554418.000000
555431.000000
556411.000000
557471.000000
558520.000000
559561.000000
560665.000000
561686.000000
562684.000000
563738.000000
564781.000000
565856.000000
567052.000000
568136.000000
569280.000000
570414.000000
571485.000000
572619.000000
573693.000000
574738.000000
575812.000000
576847.000000
577870.000000
578983.000000
580021.000000
581094.000000
582174.000000
583148.000000
584214.000000
585274.000000
586242.000000
587287.000000
588337.000000
589307.000000
590324.000000
591353.000000
592324.000000
593349.000000
594385.000000
595338.000000
596358.000000
597412.000000
598395.000000
599397.000000
600413.000000
601363.000000
602332.000000
603378.000000
604414.000000
605393.000000
606427.000000
607471.000000
608438.000000
609457.000000
610476.000000
611450.000000
612441.000000
613471.000000
614487.000000
615489.000000
616561.000000
617591.000000
618567.000000
619592.000000
620583.000000
621532.000000
622546.000000
623574.000000
624511.000000
625507.000000
626599.000000
627683.000000
628716.000000
629779.000000
630823.000000
631811.000000
632895.000000
633990.000000
635031.000000
636162.000000
637240.000000
638220.000000
639264.000000
640358.000000
641351.000000
642349.000000
643393.000000
644434.000000
645416.000000
646464.000000
647548.000000
648528.000000
649535.000000
650584.000000
651554.000000
652566.000000
653622.000000
654629.000000
655684.000000
656757.000000
657742.000000
658744.000000
659772.000000
660784.000000
661774.000000
662834.000000
663858.000000
664840.000000
665873.000000
666891.000000
667879.000000
668928.000000
669948.000000
670974.000000
672018.000000
673039.000000
674033.000000
675109.000000
676208.000000
677221.000000
678299.000000
679369.000000
680394.000000
681477.000000
682524.000000
683539.000000
684636.000000
685686.000000
686684.000000
687715.000000
688767.000000
689734.000000
690812.000000
691884.000000
692889.000000
693956.000000
694986.000000
695970.000000
696999.000000
698015.000000
699031.000000
700110.000000
701179.000000
702195.000000
703228.000000
704238.000000
705216.000000
706285.000000
707334.000000
708352.000000
709432.000000
710465.000000
711520.000000
712613.000000
713604.000000
714640.000000
715717.000000
716743.000000
717815.000000
718915.000000
719994.000000
721057.000000
722136.000000
723195.000000
724219.000000
725368.000000
726513.000000
727711.000000
728899.000000
729963.000000
731045.000000
732130.000000
733142.000000
734208.000000
735288.000000
736310.000000
737389.000000
738462.000000
739461.000000
740490.000000
741516.000000
742488.000000
743529.000000
744528.000000
745598.000000
746571.000000
747504.000000
748544.000000
749646.000000
750729.000000
751728.000000
752775.000000
753854.000000
754850.000000
755851.000000
756905.000000
758004.000000
759059.000000
760163.000000
761251.000000
762291.000000
763345.000000
764470.000000
765558.000000
766556.000000
767629.000000
768730.000000
769741.000000
770826.000000
771855.000000
772856.000000
773988.000000
775040.000000
776090.000000
777197.000000
778201.000000
779202.000000
780201.000000
781143.000000
782177.000000
783294.000000
784345.000000
785391.000000
786465.000000
787494.000000
788547.000000
789658.000000
790750.000000
791800.000000
792868.000000
793882.000000
794901.000000
795955.000000
796946.000000
798008.000000
799071.000000
800044.000000
801063.000000
802094.000000
803074.000000
804131.000000
805161.000000
806174.000000
807274.000000
808361.000000
809416.000000
810504.000000
811541.000000
812554.000000
813659.000000
814698.000000
815757.000000
816823.000000
817826.000000
818873.000000
819958.000000
820927.000000
821929.000000
822941.000000
823888.000000
824894.000000
826002.000000
827028.000000
828022.000000
829110.000000
830116.000000
831188.000000
832296.000000
833282.000000
834257.000000
835276.000000
836258.000000
837209.000000
838272.000000
839373.000000
840377.000000
841439.000000
842528.000000
843514.000000
844531.000000
845577.000000
846542.000000
847536.000000
848617.000000
849677.000000
850701.000000
851805.000000
852932.000000
854004.000000
855101.000000
856186.000000
857224.000000
858298.000000
859377.000000
860403.000000
861588.000000
862742.000000
863829.000000
864929.000000
865938.000000
867005.000000
868031.000000
868974.000000
869994.000000
870951.000000
871894.000000
872947.000000
873954.000000
875016.000000
876065.000000
877021.000000
877987.000000
879043.000000
880123.000000
881105.000000
882188.000000
883339.000000
884376.000000
885350.000000
886418.000000
887516.000000
888574.000000
889708.000000
890867.000000
891952.000000
893029.000000
894136.000000
895179.000000
