ECG (ms)
188.000000
1192.000000
2183.000000
3109.000000
4065.000000
5007.000000
5917.000000
6864.000000
7813.000000
8718.000000
9625.000000
10464.000000
11247.000000
12074.000000
13024.000000
14049.000000
14997.000000
15966.000000
16922.000000
17847.000000
18806.000000
19749.000000
20715.000000
21748.000000
22769.000000
23806.000000
24832.000000
25782.000000
26722.000000
27716.000000
28685.000000
29686.000000
30696.000000
31641.000000
32642.000000
33667.000000
34708.000000
35720.000000
36695.000000
37651.000000
38648.000000
39626.000000
40651.000000
41729.000000
42740.000000
43754.000000
44785.000000
45811.000000
46778.000000
47748.000000
48766.000000
49810.000000
50821.000000
51875.000000
52979.000000
54032.000000
55007.000000
56050.000000
57110.000000
58114.000000
59191.000000
60334.000000
61432.000000
62448.000000
63475.000000
64520.000000
65532.000000
66535.000000
67616.000000
68753.000000
69789.000000
70830.000000
71884.000000
72939.000000
73909.000000
74876.000000
75940.000000
77036.000000
78040.000000
79012.000000
80014.000000
81061.000000
82091.000000
83066.000000
84067.000000
85127.000000
86131.000000
87059.000000
88033.000000
89033.000000
90047.000000
91037.000000
92060.000000
93078.000000
94036.000000
94990.000000
95981.000000
96980.000000
97964.000000
98968.000000
100017.000000
101002.000000
101922.000000
102853.000000
103805.000000
104761.000000
105717.000000
106672.000000
107673.000000
108605.000000
109447.000000
110323.000000
111211.000000
112175.000000
113188.000000
114190.000000
115122.000000
116050.000000
116982.000000
117912.000000
118895.000000
119897.000000
120854.000000
121807.000000
122775.000000
123756.000000
124693.000000
125663.000000
126668.000000
127637.000000
128561.000000
129506.000000
130505.000000
131498.000000
132489.000000
133472.000000
134409.000000
135344.000000
136308.000000
137230.000000
138079.000000
138969.000000
139978.000000
141065.000000
142169.000000
143221.000000
144291.000000
145323.000000
146323.000000
147318.000000
148288.000000
149272.000000
150357.000000
151436.000000
152461.000000
153398.000000
154315.000000
155280.000000
156303.000000
157294.000000
158267.000000
159255.000000
160290.000000
161281.000000
162209.000000
163169.000000
164134.000000
165044.000000
165968.000000
166950.000000
167977.000000
168979.000000
170005.000000
171033.000000
172027.000000
172974.000000
173913.000000
174885.000000
175826.000000
176811.000000
177814.000000
178797.000000
179784.000000
180748.000000
181619.000000
182452.000000
183318.000000
184335.000000
185391.000000
186330.000000
187250.000000
188224.000000
189285.000000
190285.000000
191282.000000
192301.000000
193301.000000
194281.000000
195257.000000
196216.000000
197163.000000
198137.000000
199072.000000
199942.000000
200845.000000
201831.000000
202822.000000
203801.000000
204771.000000
205699.000000
206661.000000
207672.000000
208679.000000
209562.000000
210435.000000
211326.000000
212260.000000
213132.000000
213939.000000
214770.000000
215670.000000
216631.000000
217659.000000
218626.000000
219593.000000
220571.000000
221547.000000
222461.000000
223443.000000
224451.000000
225428.000000
226416.000000
227436.000000
228454.000000
229435.000000
230465.000000
231496.000000
232470.000000
233476.000000
234473.000000
235448.000000
236458.000000
237476.000000
238452.000000
239459.000000
240460.000000
241406.000000
242249.000000
243092.000000
244081.000000
245251.000000
246342.000000
247428.000000
248437.000000
249436.000000
250468.000000
251583.000000
252661.000000
253664.000000
254673.000000
255707.000000
256755.000000
257761.000000
258770.000000
259846.000000
260941.000000
261963.000000
262998.000000
264040.000000
265089.000000
266098.000000
267060.000000
268027.000000
269000.000000
269990.000000
270968.000000
271970.000000
272989.000000
273983.000000
274950.000000
275929.000000
276889.000000
277748.000000
278547.000000
279392.000000
280337.000000
281262.000000
282181.000000
283193.000000
284172.000000
285108.000000
286111.000000
287137.000000
288140.000000
289117.000000
290092.000000
291085.000000
292048.000000
293034.000000
294115.000000
295239.000000
296318.000000
297326.000000
298302.000000
299300.000000
300343.000000
301358.000000
302404.000000
303453.000000
304443.000000
305459.000000
306485.000000
307483.000000
308467.000000
309389.000000
310343.000000
311363.000000
312430.000000
313453.000000
314521.000000
315571.000000
316524.000000
317518.000000
318549.000000
319619.000000
320638.000000
321595.000000
322550.000000
323585.000000
324676.000000
325795.000000
326904.000000
327983.000000
328953.000000
329912.000000
330916.000000
331951.000000
333049.000000
334116.000000
335095.000000
336065.000000
337030.000000
337975.000000
338964.000000
339976.000000
340947.000000
341941.000000
342905.000000
343808.000000
344762.000000
345751.000000
346748.000000
347784.000000
348813.000000
349771.000000
350662.000000
351610.000000
352597.000000
353577.000000
354558.000000
355594.000000
356614.000000
357600.000000
358621.000000
359626.000000
360627.000000
361650.000000
362609.000000
363578.000000
364541.000000
365506.000000
366518.000000
367500.000000
368498.000000
369504.000000
370481.000000
371459.000000
372402.000000
373286.000000
374206.000000
375142.000000
376040.000000
376975.000000
377963.000000
378925.000000
379888.000000
380874.000000
381784.000000
382768.000000
383759.000000
384729.000000
385745.000000
386754.000000
387752.000000
388735.000000
389698.000000
390712.000000
391743.000000
392781.000000
393774.000000
394764.000000
395810.000000
396816.000000
397806.000000
398807.000000
399771.000000
400770.000000
401776.000000
402794.000000
403868.000000
404952.000000
405939.000000
406816.000000
407735.000000
408684.000000
409609.000000
410466.000000
411389.000000
412371.000000
413450.000000
414567.000000
415605.000000
416601.000000
417644.000000
418703.000000
419757.000000
420749.000000
421758.000000
422804.000000
423862.000000
424941.000000
425956.000000
426895.000000
427867.000000
428864.000000
429811.000000
430680.000000
431496.000000
432357.000000
433336.000000
434386.000000
435396.000000
436395.000000
437409.000000
438407.000000
439347.000000
440309.000000
441305.000000
442356.000000
443408.000000
444441.000000
445413.000000
446417.000000
447432.000000
448448.000000
449448.000000
450431.000000
451429.000000
452379.000000
453370.000000
454387.000000
455374.000000
456372.000000
457385.000000
458375.000000
459405.000000
460418.000000
461427.000000
462468.000000
463444.000000
464453.000000
465488.000000
466442.000000
467445.000000
468439.000000
469429.000000
470514.000000
471597.000000
472735.000000
473847.000000
474881.000000
475934.000000
476974.000000
478035.000000
479034.000000
480112.000000
481243.000000
482263.000000
483284.000000
484326.000000
485386.000000
486443.000000
487433.000000
488454.000000
489514.000000
490584.000000
491685.000000
492682.000000
493733.000000
494827.000000
495833.000000
496867.000000
497875.000000
498903.000000
499962.000000
501011.000000
502071.000000
503092.000000
504110.000000
505124.000000
506099.000000
507106.000000
508106.000000
509028.000000
509947.000000
510873.000000
511783.000000
512664.000000
513571.000000
514463.000000
515396.000000
516407.000000
517387.000000
518366.000000
519318.000000
520220.000000
521168.000000
522075.000000
522964.000000
523898.000000
524799.000000
525712.000000
526653.000000
527553.000000
528480.000000
529427.000000
530348.000000
531303.000000
532231.000000
533137.000000
534065.000000
534961.000000
535871.000000
536825.000000
537756.000000
538748.000000
539686.000000
540577.000000
541478.000000
542372.000000
543278.000000
544232.000000
545129.000000
546089.000000
547125.000000
548131.000000
549135.000000
550056.000000
551003.000000
551915.000000
552772.000000
553678.000000
554592.000000
555428.000000
556310.000000
557202.000000
558088.000000
559003.000000
559868.000000
560722.000000
561554.000000
562335.000000
563077.000000
563837.000000
564745.000000
565634.000000
566502.000000
567395.000000
568266.000000
569090.000000
569916.000000
570726.000000
571521.000000
572327.000000
573149.000000
573969.000000
574779.000000
575618.000000
576479.000000
577335.000000
578233.000000
579114.000000
579951.000000
580842.000000
581736.000000
582551.000000
583316.000000
584099.000000
584936.000000
585813.000000
586686.000000
587595.000000
588462.000000
589304.000000
590166.000000
591007.000000
591836.000000
592698.000000
593530.000000
594376.000000
595244.000000
596103.000000
597001.000000
597919.000000
598772.000000
599606.000000
600412.000000
601199.000000
602026.000000
602856.000000
603685.000000
604610.000000
605524.000000
606398.000000
607318.000000
608219.000000
609110.000000
609994.000000
610821.000000
611663.000000
612500.000000
613327.000000
614197.000000
615076.000000
615947.000000
616858.000000
617715.000000
618562.000000
619429.000000
620264.000000
621126.000000
621976.000000
622827.000000
623731.000000
624662.000000
625619.000000
626580.000000
627475.000000
628366.000000
629245.000000
630111.000000
631002.000000
631929.000000
632850.000000
633782.000000
634685.000000
635609.000000
636555.000000
637509.000000
638369.000000
639192.000000
640061.000000
641005.000000
641950.000000
642869.000000
643840.000000
644806.000000
645746.000000
646696.000000
647614.000000
648505.000000
649404.000000
650276.000000
651148.000000
652091.000000
653078.000000
654052.000000
655036.000000
655970.000000
656925.000000
657879.000000
658884.000000
659932.000000
660965.000000
661985.000000
662973.000000
663886.000000
664803.000000
665743.000000
666698.000000
667718.000000
668882.000000
669932.000000
671016.000000
672039.000000
673073.000000
674082.000000
675019.000000
675941.000000
676923.000000
678097.000000
679219.000000
680290.000000
681373.000000
682489.000000
683530.000000
684590.000000
685642.000000
686523.000000
687344.000000
688214.000000
689200.000000
690248.000000
691246.000000
692284.000000
693291.000000
694291.000000
695326.000000
696342.000000
697328.000000
698340.000000
699372.000000
700444.000000
701579.000000
702714.000000
703817.000000
704919.000000
706019.000000
707085.000000
708246.000000
709400.000000
710492.000000
711472.000000
712463.000000
713527.000000
714544.000000
715476.000000
716472.000000
717533.000000
718563.000000
719591.000000
720695.000000
721756.000000
722799.000000
723844.000000
724925.000000
725946.000000
726988.000000
728010.000000
729033.000000
730095.000000
731138.000000
732143.000000
733201.000000
734299.000000
735315.000000
736397.000000
737475.000000
738506.000000
739561.000000
740589.000000
741520.000000
742492.000000
743503.000000
744524.000000
745562.000000
746626.000000
747678.000000
748760.000000
749829.000000
750895.000000
751965.000000
753028.000000
754032.000000
755076.000000
756115.000000
757149.000000
758237.000000
759221.000000
760189.000000
761168.000000
762126.000000
763120.000000
764126.000000
765023.000000
765930.000000
766903.000000
767892.000000
768873.000000
769897.000000
770823.000000
771781.000000
772703.000000
773578.000000
774498.000000
775457.000000
776399.000000
777402.000000
778375.000000
779322.000000
780282.000000
781276.000000
782259.000000
783253.000000
784196.000000
785129.000000
786109.000000
787060.000000
788025.000000
788961.000000
789871.000000
790861.000000
791879.000000
792871.000000
793928.000000
794883.000000
795751.000000
796559.000000
797407.000000
798331.000000
799402.000000
800409.000000
801419.000000
802430.000000
803350.000000
804305.000000
805276.000000
806196.000000
807151.000000
808100.000000
809035.000000
809998.000000
810925.000000
811837.000000
812723.000000
813562.000000
814403.000000
815288.000000
816193.000000
817125.000000
818072.000000
818993.000000
819930.000000
820836.000000
821731.000000
822629.000000
823497.000000
824381.000000
825261.000000
826124.000000
827014.000000
827897.000000
828756.000000
829673.000000
830578.000000
831460.000000
832354.000000
833208.000000
834075.000000
834939.000000
835762.000000
836539.000000
837304.000000
838097.000000
839046.000000
840110.000000
841075.000000
841937.000000
842811.000000
843693.000000
844572.000000
845427.000000
846308.000000
847186.000000
848051.000000
848944.000000
849858.000000
850772.000000
851695.000000
852561.000000
853462.000000
854385.000000
855274.000000
856185.000000
857122.000000
858026.000000
858846.000000
859641.000000
860493.000000
861418.000000
862343.000000
863231.000000
864194.000000
865230.000000
866247.000000
867260.000000
868249.000000
869185.000000
870138.000000
871145.000000
872154.000000
873100.000000
874064.000000
875082.000000
876138.000000
877128.000000
878145.000000
879108.000000
880031.000000
880987.000000
882056.000000
883082.000000
883965.000000
884818.000000
885754.000000
886883.000000
887972.000000
889021.000000
890064.000000
891102.000000
892160.000000
893220.000000
894272.000000
895226.000000
896178.000000
897246.000000
898409.000000
899536.000000
900589.000000
901637.000000
902645.000000
903639.000000
904667.000000
905713.000000
906771.000000
907866.000000
908824.000000
909800.000000
910756.000000
911740.000000
912830.000000
913961.000000
915003.000000
916083.000000
917136.000000
918147.000000
919098.000000
920072.000000
921067.000000
922050.000000
923096.000000
924163.000000
925178.000000
926219.000000
927277.000000
928303.000000
929222.000000
930207.000000
931303.000000
932376.000000
933411.000000
934504.000000
935584.000000
936584.000000
937589.000000
938630.000000
939601.000000
940657.000000
941764.000000
942765.000000
943772.000000
944821.000000
945899.000000
946966.000000
947963.000000
948992.000000
950081.000000
951193.000000
952232.000000
953248.000000
954369.000000
955491.000000
956567.000000
957551.000000
958570.000000
959656.000000
960684.000000
961718.000000
962796.000000
963849.000000
964887.000000
965945.000000
966968.000000
968048.000000
969095.000000
970086.000000
971085.000000
972114.000000
973157.000000
974147.000000
975186.000000
976192.000000
977101.000000
978024.000000
978955.000000
979909.000000
980943.000000
982009.000000
983055.000000
984068.000000
985030.000000
986014.000000
986965.000000
987936.000000
988905.000000
989855.000000
990838.000000
991770.000000
992741.000000
993655.000000
994500.000000
995356.000000
996203.000000
997069.000000
998032.000000
998969.000000
999879.000000
1000821.000000
1001722.000000
1002630.000000
1003565.000000
1004483.000000
1005440.000000
1006367.000000
1007253.000000
1008157.000000
1009025.000000
1009888.000000
1010789.000000
1011689.000000
1012609.000000
1013561.000000
1014500.000000
1015419.000000
1016347.000000
1017218.000000
1018011.000000
1018808.000000
1019703.000000
1020706.000000
1021738.000000
1022720.000000
1023730.000000
1024771.000000
1025754.000000
1026747.000000
1027708.000000
1028601.000000
1029548.000000
1030547.000000
1031497.000000
1032489.000000
1033509.000000
1034576.000000
1035621.000000
1036683.000000
1037735.000000
1038708.000000
1039733.000000
1040686.000000
1041542.000000
1042403.000000
1043320.000000
1044369.000000
1045442.000000
1046433.000000
1047412.000000
1048435.000000
1049445.000000
1050454.000000
1051506.000000
1052484.000000
1053439.000000
1054436.000000
1055439.000000
1056481.000000
1057550.000000
1058589.000000
1059643.000000
1060680.000000
1061687.000000
1062684.000000
1063576.000000
1064504.000000
1065475.000000
1066467.000000
1067498.000000
1068601.000000
1069604.000000
1070620.000000
1071601.000000
1072562.000000
1073586.000000
1074606.000000
1075623.000000
1076647.000000
1077566.000000
1078455.000000
1079424.000000
1080473.000000
1081494.000000
1082551.000000
1083555.000000
1084582.000000
1085652.000000
1086624.000000
1087633.000000
1088681.000000
1089732.000000
1090773.000000
1091802.000000
1092765.000000
1093737.000000
1094772.000000
1095816.000000
1096899.000000
1097972.000000
1099076.000000
1100162.000000
1101173.000000
1102174.000000
1103115.000000
1104081.000000
1105054.000000
1106013.000000
1107026.000000
1108126.000000
1109147.000000
1110200.000000
1111211.000000
1112223.000000
1113248.000000
1114273.000000
1115306.000000
1116286.000000
1117269.000000
1118242.000000
1119202.000000
1120177.000000
1121139.000000
1122053.000000
1123018.000000
1124018.000000
1124992.000000
1126002.000000
1127007.000000
1127946.000000
1128872.000000
1129774.000000
1130680.000000
1131630.000000
1132570.000000
1133575.000000
1134589.000000
1135557.000000
1136564.000000
1137543.000000
1138530.000000
1139509.000000
1140453.000000
1141427.000000
1142405.000000
1143365.000000
1144341.000000
1145263.000000
1146229.000000
1147211.000000
1148122.000000
1149070.000000
1149998.000000
1150906.000000
1151848.000000
1152802.000000
1153705.000000
1154633.000000
1155556.000000
1156479.000000
1157434.000000
1158370.000000
1159332.000000
1160303.000000
1161260.000000
1162207.000000
1163146.000000
1163997.000000
1164888.000000
1165814.000000
1166739.000000
1167727.000000
1168694.000000
1169640.000000
1170595.000000
1171505.000000
1172432.000000
1173366.000000
1174238.000000
1175123.000000
1176125.000000
1177168.000000
1178175.000000
1179189.000000
1180143.000000
1181076.000000
1182029.000000
1182956.000000
1183997.000000
1185092.000000
1186149.000000
1187203.000000
1188282.000000
1189409.000000
1190502.000000
1191507.000000
1192516.000000
1193459.000000
1194315.000000
