ECG (ms)
505.000000
1340.000000
2259.000000
3196.000000
4082.000000
4968.000000
5900.000000
6834.000000
7693.000000
8584.000000
9490.000000
10367.000000
11210.000000
12087.000000
12990.000000
13893.000000
14751.000000
15625.000000
16492.000000
17343.000000
18226.000000
19161.000000
20101.000000
20960.000000
21905.000000
22831.000000
23725.000000
24591.000000
25526.000000
26498.000000
27459.000000
28331.000000
29236.000000
30117.000000
31008.000000
31842.000000
32654.000000
33505.000000
34376.000000
35257.000000
36088.000000
36929.000000
37775.000000
38580.000000
39386.000000
40218.000000
41059.000000
41852.000000
42661.000000
43484.000000
44302.000000
45105.000000
45913.000000
46759.000000
47582.000000
48368.000000
49136.000000
49943.000000
50795.000000
51625.000000
52426.000000
53267.000000
54171.000000
55068.000000
55937.000000
56819.000000
57692.000000
58513.000000
59330.000000
60178.000000
61135.000000
62001.000000
62866.000000
63768.000000
64599.000000
65458.000000
66359.000000
67255.000000
68131.000000
69007.000000
69907.000000
70780.000000
71699.000000
72566.000000
73412.000000
74268.000000
75079.000000
75826.000000
76572.000000
77374.000000
78185.000000
78994.000000
79802.000000
80619.000000
81427.000000
82286.000000
83177.000000
84015.000000
84836.000000
85657.000000
86513.000000
87340.000000
88180.000000
89014.000000
89864.000000
90709.000000
91563.000000
92360.000000
93143.000000
93961.000000
94841.000000
95632.000000
96428.000000
97229.000000
98013.000000
98809.000000
99597.000000
100414.000000
101193.000000
101978.000000
102733.000000
103466.000000
104223.000000
104969.000000
105731.000000
106481.000000
107258.000000
108019.000000
108724.000000
109464.000000
110277.000000
111048.000000
111842.000000
112663.000000
113406.000000
114150.000000
114902.000000
115703.000000
116498.000000
117245.000000
118009.000000
118829.000000
119614.000000
120369.000000
121119.000000
121884.000000
122655.000000
123507.000000
124316.000000
125111.000000
125917.000000
126702.000000
127486.000000
128266.000000
129034.000000
129826.000000
130644.000000
131439.000000
132202.000000
133023.000000
133817.000000
134580.000000
135355.000000
136140.000000
136942.000000
137740.000000
138544.000000
139369.000000
140179.000000
141029.000000
141863.000000
142696.000000
143484.000000
144263.000000
145070.000000
145900.000000
146714.000000
147578.000000
148410.000000
149230.000000
150075.000000
150900.000000
151684.000000
152506.000000
153326.000000
154146.000000
154956.000000
155783.000000
156609.000000
157416.000000
158225.000000
159062.000000
159927.000000
160771.000000
161612.000000
162427.000000
163241.000000
164051.000000
164854.000000
165634.000000
166454.000000
167293.000000
168102.000000
168934.000000
169776.000000
170615.000000
171404.000000
172193.000000
173004.000000
173852.000000
174698.000000
175610.000000
176547.000000
177384.000000
178136.000000
178883.000000
179702.000000
180531.000000
181398.000000
182255.000000
183066.000000
183891.000000
184694.000000
185489.000000
186277.000000
187064.000000
187888.000000
188674.000000
189471.000000
190297.000000
191088.000000
191863.000000
192627.000000
193396.000000
194152.000000
194917.000000
195681.000000
196481.000000
197256.000000
198039.000000
198827.000000
199606.000000
200388.000000
201183.000000
201975.000000
202735.000000
203503.000000
204302.000000
205127.000000
205942.000000
206775.000000
207603.000000
208396.000000
209228.000000
210057.000000
210855.000000
211657.000000
212452.000000
213242.000000
214009.000000
214780.000000
215569.000000
216376.000000
217171.000000
217979.000000
218806.000000
219591.000000
220369.000000
221156.000000
221957.000000
222720.000000
223558.000000
224405.000000
225209.000000
226009.000000
226805.000000
227659.000000
228492.000000
229345.000000
230192.000000
231011.000000
231834.000000
232704.000000
233620.000000
234504.000000
235324.000000
236170.000000
237021.000000
237834.000000
238674.000000
239509.000000
240304.000000
241099.000000
241885.000000
242675.000000
243471.000000
244266.000000
245073.000000
245848.000000
246623.000000
247421.000000
248217.000000
249044.000000
249852.000000
250676.000000
251449.000000
252168.000000
252927.000000
253727.000000
254525.000000
255320.000000
256091.000000
256877.000000
257662.000000
258482.000000
259283.000000
260115.000000
260955.000000
261752.000000
262558.000000
263389.000000
264217.000000
265008.000000
265813.000000
266635.000000
267430.000000
268210.000000
268990.000000
269769.000000
270541.000000
271289.000000
272052.000000
272841.000000
273606.000000
274369.000000
275150.000000
275923.000000
276679.000000
277445.000000
278216.000000
278969.000000
279751.000000
280540.000000
281300.000000
282058.000000
282829.000000
283629.000000
284412.000000
285198.000000
286000.000000
286781.000000
287573.000000
288370.000000
289159.000000
289945.000000
290767.000000
291588.000000
292366.000000
293193.000000
294023.000000
294842.000000
295619.000000
296398.000000
297198.000000
297985.000000
298779.000000
299608.000000
300441.000000
301257.000000
302087.000000
302946.000000
303784.000000
304595.000000
305395.000000
306253.000000
307093.000000
307948.000000
308824.000000
309663.000000
310525.000000
311403.000000
312244.000000
313092.000000
313941.000000
314767.000000
315534.000000
316300.000000
317056.000000
317756.000000
318465.000000
319214.000000
319992.000000
320777.000000
321560.000000
322334.000000
323102.000000
323872.000000
324663.000000
325429.000000
326192.000000
326966.000000
327786.000000
328584.000000
329364.000000
330146.000000
330950.000000
331748.000000
332517.000000
333301.000000
334100.000000
334880.000000
335633.000000
336400.000000
337177.000000
337934.000000
338668.000000
339413.000000
340185.000000
340950.000000
341738.000000
342538.000000
343328.000000
344109.000000
344910.000000
345725.000000
346518.000000
347312.000000
348119.000000
348904.000000
349683.000000
350480.000000
351282.000000
352063.000000
352859.000000
353646.000000
354449.000000
355220.000000
355993.000000
356751.000000
357492.000000
358214.000000
358953.000000
359754.000000
360542.000000
361322.000000
362121.000000
363008.000000
363814.000000
364595.000000
365380.000000
366146.000000
366905.000000
367671.000000
368526.000000
369391.000000
370192.000000
370950.000000
371692.000000
372457.000000
373268.000000
374128.000000
374969.000000
375769.000000
376571.000000
377368.000000
378179.000000
378966.000000
379753.000000
380557.000000
381358.000000
382152.000000
382917.000000
383625.000000
384362.000000
385103.000000
385839.000000
386591.000000
387371.000000
388137.000000
388873.000000
389672.000000
390463.000000
391221.000000
391966.000000
392730.000000
393528.000000
394325.000000
395120.000000
395919.000000
396745.000000
397539.000000
398317.000000
399105.000000
399908.000000
400702.000000
401488.000000
402275.000000
403065.000000
403833.000000
404626.000000
405433.000000
406199.000000
407008.000000
407878.000000
408708.000000
409491.000000
410282.000000
411119.000000
411913.000000
412713.000000
413516.000000
414279.000000
415024.000000
415734.000000
416432.000000
417160.000000
417892.000000
418638.000000
419422.000000
420212.000000
420963.000000
421699.000000
422448.000000
423199.000000
423937.000000
424684.000000
425464.000000
426259.000000
427120.000000
427975.000000
428829.000000
429659.000000
430457.000000
431227.000000
432003.000000
432818.000000
433661.000000
434539.000000
435420.000000
436268.000000
437073.000000
437872.000000
438674.000000
439469.000000
440272.000000
441090.000000
441983.000000
442818.000000
443648.000000
444446.000000
445256.000000
446043.000000
446831.000000
447685.000000
448508.000000
449294.000000
450140.000000
451014.000000
451823.000000
452641.000000
453472.000000
454296.000000
455093.000000
455884.000000
456690.000000
457470.000000
458265.000000
459091.000000
459889.000000
460675.000000
461471.000000
462309.000000
463095.000000
463891.000000
464709.000000
465560.000000
466403.000000
467296.000000
468190.000000
469010.000000
469810.000000
470645.000000
471519.000000
472346.000000
473166.000000
474011.000000
474839.000000
475644.000000
476450.000000
477265.000000
478078.000000
478877.000000
479631.000000
480377.000000
481156.000000
481926.000000
482630.000000
483353.000000
484184.000000
484959.000000
485732.000000
486531.000000
487350.000000
488152.000000
488924.000000
489702.000000
490509.000000
491302.000000
492094.000000
492904.000000
493762.000000
494564.000000
495359.000000
496180.000000
496976.000000
497774.000000
498579.000000
499438.000000
500298.000000
501192.000000
502069.000000
502929.000000
503767.000000
504616.000000
505471.000000
506299.000000
507155.000000
508002.000000
508862.000000
509674.000000
510503.000000
511329.000000
512141.000000
512946.000000
513752.000000
514576.000000
515373.000000
516141.000000
516929.000000
517769.000000
518585.000000
519411.000000
520201.000000
520986.000000
521744.000000
522523.000000
523330.000000
524109.000000
524896.000000
525694.000000
526515.000000
527309.000000
528085.000000
528878.000000
529699.000000
530481.000000
531274.000000
532072.000000
532866.000000
533646.000000
534442.000000
535240.000000
536027.000000
536795.000000
537582.000000
538409.000000
539210.000000
540013.000000
540826.000000
541629.000000
542415.000000
543249.000000
544083.000000
544892.000000
545739.000000
546618.000000
547509.000000
548336.000000
549158.000000
549986.000000
550802.000000
551595.000000
552391.000000
553231.000000
554017.000000
554806.000000
555614.000000
556412.000000
557194.000000
557959.000000
558738.000000
559500.000000
560278.000000
561057.000000
561841.000000
562626.000000
563425.000000
564246.000000
565019.000000
565805.000000
566593.000000
567366.000000
568160.000000
568942.000000
569712.000000
570476.000000
571263.000000
572069.000000
572852.000000
573664.000000
574474.000000
575265.000000
576023.000000
576818.000000
577620.000000
578428.000000
579199.000000
579975.000000
580722.000000
581456.000000
582146.000000
582840.000000
583594.000000
584339.000000
585093.000000
585865.000000
586648.000000
587394.000000
588138.000000
588893.000000
589644.000000
590384.000000
591131.000000
591890.000000
592673.000000
593440.000000
594214.000000
595010.000000
595770.000000
596529.000000
597323.000000
598109.000000
598879.000000
599654.000000
600438.000000
601220.000000
601994.000000
602768.000000
603553.000000
604337.000000
605099.000000
605881.000000
606746.000000
607549.000000
608315.000000
609122.000000
609973.000000
610779.000000
611597.000000
612489.000000
613387.000000
614234.000000
615085.000000
615899.000000
616700.000000
617500.000000
618354.000000
619176.000000
619997.000000
620826.000000
621610.000000
622407.000000
623220.000000
624024.000000
624808.000000
625593.000000
626379.000000
627153.000000
627934.000000
628727.000000
629505.000000
630282.000000
631062.000000
631856.000000
632632.000000
633445.000000
634279.000000
635073.000000
635828.000000
636587.000000
637355.000000
638125.000000
638930.000000
639733.000000
640535.000000
641322.000000
642117.000000
642914.000000
643694.000000
644489.000000
645292.000000
646076.000000
646851.000000
647656.000000
648457.000000
649228.000000
650003.000000
650773.000000
651556.000000
652324.000000
653097.000000
653887.000000
654677.000000
655507.000000
656330.000000
657142.000000
657949.000000
658752.000000
659556.000000
660365.000000
661168.000000
661989.000000
662841.000000
663668.000000
664521.000000
665376.000000
666231.000000
667040.000000
667849.000000
668666.000000
669460.000000
670262.000000
671079.000000
671869.000000
672667.000000
673468.000000
674286.000000
675047.000000
675774.000000
676483.000000
677243.000000
678075.000000
678905.000000
679765.000000
680643.000000
681543.000000
682367.000000
683162.000000
683982.000000
684796.000000
685637.000000
686480.000000
687334.000000
688143.000000
688979.000000
689851.000000
690786.000000
691645.000000
692451.000000
693236.000000
694037.000000
694882.000000
695729.000000
696563.000000
697375.000000
698213.000000
699043.000000
699806.000000
700564.000000
701327.000000
702066.000000
702803.000000
703559.000000
704392.000000
705180.000000
705993.000000
706807.000000
707607.000000
708372.000000
709099.000000
709836.000000
710608.000000
711429.000000
712226.000000
713020.000000
713814.000000
714562.000000
715300.000000
715993.000000
716690.000000
717415.000000
718160.000000
718892.000000
719622.000000
720340.000000
721056.000000
721771.000000
722487.000000
723200.000000
723918.000000
724618.000000
725322.000000
726028.000000
726728.000000
727407.000000
728085.000000
728742.000000
729416.000000
730126.000000
730837.000000
731553.000000
732289.000000
733028.000000
733755.000000
734493.000000
735233.000000
735963.000000
736684.000000
737409.000000
738140.000000
738858.000000
739573.000000
740282.000000
740994.000000
741709.000000
742432.000000
743171.000000
743893.000000
744609.000000
745280.000000
745945.000000
746617.000000
747284.000000
747961.000000
748664.000000
749392.000000
750113.000000
750848.000000
751570.000000
752302.000000
753028.000000
753742.000000
754447.000000
755147.000000
755865.000000
756543.000000
757216.000000
757924.000000
758642.000000
759374.000000
760127.000000
760913.000000
761665.000000
762422.000000
763185.000000
763970.000000
764708.000000
765473.000000
766254.000000
767017.000000
767765.000000
768523.000000
769291.000000
770026.000000
770772.000000
771539.000000
772327.000000
773093.000000
773880.000000
774691.000000
775517.000000
776305.000000
777067.000000
777827.000000
778591.000000
779336.000000
780087.000000
780869.000000
781674.000000
782451.000000
783242.000000
784037.000000
784814.000000
785583.000000
786351.000000
787126.000000
787894.000000
788670.000000
789463.000000
790287.000000
791097.000000
791906.000000
792717.000000
793501.000000
794309.000000
795132.000000
795916.000000
796714.000000
797501.000000
798297.000000
799067.000000
799858.000000
800678.000000
801495.000000
802300.000000
803123.000000
803984.000000
804793.000000
805605.000000
806418.000000
807210.000000
807999.000000
808813.000000
809634.000000
810423.000000
811227.000000
812057.000000
812847.000000
813634.000000
814431.000000
815253.000000
816039.000000
816824.000000
817650.000000
818448.000000
819246.000000
820041.000000
820914.000000
821740.000000
822559.000000
823438.000000
824274.000000
825061.000000
825840.000000
826632.000000
827442.000000
828210.000000
828958.000000
829666.000000
830412.000000
831209.000000
831975.000000
832755.000000
833551.000000
834340.000000
835096.000000
835877.000000
836652.000000
837408.000000
838171.000000
838949.000000
839760.000000
840554.000000
841348.000000
842153.000000
842977.000000
843774.000000
844608.000000
845418.000000
846189.000000
846958.000000
847729.000000
848544.000000
849340.000000
850125.000000
850923.000000
851772.000000
852590.000000
853393.000000
854206.000000
855013.000000
855781.000000
856556.000000
857342.000000
858154.000000
858921.000000
859713.000000
860568.000000
861441.000000
862246.000000
863048.000000
863873.000000
864612.000000
865345.000000
866103.000000
866876.000000
867676.000000
868493.000000
869271.000000
870001.000000
870720.000000
871481.000000
872299.000000
873138.000000
873977.000000
874804.000000
875593.000000
876390.000000
877183.000000
877981.000000
878777.000000
879581.000000
880396.000000
881192.000000
881956.000000
882702.000000
883413.000000
884176.000000
884966.000000
885737.000000
886543.000000
887394.000000
888285.000000
889120.000000
889970.000000
890836.000000
891703.000000
892513.000000
893338.000000
894187.000000
895041.000000
895850.000000
896639.000000
897416.000000
898235.000000
899041.000000
899856.000000
