ECG (ms)
397.000000
1202.000000
2006.000000
2820.000000
3662.000000
4501.000000
5282.000000
5971.000000
6656.000000
7385.000000
8203.000000
9022.000000
9791.000000
10562.000000
11339.000000
12092.000000
12824.000000
13579.000000
14376.000000
15118.000000
15853.000000
16606.000000
17415.000000
18212.000000
18974.000000
19772.000000
20626.000000
21457.000000
22220.000000
22975.000000
23776.000000
24616.000000
25385.000000
26119.000000
26890.000000
27706.000000
28489.000000
29245.000000
30024.000000
30863.000000
31729.000000
32586.000000
33392.000000
34154.000000
34932.000000
35752.000000
36596.000000
37391.000000
38165.000000
38948.000000
39748.000000
40503.000000
41257.000000
42026.000000
42817.000000
43571.000000
44340.000000
45140.000000
45968.000000
46730.000000
47468.000000
48226.000000
49028.000000
49792.000000
50535.000000
51322.000000
52155.000000
52959.000000
53711.000000
54486.000000
55270.000000
56085.000000
56842.000000
57619.000000
58444.000000
59304.000000
60112.000000
60886.000000
61687.000000
62523.000000
63297.000000
64045.000000
64818.000000
65627.000000
66446.000000
67202.000000
67922.000000
68646.000000
69401.000000
70202.000000
70970.000000
71717.000000
72487.000000
73274.000000
74029.000000
74758.000000
75511.000000
76302.000000
77077.000000
77801.000000
78533.000000
79288.000000
80101.000000
80872.000000
81596.000000
82361.000000
83204.000000
84058.000000
84846.000000
85646.000000
86482.000000
87298.000000
88071.000000
88871.000000
89743.000000
90632.000000
91451.000000
92252.000000
93061.000000
93892.000000
94690.000000
95463.000000
96283.000000
97154.000000
97981.000000
98776.000000
99601.000000
100431.000000
101205.000000
101977.000000
102783.000000
103595.000000
104372.000000
105141.000000
105950.000000
106786.000000
107566.000000
108327.000000
109096.000000
109885.000000
110614.000000
111338.000000
112076.000000
112828.000000
113571.000000
114295.000000
115034.000000
115774.000000
116509.000000
117234.000000
117949.000000
118645.000000
119292.000000
119942.000000
120615.000000
121321.000000
122164.000000
122958.000000
123705.000000
124479.000000
125312.000000
126154.000000
126909.000000
127672.000000
128460.000000
129242.000000
129980.000000
130739.000000
131558.000000
132417.000000
133202.000000
133962.000000
134768.000000
135618.000000
136414.000000
137173.000000
137955.000000
138748.000000
139500.000000
140247.000000
141024.000000
141816.000000
142561.000000
143297.000000
144055.000000
144868.000000
145629.000000
146369.000000
147148.000000
148001.000000
148802.000000
149580.000000
150398.000000
151231.000000
152004.000000
152765.000000
153563.000000
154371.000000
155141.000000
155905.000000
156707.000000
157551.000000
158330.000000
159119.000000
159937.000000
160763.000000
161526.000000
162291.000000
163079.000000
163925.000000
164729.000000
165496.000000
166323.000000
167187.000000
168059.000000
168862.000000
169644.000000
170468.000000
171332.000000
172135.000000
172912.000000
173737.000000
174612.000000
175450.000000
176302.000000
177183.000000
178069.000000
178909.000000
179734.000000
180554.000000
181360.000000
182110.000000
182875.000000
183655.000000
184467.000000
185266.000000
186016.000000
186788.000000
187599.000000
188402.000000
189149.000000
189895.000000
190663.000000
191458.000000
192248.000000
192987.000000
193766.000000
194572.000000
195358.000000
196118.000000
196933.000000
197771.000000
198613.000000
199425.000000
200178.000000
200939.000000
201721.000000
202516.000000
203338.000000
204113.000000
204847.000000
205604.000000
206399.000000
207193.000000
207934.000000
208658.000000
209400.000000
210190.000000
210938.000000
211687.000000
212481.000000
213347.000000
214134.000000
214910.000000
215695.000000
216503.000000
217271.000000
218032.000000
218844.000000
219705.000000
220561.000000
221391.000000
222168.000000
222948.000000
223771.000000
224604.000000
225369.000000
226124.000000
226905.000000
227773.000000
228646.000000
229480.000000
230246.000000
231022.000000
231832.000000
232692.000000
233470.000000
234232.000000
235019.000000
235841.000000
236637.000000
237418.000000
238232.000000
239086.000000
239867.000000
240623.000000
241405.000000
242242.000000
243049.000000
243803.000000
244575.000000
245369.000000
246207.000000
246981.000000
247741.000000
248551.000000
249398.000000
250188.000000
250950.000000
251725.000000
252516.000000
253267.000000
254039.000000
254853.000000
255705.000000
256487.000000
257264.000000
258110.000000
258959.000000
259737.000000
260506.000000
261354.000000
262227.000000
263053.000000
263887.000000
264757.000000
265636.000000
266463.000000
267288.000000
268126.000000
268972.000000
269789.000000
270568.000000
271367.000000
272227.000000
273022.000000
273768.000000
274533.000000
275329.000000
276088.000000
276832.000000
277599.000000
278390.000000
279171.000000
279912.000000
280683.000000
281488.000000
282303.000000
283074.000000
283866.000000
284681.000000
285500.000000
286249.000000
286989.000000
287743.000000
288538.000000
289301.000000
290045.000000
290836.000000
291676.000000
292518.000000
293291.000000
294057.000000
294854.000000
295663.000000
296421.000000
297166.000000
297948.000000
298768.000000
299525.000000
300267.000000
301058.000000
301887.000000
302658.000000
303412.000000
304185.000000
304966.000000
305700.000000
306434.000000
307196.000000
308002.000000
308766.000000
309525.000000
310340.000000
311216.000000
312037.000000
312812.000000
313613.000000
314445.000000
315224.000000
315964.000000
316708.000000
317454.000000
318153.000000
318858.000000
319574.000000
320318.000000
321030.000000
321699.000000
322389.000000
323104.000000
323816.000000
324558.000000
325358.000000
326199.000000
326980.000000
327727.000000
328492.000000
329286.000000
330114.000000
330874.000000
331613.000000
332375.000000
333179.000000
334009.000000
334763.000000
335508.000000
336301.000000
337133.000000
337948.000000
338706.000000
339507.000000
340352.000000
341212.000000
342007.000000
342793.000000
343615.000000
344454.000000
345235.000000
346014.000000
346827.000000
347646.000000
348412.000000
349190.000000
350007.000000
350845.000000
351607.000000
352354.000000
353118.000000
353896.000000
354644.000000
355402.000000
356203.000000
357050.000000
357811.000000
358558.000000
359311.000000
360079.000000
360810.000000
361548.000000
362307.000000
363115.000000
363849.000000
364593.000000
365363.000000
366175.000000
366924.000000
367662.000000
368424.000000
369213.000000
369950.000000
370693.000000
371467.000000
372240.000000
372973.000000
373703.000000
374441.000000
375202.000000
375925.000000
376636.000000
377369.000000
378128.000000
378859.000000
379597.000000
380362.000000
381129.000000
381858.000000
382588.000000
383349.000000
384126.000000
384863.000000
385583.000000
386328.000000
387114.000000
387889.000000
388646.000000
389443.000000
390266.000000
391034.000000
391770.000000
392517.000000
393298.000000
394105.000000
394865.000000
395617.000000
396392.000000
397191.000000
397953.000000
398686.000000
399438.000000
400217.000000
401015.000000
401750.000000
402497.000000
403284.000000
404102.000000
404875.000000
405620.000000
406399.000000
407199.000000
407980.000000
408748.000000
409557.000000
410379.000000
411129.000000
411888.000000
412694.000000
413558.000000
414352.000000
415130.000000
415949.000000
416832.000000
417655.000000
418446.000000
419271.000000
420122.000000
420925.000000
421696.000000
422499.000000
423343.000000
424137.000000
424926.000000
425763.000000
426596.000000
427367.000000
428128.000000
428891.000000
429680.000000
430437.000000
431176.000000
431969.000000
432864.000000
433719.000000
434518.000000
435324.000000
436163.000000
436970.000000
437764.000000
438605.000000
439461.000000
440266.000000
441067.000000
441918.000000
442745.000000
443520.000000
444310.000000
445168.000000
446020.000000
446806.000000
447578.000000
448389.000000
449242.000000
450033.000000
450808.000000
451589.000000
452386.000000
453145.000000
453830.000000
454504.000000
455205.000000
455928.000000
456679.000000
457477.000000
458333.000000
459156.000000
459945.000000
460769.000000
461635.000000
462453.000000
463225.000000
464033.000000
464877.000000
465719.000000
466505.000000
467288.000000
468112.000000
468975.000000
469788.000000
470596.000000
471449.000000
472269.000000
473033.000000
473791.000000
474594.000000
475447.000000
476290.000000
477112.000000
477966.000000
478829.000000
479665.000000
480447.000000
481230.000000
482046.000000
482859.000000
483614.000000
484381.000000
485192.000000
486042.000000
486825.000000
487618.000000
488479.000000
489350.000000
490160.000000
490963.000000
491801.000000
492650.000000
493439.000000
494218.000000
495042.000000
495896.000000
496682.000000
497442.000000
498226.000000
499077.000000
499940.000000
500777.000000
501574.000000
502392.000000
503235.000000
504025.000000
504790.000000
505564.000000
506371.000000
507146.000000
507873.000000
508626.000000
509421.000000
510244.000000
511007.000000
511773.000000
512572.000000
513375.000000
514125.000000
514879.000000
515683.000000
516509.000000
517312.000000
518058.000000
518785.000000
519523.000000
520296.000000
521052.000000
521781.000000
522565.000000
523374.000000
524164.000000
524897.000000
525638.000000
526349.000000
527006.000000
527660.000000
528343.000000
529109.000000
529908.000000
530654.000000
531416.000000
532200.000000
532938.000000
533671.000000
534461.000000
535278.000000
536019.000000
536752.000000
537524.000000
538338.000000
539171.000000
539927.000000
540664.000000
541434.000000
542269.000000
543126.000000
543905.000000
544664.000000
545439.000000
546243.000000
547013.000000
547750.000000
548495.000000
549275.000000
550030.000000
550766.000000
551542.000000
552380.000000
553171.000000
553916.000000
554685.000000
555499.000000
556328.000000
557094.000000
557875.000000
558720.000000
559534.000000
560290.000000
561048.000000
561832.000000
562628.000000
563373.000000
564102.000000
564864.000000
565668.000000
566491.000000
567246.000000
568015.000000
568865.000000
569710.000000
570482.000000
571257.000000
572062.000000
572875.000000
573653.000000
574395.000000
575163.000000
575976.000000
576781.000000
577543.000000
578346.000000
579212.000000
580023.000000
580794.000000
581576.000000
582384.000000
583152.000000
583917.000000
584714.000000
585546.000000
586327.000000
587090.000000
587878.000000
588695.000000
589477.000000
590219.000000
590987.000000
591804.000000
592580.000000
593329.000000
594125.000000
594957.000000
595823.000000
596654.000000
597458.000000
598281.000000
599115.000000
599937.000000
