ECG (ms)
295.000000
1244.000000
2197.000000
3140.000000
4067.000000
5000.000000
5939.000000
6880.000000
7801.000000
8734.000000
9702.000000
10662.000000
11610.000000
12565.000000
13544.000000
14518.000000
15472.000000
16434.000000
17394.000000
18343.000000
19294.000000
20247.000000
21196.000000
22143.000000
23092.000000
24051.000000
25002.000000
25961.000000
26928.000000
27884.000000
28854.000000
29824.000000
30786.000000
31747.000000
32706.000000
33655.000000
34581.000000
35524.000000
36470.000000
37402.000000
38328.000000
39286.000000
40257.000000
41246.000000
42238.000000
43211.000000
44148.000000
45086.000000
46016.000000
46922.000000
47816.000000
48716.000000
49616.000000
50514.000000
51424.000000
52346.000000
53271.000000
54189.000000
55122.000000
56059.000000
56982.000000
57923.000000
58884.000000
59839.000000
60784.000000
61754.000000
62708.000000
63650.000000
64612.000000
65585.000000
66547.000000
67501.000000
68466.000000
69414.000000
70364.000000
71327.000000
72279.000000
73216.000000
74162.000000
75103.000000
76039.000000
76968.000000
77919.000000
78873.000000
79812.000000
80754.000000
81693.000000
82623.000000
83531.000000
84448.000000
85363.000000
86265.000000
87168.000000
88095.000000
89035.000000
89964.000000
90902.000000
91843.000000
92774.000000
93702.000000
94661.000000
95623.000000
96544.000000
97465.000000
98390.000000
99306.000000
100216.000000
101192.000000
102117.000000
103020.000000
103931.000000
104845.000000
105755.000000
106651.000000
107567.000000
108484.000000
109390.000000
110319.000000
111272.000000
112212.000000
113138.000000
114069.000000
114997.000000
115912.000000
116844.000000
117790.000000
118736.000000
119679.000000
120627.000000
121579.000000
122522.000000
123445.000000
124371.000000
125295.000000
126205.000000
127109.000000
128031.000000
128949.000000
129862.000000
130764.000000
131684.000000
132613.000000
133555.000000
134486.000000
135425.000000
136365.000000
137288.000000
138216.000000
139141.000000
140054.000000
140958.000000
141881.000000
142797.000000
143733.000000
144663.000000
145613.000000
146543.000000
147477.000000
148415.000000
149334.000000
150248.000000
151145.000000
152033.000000
152917.000000
153796.000000
154692.000000
155608.000000
156522.000000
157443.000000
158373.000000
159304.000000
160216.000000
161141.000000
162064.000000
162975.000000
163865.000000
164753.000000
165644.000000
166525.000000
167401.000000
168295.000000
169187.000000
170078.000000
170977.000000
171869.000000
172755.000000
173646.000000
174536.000000
175420.000000
176305.000000
177195.000000
178083.000000
178989.000000
179940.000000
180886.000000
181821.000000
182755.000000
183680.000000
184585.000000
185483.000000
186383.000000
187281.000000
188174.000000
189064.000000
189909.000000
190745.000000
191615.000000
192499.000000
193387.000000
194292.000000
195213.000000
196115.000000
197011.000000
197906.000000
198775.000000
199646.000000
200527.000000
201432.000000
202354.000000
203309.000000
204304.000000
205266.000000
206245.000000
207216.000000
208165.000000
209122.000000
210062.000000
210978.000000
211901.000000
212837.000000
213786.000000
214734.000000
215703.000000
216676.000000
217634.000000
218613.000000
219588.000000
220537.000000
221475.000000
222420.000000
223372.000000
224302.000000
225255.000000
226212.000000
227161.000000
228115.000000
229085.000000
230035.000000
230972.000000
231933.000000
232896.000000
233829.000000
234784.000000
235755.000000
236702.000000
237628.000000
238556.000000
239472.000000
240368.000000
241257.000000
242153.000000
243048.000000
243966.000000
244921.000000
245873.000000
246812.000000
247749.000000
248666.000000
249559.000000
250430.000000
251309.000000
252185.000000
253061.000000
253942.000000
254845.000000
255758.000000
256672.000000
257602.000000
258530.000000
259444.000000
260352.000000
261246.000000
262119.000000
262988.000000
263868.000000
264759.000000
265648.000000
266553.000000
267470.000000
268387.000000
269295.000000
270214.000000
271145.000000
272075.000000
272988.000000
273906.000000
274847.000000
275805.000000
276741.000000
277680.000000
278631.000000
279558.000000
280470.000000
281408.000000
282342.000000
283259.000000
284187.000000
285130.000000
286079.000000
287037.000000
287994.000000
288951.000000
289908.000000
290868.000000
291821.000000
292790.000000
293759.000000
294719.000000
295667.000000
296621.000000
297576.000000
298510.000000
299454.000000
300413.000000
301373.000000
302330.000000
303294.000000
304266.000000
305235.000000
306176.000000
307117.000000
308076.000000
309040.000000
309995.000000
310961.000000
311937.000000
312905.000000
313855.000000
314806.000000
315738.000000
316644.000000
317532.000000
318436.000000
319335.000000
320214.000000
321085.000000
321978.000000
322874.000000
323809.000000
324750.000000
325696.000000
326622.000000
327536.000000
328449.000000
329350.000000
330239.000000
331137.000000
332037.000000
332956.000000
333898.000000
334868.000000
335837.000000
336780.000000
337727.000000
338671.000000
339602.000000
340522.000000
341444.000000
342374.000000
343306.000000
344235.000000
345175.000000
346116.000000
347048.000000
347973.000000
348902.000000
349836.000000
350772.000000
351724.000000
352673.000000
353608.000000
354536.000000
355467.000000
356394.000000
357313.000000
358236.000000
359163.000000
360084.000000
361015.000000
361955.000000
362893.000000
363827.000000
364742.000000
365658.000000
366576.000000
367507.000000
368438.000000
369368.000000
370277.000000
371181.000000
372095.000000
373000.000000
373893.000000
374790.000000
375701.000000
376613.000000
377520.000000
378436.000000
379341.000000
380239.000000
381132.000000
382028.000000
382930.000000
383831.000000
384736.000000
385664.000000
386627.000000
387588.000000
388566.000000
389536.000000
390490.000000
391429.000000
392354.000000
393278.000000
394202.000000
395119.000000
396035.000000
396962.000000
397890.000000
398810.000000
399734.000000
400671.000000
401593.000000
402511.000000
403436.000000
404365.000000
405295.000000
406239.000000
407192.000000
408139.000000
409085.000000
410032.000000
410963.000000
411894.000000
412827.000000
413760.000000
414685.000000
415612.000000
416556.000000
417482.000000
418410.000000
419331.000000
420257.000000
421176.000000
422103.000000
423043.000000
423968.000000
424919.000000
425869.000000
426791.000000
427703.000000
428612.000000
429539.000000
430457.000000
431389.000000
432313.000000
433246.000000
434178.000000
435116.000000
436046.000000
436983.000000
437920.000000
438855.000000
439788.000000
440734.000000
441693.000000
442649.000000
443587.000000
444524.000000
445454.000000
446367.000000
447279.000000
448194.000000
449107.000000
450018.000000
450932.000000
451856.000000
452776.000000
453719.000000
454659.000000
455604.000000
456547.000000
457468.000000
458381.000000
459298.000000
460206.000000
461110.000000
462008.000000
462909.000000
463817.000000
464738.000000
465661.000000
466592.000000
467524.000000
468472.000000
469436.000000
470390.000000
471325.000000
472237.000000
473139.000000
474043.000000
474942.000000
475854.000000
476767.000000
477686.000000
478613.000000
479542.000000
480467.000000
481401.000000
482336.000000
483269.000000
484200.000000
485129.000000
486051.000000
486964.000000
487874.000000
488794.000000
489725.000000
490676.000000
491637.000000
492620.000000
493592.000000
494566.000000
495535.000000
496504.000000
497490.000000
498476.000000
499459.000000
500429.000000
501399.000000
502381.000000
503352.000000
504309.000000
505262.000000
506211.000000
507153.000000
508091.000000
509016.000000
509953.000000
510891.000000
511811.000000
512732.000000
513654.000000
514570.000000
515477.000000
516388.000000
517299.000000
518211.000000
519115.000000
520032.000000
520935.000000
521839.000000
522752.000000
523660.000000
524559.000000
525449.000000
526344.000000
527238.000000
528141.000000
529046.000000
529951.000000
530853.000000
531755.000000
532651.000000
533538.000000
534426.000000
535322.000000
536215.000000
537109.000000
538004.000000
538897.000000
539787.000000
540670.000000
541563.000000
542456.000000
543353.000000
544257.000000
545150.000000
546009.000000
546851.000000
547695.000000
548549.000000
549410.000000
550279.000000
551157.000000
552033.000000
552926.000000
553825.000000
554728.000000
555630.000000
556537.000000
557443.000000
558351.000000
559263.000000
560171.000000
561076.000000
561974.000000
562873.000000
563773.000000
564688.000000
565609.000000
566522.000000
567436.000000
568346.000000
569259.000000
570170.000000
571082.000000
571986.000000
572888.000000
573782.000000
574673.000000
575568.000000
576469.000000
577368.000000
578276.000000
579196.000000
580109.000000
581026.000000
581955.000000
582875.000000
583790.000000
584711.000000
585632.000000
586543.000000
587452.000000
588365.000000
589265.000000
590162.000000
591059.000000
591952.000000
592840.000000
593739.000000
594639.000000
595546.000000
596454.000000
597368.000000
598279.000000
599189.000000
600108.000000
601038.000000
601963.000000
602899.000000
603840.000000
604779.000000
605709.000000
606629.000000
607547.000000
608460.000000
609379.000000
610313.000000
611260.000000
612217.000000
613187.000000
614134.000000
615078.000000
616029.000000
616975.000000
617932.000000
618886.000000
619839.000000
620770.000000
621695.000000
622630.000000
623569.000000
624501.000000
625429.000000
626370.000000
627312.000000
628258.000000
629197.000000
630133.000000
631065.000000
632005.000000
632940.000000
633871.000000
634803.000000
635745.000000
636680.000000
637606.000000
638533.000000
639451.000000
640363.000000
641269.000000
642183.000000
643089.000000
643989.000000
644887.000000
645779.000000
646677.000000
647583.000000
648483.000000
649378.000000
650271.000000
651156.000000
652041.000000
652930.000000
653821.000000
654707.000000
655594.000000
656480.000000
657364.000000
658248.000000
659138.000000
660041.000000
660961.000000
661871.000000
662785.000000
663709.000000
664646.000000
665583.000000
666521.000000
667453.000000
668384.000000
669330.000000
670264.000000
671190.000000
672110.000000
673029.000000
673959.000000
674889.000000
675815.000000
676724.000000
677645.000000
678618.000000
679537.000000
680444.000000
681369.000000
682296.000000
683208.000000
684112.000000
685023.000000
685933.000000
686827.000000
687722.000000
688627.000000
689533.000000
690435.000000
691345.000000
692258.000000
693170.000000
694074.000000
694973.000000
695892.000000
696808.000000
697713.000000
698624.000000
699542.000000
700456.000000
701358.000000
702272.000000
703184.000000
704082.000000
704994.000000
705914.000000
706816.000000
707711.000000
708618.000000
709527.000000
710430.000000
711336.000000
712258.000000
713177.000000
714078.000000
714990.000000
715903.000000
716812.000000
717709.000000
718619.000000
719534.000000
720441.000000
721338.000000
722238.000000
723138.000000
724026.000000
724917.000000
725817.000000
726711.000000
727593.000000
728486.000000
729387.000000
730284.000000
731181.000000
732081.000000
732970.000000
733849.000000
734748.000000
735658.000000
736555.000000
737453.000000
738342.000000
739235.000000
740137.000000
741039.000000
741947.000000
742851.000000
743757.000000
744660.000000
745553.000000
746485.000000
747365.000000
748245.000000
749115.000000
749994.000000
750874.000000
751751.000000
752647.000000
753567.000000
754475.000000
755500.000000
756467.000000
757414.000000
758335.000000
759248.000000
760166.000000
761080.000000
761982.000000
762891.000000
763823.000000
764761.000000
765700.000000
766655.000000
767593.000000
768518.000000
769448.000000
770373.000000
771293.000000
772188.000000
773084.000000
773982.000000
774873.000000
775752.000000
776641.000000
777547.000000
778452.000000
779366.000000
780295.000000
781218.000000
782139.000000
783066.000000
783985.000000
784887.000000
785783.000000
786680.000000
787570.000000
788450.000000
789344.000000
790238.000000
791131.000000
792045.000000
792961.000000
793869.000000
794782.000000
795680.000000
796576.000000
797486.000000
798399.000000
799299.000000
800201.000000
801114.000000
802042.000000
802975.000000
803929.000000
804880.000000
805848.000000
806813.000000
807751.000000
808673.000000
809579.000000
810502.000000
811408.000000
812311.000000
813209.000000
814125.000000
815039.000000
815985.000000
816924.000000
817847.000000
818774.000000
819677.000000
820584.000000
821466.000000
822376.000000
823276.000000
824184.000000
825093.000000
826022.000000
826963.000000
827889.000000
828796.000000
829717.000000
830636.000000
831536.000000
832432.000000
833332.000000
834218.000000
835110.000000
836022.000000
836941.000000
837852.000000
838759.000000
839682.000000
840607.000000
841522.000000
842443.000000
843369.000000
844292.000000
845227.000000
846160.000000
847077.000000
847987.000000
848909.000000
849817.000000
850725.000000
851648.000000
852584.000000
853498.000000
854427.000000
855361.000000
856316.000000
857298.000000
858327.000000
859326.000000
860340.000000
861347.000000
862379.000000
863381.000000
864362.000000
865359.000000
866321.000000
867258.000000
868197.000000
869147.000000
870081.000000
871018.000000
871964.000000
872901.000000
873845.000000
874794.000000
875726.000000
876642.000000
877559.000000
878466.000000
879364.000000
880264.000000
881172.000000
882066.000000
882968.000000
883880.000000
884780.000000
885680.000000
886597.000000
887510.000000
888450.000000
889402.000000
890328.000000
891273.000000
892187.000000
893077.000000
893984.000000
894884.000000
895801.000000
896724.000000
897677.000000
898648.000000
899584.000000
900536.000000
