ECG (ms)
692.000000
1455.000000
2191.000000
2923.000000
3737.000000
4551.000000
5370.000000
6149.000000
6942.000000
7751.000000
8587.000000
9433.000000
10185.000000
10899.000000
11614.000000
12335.000000
13056.000000
13957.000000
14864.000000
15714.000000
16563.000000
17501.000000
18494.000000
19468.000000
20329.000000
21132.000000
22003.000000
22955.000000
23862.000000
24721.000000
25568.000000
26526.000000
27506.000000
28398.000000
29223.000000
30129.000000
31100.000000
32023.000000
32878.000000
33810.000000
34801.000000
35725.000000
36563.000000
37472.000000
38425.000000
39372.000000
40228.000000
41117.000000
42105.000000
43104.000000
43993.000000
44933.000000
45942.000000
46870.000000
47775.000000
48787.000000
49805.000000
50712.000000
51639.000000
52617.000000
53572.000000
54438.000000
55330.000000
56286.000000
57261.000000
58149.000000
59039.000000
60009.000000
60961.000000
61804.000000
62689.000000
63607.000000
64468.000000
65302.000000
66236.000000
67212.000000
68116.000000
68972.000000
69890.000000
70817.000000
71661.000000
72525.000000
73482.000000
74425.000000
75325.000000
76281.000000
77257.000000
78167.000000
79017.000000
79925.000000
80877.000000
81815.000000
82699.000000
83674.000000
84694.000000
85637.000000
86545.000000
87526.000000
88530.000000
89514.000000
90413.000000
91285.000000
92253.000000
93307.000000
94360.000000
95302.000000
96198.000000
97147.000000
98120.000000
99028.000000
99889.000000
100846.000000
101861.000000
102789.000000
103669.000000
104610.000000
105575.000000
106476.000000
107316.000000
108245.000000
109224.000000
110141.000000
111005.000000
111978.000000
112966.000000
113863.000000
114706.000000
115624.000000
116573.000000
117446.000000
118304.000000
119243.000000
120192.000000
121040.000000
121935.000000
122887.000000
123803.000000
124648.000000
125595.000000
126532.000000
127377.000000
128226.000000
129167.000000
130077.000000
130922.000000
131878.000000
132873.000000
133753.000000
134675.000000
135631.000000
136504.000000
137357.000000
138296.000000
139230.000000
140109.000000
141064.000000
142085.000000
143016.000000
143982.000000
144941.000000
145817.000000
146634.000000
147545.000000
148517.000000
149425.000000
150383.000000
151372.000000
152271.000000
153179.000000
154143.000000
155016.000000
155878.000000
156841.000000
157788.000000
158661.000000
159624.000000
160608.000000
161518.000000
162432.000000
163403.000000
164325.000000
165165.000000
166076.000000
167046.000000
167949.000000
168838.000000
169800.000000
170740.000000
171609.000000
172569.000000
173539.000000
174441.000000
175386.000000
176342.000000
177213.000000
178135.000000
179075.000000
179942.000000
180885.000000
181859.000000
182740.000000
183682.000000
184682.000000
185608.000000
186490.000000
187477.000000
188478.000000
189381.000000
190360.000000
191375.000000
192296.000000
193222.000000
194240.000000
195244.000000
196157.000000
197129.000000
198151.000000
199106.000000
199975.000000
200918.000000
201893.000000
202776.000000
203775.000000
204911.000000
205925.000000
206886.000000
207949.000000
208918.000000
209791.000000
210705.000000
211663.000000
212565.000000
213423.000000
214389.000000
215445.000000
216424.000000
217325.000000
218272.000000
219245.000000
220164.000000
221020.000000
221973.000000
222978.000000
223897.000000
224811.000000
225822.000000
226782.000000
227646.000000
228588.000000
229579.000000
230498.000000
231383.000000
232374.000000
233419.000000
234353.000000
235345.000000
236398.000000
237391.000000
238300.000000
239303.000000
240323.000000
241227.000000
242229.000000
243287.000000
244235.000000
245200.000000
246267.000000
247262.000000
248242.000000
249334.000000
250353.000000
251337.000000
252355.000000
253332.000000
254302.000000
255310.000000
256226.000000
257248.000000
258267.000000
259182.000000
260196.000000
261208.000000
262116.000000
263087.000000
264060.000000
264956.000000
265950.000000
266943.000000
267849.000000
268873.000000
269833.000000
270723.000000
271689.000000
272677.000000
273559.000000
274585.000000
275640.000000
276584.000000
277612.000000
278679.000000
279601.000000
280593.000000
281565.000000
282457.000000
283525.000000
284599.000000
285580.000000
286654.000000
287672.000000
288592.000000
289597.000000
290590.000000
291509.000000
292566.000000
293617.000000
294625.000000
295700.000000
296710.000000
297628.000000
298604.000000
299569.000000
300455.000000
301506.000000
302555.000000
303507.000000
304550.000000
305587.000000
306529.000000
307550.000000
308534.000000
309409.000000
310364.000000
311344.000000
312246.000000
313239.000000
314264.000000
315198.000000
316204.000000
317264.000000
318187.000000
319146.000000
320167.000000
321082.000000
321951.000000
322917.000000
323841.000000
324647.000000
325445.000000
326414.000000
327430.000000
328326.000000
329283.000000
330284.000000
331181.000000
332149.000000
333103.000000
333971.000000
334956.000000
335926.000000
336809.000000
337771.000000
338727.000000
339599.000000
340555.000000
341515.000000
342395.000000
343349.000000
344353.000000
345317.000000
346342.000000
347328.000000
348228.000000
349174.000000
350133.000000
351020.000000
352013.000000
352987.000000
353908.000000
354892.000000
355827.000000
356703.000000
357661.000000
358589.000000
359466.000000
360460.000000
361475.000000
362384.000000
363354.000000
364316.000000
365226.000000
366212.000000
367193.000000
368099.000000
369080.000000
370075.000000
370980.000000
371979.000000
372975.000000
373884.000000
374857.000000
375822.000000
376694.000000
377656.000000
378640.000000
379556.000000
380563.000000
381556.000000
382454.000000
383428.000000
384367.000000
385247.000000
386213.000000
387190.000000
388095.000000
389102.000000
390083.000000
390972.000000
391942.000000
392875.000000
393739.000000
394699.000000
395668.000000
396583.000000
397581.000000
398566.000000
399459.000000
400429.000000
401377.000000
402235.000000
403178.000000
404166.000000
405069.000000
406079.000000
407104.000000
408055.000000
409106.000000
410153.000000
411108.000000
412154.000000
413172.000000
414131.000000
415216.000000
416274.000000
417233.000000
418268.000000
419287.000000
420178.000000
421251.000000
422323.000000
423284.000000
424321.000000
425312.000000
426205.000000
427169.000000
428155.000000
429041.000000
430046.000000
431047.000000
431944.000000
432924.000000
433879.000000
434780.000000
435785.000000
436726.000000
437627.000000
438612.000000
439543.000000
440434.000000
441423.000000
442384.000000
443290.000000
444260.000000
445211.000000
446094.000000
447079.000000
448037.000000
448922.000000
449900.000000
450881.000000
451784.000000
452763.000000
453767.000000
454676.000000
455699.000000
456719.000000
457678.000000
458730.000000
459723.000000
460679.000000
461677.000000
462635.000000
463563.000000
464596.000000
465592.000000
466556.000000
467595.000000
468574.000000
469534.000000
470561.000000
471494.000000
472480.000000
473518.000000
474504.000000
475491.000000
476556.000000
477533.000000
478490.000000
479531.000000
480520.000000
481507.000000
482624.000000
483686.000000
484648.000000
485682.000000
486692.000000
487610.000000
488660.000000
489685.000000
490637.000000
491679.000000
492708.000000
493640.000000
494672.000000
495698.000000
496633.000000
497664.000000
498721.000000
499672.000000
500714.000000
501765.000000
502704.000000
503742.000000
504799.000000
505763.000000
506817.000000
507908.000000
508876.000000
509956.000000
511045.000000
512010.000000
513102.000000
514132.000000
515055.000000
516024.000000
517120.000000
518076.000000
519140.000000
520240.000000
521242.000000
522336.000000
523370.000000
524321.000000
525371.000000
526389.000000
527287.000000
528300.000000
529435.000000
530484.000000
531476.000000
532549.000000
533625.000000
534646.000000
535712.000000
536790.000000
537831.000000
538802.000000
539886.000000
540974.000000
541968.000000
543035.000000
544179.000000
545164.000000
546253.000000
547348.000000
548342.000000
549433.000000
550524.000000
551548.000000
552582.000000
553506.000000
554538.000000
555551.000000
556468.000000
557287.000000
558135.000000
559057.000000
559950.000000
560913.000000
561871.000000
562802.000000
563605.000000
564358.000000
565164.000000
566042.000000
567060.000000
568028.000000
568975.000000
569804.000000
570625.000000
571451.000000
572254.000000
573202.000000
574241.000000
575183.000000
576094.000000
577077.000000
578021.000000
578891.000000
579729.000000
580664.000000
581674.000000
582647.000000
583554.000000
584411.000000
585263.000000
586250.000000
587284.000000
588214.000000
589031.000000
589857.000000
590695.000000
591647.000000
592684.000000
593676.000000
594548.000000
595417.000000
596377.000000
597352.000000
598235.000000
599091.000000
600048.000000
601054.000000
602055.000000
602923.000000
603763.000000
604595.000000
605588.000000
606658.000000
607609.000000
608479.000000
609407.000000
610500.000000
611547.000000
612466.000000
613361.000000
614390.000000
615487.000000
616437.000000
617360.000000
618399.000000
619421.000000
620313.000000
621306.000000
622372.000000
623345.000000
624277.000000
625336.000000
626421.000000
627376.000000
628385.000000
629457.000000
630413.000000
631368.000000
632425.000000
633436.000000
634449.000000
635557.000000
636610.000000
637561.000000
638498.000000
639586.000000
640682.000000
641662.000000
642674.000000
643790.000000
644839.000000
645859.000000
646958.000000
647983.000000
648939.000000
650050.000000
651125.000000
652088.000000
653158.000000
654237.000000
655164.000000
656169.000000
657275.000000
658269.000000
659233.000000
660256.000000
661265.000000
662210.000000
663258.000000
664340.000000
665311.000000
666356.000000
667351.000000
668272.000000
669311.000000
670323.000000
671241.000000
672265.000000
673316.000000
674247.000000
675271.000000
676310.000000
677280.000000
678331.000000
679335.000000
680304.000000
681350.000000
682370.000000
683308.000000
684344.000000
685295.000000
686221.000000
687285.000000
688316.000000
689297.000000
690380.000000
691391.000000
692321.000000
693388.000000
694410.000000
695329.000000
696337.000000
697335.000000
698230.000000
699208.000000
700228.000000
701217.000000
702161.000000
703217.000000
704250.000000
705236.000000
706274.000000
707306.000000
708250.000000
709248.000000
710244.000000
711134.000000
712124.000000
713166.000000
714119.000000
715178.000000
716235.000000
717174.000000
718200.000000
719232.000000
720182.000000
721210.000000
722330.000000
723296.000000
724329.000000
725372.000000
726337.000000
727360.000000
728355.000000
729271.000000
730276.000000
731272.000000
732198.000000
733231.000000
734227.000000
735131.000000
736138.000000
737205.000000
738179.000000
739229.000000
740259.000000
741161.000000
742115.000000
743104.000000
744016.000000
745132.000000
746198.000000
747136.000000
748231.000000
749364.000000
750333.000000
751345.000000
752381.000000
753388.000000
754382.000000
755483.000000
756519.000000
757444.000000
758513.000000
759594.000000
760533.000000
761562.000000
762624.000000
763591.000000
764586.000000
765652.000000
766638.000000
767523.000000
768503.000000
769534.000000
770464.000000
771424.000000
772454.000000
773364.000000
774298.000000
775321.000000
776259.000000
777248.000000
778300.000000
779274.000000
780309.000000
781294.000000
782255.000000
783275.000000
784201.000000
785159.000000
786159.000000
787116.000000
788108.000000
789150.000000
790095.000000
791037.000000
792052.000000
793034.000000
793959.000000
794981.000000
795972.000000
796914.000000
797960.000000
799021.000000
799989.000000
801084.000000
802169.000000
803105.000000
804080.000000
805143.000000
806134.000000
807256.000000
808402.000000
809400.000000
810460.000000
811483.000000
812421.000000
813468.000000
814524.000000
815488.000000
816546.000000
817607.000000
818601.000000
819701.000000
820738.000000
821648.000000
822630.000000
823633.000000
824515.000000
825495.000000
826556.000000
827497.000000
828518.000000
829582.000000
830523.000000
831586.000000
832606.000000
833527.000000
834581.000000
835638.000000
836574.000000
837593.000000
838597.000000
839561.000000
840606.000000
841557.000000
842413.000000
843390.000000
844446.000000
845395.000000
846323.000000
847438.000000
848555.000000
849565.000000
850606.000000
851703.000000
852757.000000
853709.000000
854731.000000
855814.000000
856808.000000
857893.000000
859003.000000
859996.000000
861044.000000
862073.000000
863085.000000
864176.000000
865223.000000
866205.000000
867348.000000
868380.000000
869410.000000
870503.000000
871503.000000
872482.000000
873562.000000
874571.000000
875641.000000
876766.000000
877766.000000
878788.000000
879839.000000
880798.000000
881787.000000
882840.000000
883806.000000
884905.000000
886064.000000
887058.000000
888094.000000
889170.000000
890153.000000
891054.000000
892064.000000
893150.000000
894139.000000
895241.000000
896344.000000
897329.000000
898386.000000
899422.000000
900370.000000
901462.000000
902547.000000
903514.000000
904505.000000
905564.000000
906518.000000
907544.000000
908590.000000
909535.000000
910519.000000
911507.000000
912440.000000
913461.000000
914480.000000
915371.000000
916315.000000
917327.000000
918265.000000
919250.000000
920249.000000
921161.000000
922160.000000
923152.000000
924092.000000
925114.000000
926133.000000
927053.000000
928061.000000
929062.000000
930032.000000
931092.000000
932141.000000
933118.000000
934196.000000
935278.000000
936266.000000
937345.000000
938427.000000
939408.000000
940522.000000
941673.000000
942676.000000
943670.000000
944647.000000
945524.000000
946438.000000
947276.000000
948246.000000
949185.000000
950252.000000
951372.000000
952306.000000
953314.000000
954370.000000
955321.000000
956325.000000
957408.000000
958401.000000
959417.000000
960553.000000
961636.000000
962610.000000
963637.000000
964650.000000
965629.000000
966750.000000
967854.000000
968814.000000
969872.000000
970876.000000
971756.000000
972739.000000
973819.000000
974787.000000
975962.000000
977112.000000
978127.000000
979250.000000
980392.000000
981426.000000
982556.000000
983703.000000
984760.000000
985827.000000
986900.000000
987854.000000
988952.000000
990050.000000
991037.000000
992228.000000
993356.000000
994349.000000
995456.000000
996566.000000
997500.000000
998438.000000
999432.000000
1000340.000000
1001388.000000
1002468.000000
1003417.000000
1004487.000000
1005565.000000
1006551.000000
1007625.000000
1008672.000000
1009634.000000
1010634.000000
1011592.000000
1012452.000000
1013392.000000
1014437.000000
1015351.000000
1016329.000000
1017342.000000
1018255.000000
1019309.000000
1020393.000000
1021344.000000
1022367.000000
1023343.000000
1024208.000000
1025184.000000
1026130.000000
1027038.000000
1028192.000000
1029277.000000
1030244.000000
1031293.000000
1032330.000000
1033247.000000
1034270.000000
1035317.000000
1036222.000000
1037213.000000
1038197.000000
1039087.000000
1039944.000000
1040987.000000
1042135.000000
1043161.000000
1044225.000000
1045289.000000
1046227.000000
1047280.000000
1048321.000000
1049360.000000
1050445.000000
1051423.000000
1052487.000000
1053491.000000
1054376.000000
1055339.000000
1056411.000000
1057436.000000
1058586.000000
1059673.000000
1060621.000000
1061724.000000
1062769.000000
1063685.000000
1064680.000000
1065595.000000
1066453.000000
1067285.000000
1068138.000000
1069207.000000
1070158.000000
1071217.000000
1072289.000000
1073207.000000
1074213.000000
1075254.000000
1076197.000000
1077256.000000
1078322.000000
1079294.000000
1080293.000000
1081225.000000
1082073.000000
1083061.000000
1084118.000000
1085056.000000
1086109.000000
1087174.000000
1088179.000000
1089341.000000
1090402.000000
1091344.000000
1092373.000000
1093450.000000
1094440.000000
1095478.000000
1096602.000000
1097589.000000
1098690.000000
1099840.000000
1100891.000000
1101789.000000
1102735.000000
1103734.000000
1104640.000000
1105608.000000
1106606.000000
1107549.000000
1108555.000000
1109574.000000
1110495.000000
1111417.000000
1112267.000000
1113129.000000
1114075.000000
1114957.000000
1116005.000000
1117013.000000
1117888.000000
1118803.000000
1119795.000000
1120767.000000
1121666.000000
1122651.000000
1123658.000000
1124575.000000
1125479.000000
1126458.000000
1127437.000000
1128345.000000
1129304.000000
1130363.000000
1131316.000000
1132339.000000
1133415.000000
1134336.000000
1135319.000000
1136326.000000
1137222.000000
1138298.000000
1139362.000000
1140310.000000
1141361.000000
1142425.000000
1143421.000000
1144499.000000
1145544.000000
1146525.000000
1147585.000000
1148603.000000
1149545.000000
1150565.000000
1151569.000000
1152527.000000
1153698.000000
1154768.000000
1155675.000000
1156653.000000
1157635.000000
1158529.000000
1159547.000000
1160744.000000
1161761.000000
1162847.000000
1163875.000000
1164761.000000
1165647.000000
1166610.000000
1167524.000000
1168479.000000
1169540.000000
1170510.000000
1171545.000000
1172586.000000
1173543.000000
1174580.000000
1175585.000000
1176592.000000
1177664.000000
1178641.000000
1179619.000000
1180698.000000
1181690.000000
1182727.000000
1183915.000000
1185038.000000
1186108.000000
1187182.000000
1188179.000000
1189094.000000
1190139.000000
1191179.000000
1192137.000000
1193248.000000
1194345.000000
1195345.000000
1196399.000000
1197482.000000
1198442.000000
1199491.000000
1200535.000000
1201484.000000
1202580.000000
1203671.000000
1204636.000000
1205735.000000
