ECG (ms)
32.000000
927.000000
1781.000000
2632.000000
3522.000000
4378.000000
5226.000000
6116.000000
7013.000000
7871.000000
8744.000000
9630.000000
10462.000000
11305.000000
12170.000000
13003.000000
13830.000000
14692.000000
15558.000000
16383.000000
17239.000000
18144.000000
18995.000000
19892.000000
20844.000000
21751.000000
22623.000000
23516.000000
24353.000000
25160.000000
25967.000000
26721.000000
27479.000000
28320.000000
29195.000000
30168.000000
31135.000000
32043.000000
32971.000000
33912.000000
34800.000000
35661.000000
36571.000000
37500.000000
38369.000000
39250.000000
40168.000000
41059.000000
41938.000000
42858.000000
43770.000000
44627.000000
45492.000000
46405.000000
47308.000000
48181.000000
49075.000000
50010.000000
50904.000000
51789.000000
52700.000000
53637.000000
54514.000000
55367.000000
56255.000000
57158.000000
58006.000000
58849.000000
59720.000000
60568.000000
61386.000000
62255.000000
63109.000000
63948.000000
64808.000000
65664.000000
66486.000000
67327.000000
68189.000000
69021.000000
69861.000000
70736.000000
71623.000000
72452.000000
73325.000000
74201.000000
75026.000000
75876.000000
76764.000000
77617.000000
78470.000000
79350.000000
80204.000000
81045.000000
81944.000000
82894.000000
83779.000000
84710.000000
85684.000000
86645.000000
87556.000000
88526.000000
89490.000000
90422.000000
91375.000000
92355.000000
93298.000000
94242.000000
95194.000000
96066.000000
96906.000000
97758.000000
98652.000000
99526.000000
100406.000000
101341.000000
102283.000000
103174.000000
104085.000000
105002.000000
105865.000000
106779.000000
107702.000000
108581.000000
109467.000000
110392.000000
111292.000000
112147.000000
113045.000000
113943.000000
114781.000000
115661.000000
116594.000000
117475.000000
118388.000000
119326.000000
120250.000000
121123.000000
122019.000000
122902.000000
123747.000000
124621.000000
125505.000000
126376.000000
127237.000000
128164.000000
129058.000000
129915.000000
130797.000000
131644.000000
132467.000000
133294.000000
134080.000000
135097.000000
136122.000000
137106.000000
138087.000000
139066.000000
140010.000000
140922.000000
141852.000000
142799.000000
143721.000000
144632.000000
145569.000000
146528.000000
147464.000000
148348.000000
149245.000000
150183.000000
151108.000000
151995.000000
152884.000000
153798.000000
154717.000000
155584.000000
156452.000000
157360.000000
158256.000000
159103.000000
159979.000000
160867.000000
161707.000000
162552.000000
163426.000000
164282.000000
165122.000000
165985.000000
166866.000000
167696.000000
168534.000000
169416.000000
170291.000000
171140.000000
172042.000000
172927.000000
173768.000000
174632.000000
175513.000000
176356.000000
177222.000000
178135.000000
179052.000000
179933.000000
180838.000000
181749.000000
182613.000000
183473.000000
184381.000000
185289.000000
186154.000000
186997.000000
187875.000000
188741.000000
189569.000000
190382.000000
191203.000000
191976.000000
192804.000000
193744.000000
194646.000000
195563.000000
196537.000000
197516.000000
198431.000000
199295.000000
200175.000000
201116.000000
202001.000000
202861.000000
203730.000000
204642.000000
205597.000000
206509.000000
207408.000000
208329.000000
209276.000000
210146.000000
210995.000000
211877.000000
212852.000000
213820.000000
214733.000000
215621.000000
216503.000000
217393.000000
218269.000000
219165.000000
220103.000000
221002.000000
221893.000000
222804.000000
223696.000000
224530.000000
225390.000000
226261.000000
227099.000000
227965.000000
228845.000000
229677.000000
230539.000000
231406.000000
232251.000000
233075.000000
233925.000000
234802.000000
235637.000000
236483.000000
237359.000000
238150.000000
238971.000000
239796.000000
240669.000000
241644.000000
242586.000000
243463.000000
244337.000000
245217.000000
246045.000000
246879.000000
247737.000000
248584.000000
249434.000000
250329.000000
251218.000000
252078.000000
252988.000000
253884.000000
254736.000000
255611.000000
256540.000000
257411.000000
258271.000000
259200.000000
260124.000000
261001.000000
261904.000000
262846.000000
263714.000000
264589.000000
265508.000000
266394.000000
267242.000000
268113.000000
268980.000000
269820.000000
270705.000000
271587.000000
272426.000000
273312.000000
274204.000000
275039.000000
275897.000000
276760.000000
277578.000000
278396.000000
279259.000000
280149.000000
281005.000000
281882.000000
282802.000000
283660.000000
284509.000000
285406.000000
286302.000000
287149.000000
288033.000000
288941.000000
289800.000000
290665.000000
291539.000000
292392.000000
293226.000000
294098.000000
294976.000000
295814.000000
296685.000000
297580.000000
298440.000000
299301.000000
300266.000000
301246.000000
302158.000000
303053.000000
303938.000000
304777.000000
305594.000000
306470.000000
307364.000000
308161.000000
308952.000000
309816.000000
310791.000000
311758.000000
312654.000000
313492.000000
314362.000000
315221.000000
316043.000000
316924.000000
317844.000000
318705.000000
319590.000000
320535.000000
321436.000000
322308.000000
323235.000000
324166.000000
325055.000000
325977.000000
326927.000000
327815.000000
328743.000000
329707.000000
330650.000000
331538.000000
332427.000000
333239.000000
334001.000000
334759.000000
335598.000000
336480.000000
337377.000000
338254.000000
339187.000000
340178.000000
341118.000000
342038.000000
342984.000000
343896.000000
344757.000000
345659.000000
346574.000000
347435.000000
348319.000000
349224.000000
350095.000000
350962.000000
351902.000000
352871.000000
353782.000000
354597.000000
355657.000000
356551.000000
357436.000000
358350.000000
359240.000000
360094.000000
360988.000000
361873.000000
362752.000000
363711.000000
364676.000000
365581.000000
366477.000000
367399.000000
368279.000000
369151.000000
370046.000000
370923.000000
371771.000000
372654.000000
373565.000000
374442.000000
375305.000000
376207.000000
377113.000000
377971.000000
378861.000000
379748.000000
380617.000000
381467.000000
382366.000000
383303.000000
384175.000000
385064.000000
385972.000000
386833.000000
387678.000000
388568.000000
389474.000000
390343.000000
391228.000000
392164.000000
393088.000000
393960.000000
394854.000000
395746.000000
396592.000000
397458.000000
398350.000000
399202.000000
400062.000000
400960.000000
401847.000000
402693.000000
403565.000000
404424.000000
405254.000000
406122.000000
406996.000000
407848.000000
408723.000000
409648.000000
410526.000000
411396.000000
412287.000000
413156.000000
413995.000000
414880.000000
415791.000000
416666.000000
417516.000000
418459.000000
419373.000000
420230.000000
421137.000000
422034.000000
422878.000000
423736.000000
424629.000000
425501.000000
426357.000000
427253.000000
428183.000000
429075.000000
429969.000000
430903.000000
431765.000000
432620.000000
433489.000000
434299.000000
435096.000000
435901.000000
436683.000000
437436.000000
438210.000000
439017.000000
439910.000000
440775.000000
441650.000000
442559.000000
443449.000000
444299.000000
445168.000000
446035.000000
446861.000000
447707.000000
448585.000000
449432.000000
450329.000000
451230.000000
452093.000000
452985.000000
453895.000000
454779.000000
455624.000000
456511.000000
457368.000000
458203.000000
459090.000000
459980.000000
460843.000000
461734.000000
462635.000000
463478.000000
464342.000000
465196.000000
466025.000000
466848.000000
467734.000000
468642.000000
469510.000000
470439.000000
471411.000000
472326.000000
473223.000000
474130.000000
474999.000000
475851.000000
476782.000000
477787.000000
478818.000000
479848.000000
480795.000000
481768.000000
482734.000000
483663.000000
484635.000000
485620.000000
486553.000000
487514.000000
488446.000000
489398.000000
490410.000000
491391.000000
492391.000000
493383.000000
494325.000000
495267.000000
496232.000000
497166.000000
498130.000000
499117.000000
500058.000000
501025.000000
502006.000000
502960.000000
503866.000000
504830.000000
505792.000000
506712.000000
507644.000000
508597.000000
509538.000000
510500.000000
511454.000000
512355.000000
513246.000000
514168.000000
515044.000000
515931.000000
516842.000000
517719.000000
518596.000000
519512.000000
520401.000000
521246.000000
522132.000000
523013.000000
523860.000000
524730.000000
525617.000000
526463.000000
527316.000000
528188.000000
529043.000000
529904.000000
530810.000000
531691.000000
532548.000000
533476.000000
534435.000000
535336.000000
536233.000000
537143.000000
538026.000000
538910.000000
539824.000000
540709.000000
541554.000000
542425.000000
543317.000000
544171.000000
545039.000000
545914.000000
546774.000000
547622.000000
548513.000000
549433.000000
550313.000000
551205.000000
552116.000000
553018.000000
553898.000000
554797.000000
555704.000000
556565.000000
557462.000000
558384.000000
559256.000000
560171.000000
561097.000000
561984.000000
562827.000000
563719.000000
564626.000000
565479.000000
566362.000000
567249.000000
568086.000000
568945.000000
569864.000000
570747.000000
571639.000000
572629.000000
573578.000000
574457.000000
575328.000000
576169.000000
576991.000000
577844.000000
578759.000000
579634.000000
580534.000000
581501.000000
582431.000000
583310.000000
584223.000000
585151.000000
586021.000000
586907.000000
587800.000000
588641.000000
589419.000000
590233.000000
591084.000000
591939.000000
592794.000000
593711.000000
594592.000000
595444.000000
596329.000000
597210.000000
598030.000000
598891.000000
599761.000000
600600.000000
601502.000000
602446.000000
603345.000000
604281.000000
605214.000000
606071.000000
606953.000000
607836.000000
608674.000000
609539.000000
610412.000000
611256.000000
612185.000000
613199.000000
614157.000000
615049.000000
615962.000000
616868.000000
617734.000000
618614.000000
619528.000000
620474.000000
621358.000000
622260.000000
623202.000000
624097.000000
625031.000000
626020.000000
627002.000000
627963.000000
628922.000000
629881.000000
630795.000000
631742.000000
632715.000000
633642.000000
634582.000000
635527.000000
636439.000000
637355.000000
638269.000000
639147.000000
640000.000000
640886.000000
641770.000000
642633.000000
643508.000000
644404.000000
645284.000000
646124.000000
647019.000000
647912.000000
648754.000000
649640.000000
650566.000000
651431.000000
652319.000000
653298.000000
654272.000000
655221.000000
656182.000000
657140.000000
658044.000000
658947.000000
659833.000000
660701.000000
661544.000000
662447.000000
663378.000000
664293.000000
665234.000000
666174.000000
667080.000000
667990.000000
668909.000000
669797.000000
670695.000000
671631.000000
672563.000000
673489.000000
674438.000000
675366.000000
676265.000000
677185.000000
678120.000000
679022.000000
679918.000000
680831.000000
681726.000000
682601.000000
683520.000000
684464.000000
685386.000000
686317.000000
687238.000000
688137.000000
689080.000000
690028.000000
690940.000000
691847.000000
692802.000000
693797.000000
694718.000000
695660.000000
696601.000000
697513.000000
698454.000000
699423.000000
700348.000000
701300.000000
702283.000000
703225.000000
704169.000000
705110.000000
706025.000000
706893.000000
707801.000000
708748.000000
709667.000000
710579.000000
711505.000000
712419.000000
713322.000000
714255.000000
715202.000000
716117.000000
717052.000000
718005.000000
718941.000000
719895.000000
720862.000000
721795.000000
722729.000000
723724.000000
724685.000000
725617.000000
726577.000000
727531.000000
728454.000000
729392.000000
730359.000000
731310.000000
732238.000000
733198.000000
734145.000000
735073.000000
736012.000000
736946.000000
737850.000000
738769.000000
739712.000000
740599.000000
741479.000000
742407.000000
743365.000000
744292.000000
745284.000000
746259.000000
747202.000000
748147.000000
749121.000000
750045.000000
750948.000000
751913.000000
752919.000000
753872.000000
754839.000000
755826.000000
756783.000000
757647.000000
758408.000000
759158.000000
759947.000000
760822.000000
761701.000000
762576.000000
763433.000000
764388.000000
765282.000000
766062.000000
766820.000000
767646.000000
768488.000000
769354.000000
770185.000000
771039.000000
771910.000000
772735.000000
773527.000000
774339.000000
775175.000000
776004.000000
776795.000000
777623.000000
778501.000000
779368.000000
780200.000000
781105.000000
782042.000000
782955.000000
783793.000000
784666.000000
785579.000000
786448.000000
787258.000000
788102.000000
788944.000000
789706.000000
790565.000000
791503.000000
792381.000000
793283.000000
794214.000000
795150.000000
796027.000000
796897.000000
797768.000000
798602.000000
799444.000000
800316.000000
801169.000000
801996.000000
802832.000000
803654.000000
804427.000000
805176.000000
805970.000000
806846.000000
807736.000000
808621.000000
809554.000000
810505.000000
811401.000000
812300.000000
813205.000000
814050.000000
814889.000000
815763.000000
816660.000000
817532.000000
818407.000000
819357.000000
820283.000000
821175.000000
822087.000000
822974.000000
823803.000000
824631.000000
825482.000000
826302.000000
827115.000000
827970.000000
828558.000000
829629.000000
830494.000000
831349.000000
832158.000000
832982.000000
833876.000000
834747.000000
835611.000000
836502.000000
837403.000000
838241.000000
839099.000000
839966.000000
840804.000000
841668.000000
842579.000000
843454.000000
844316.000000
845200.000000
846105.000000
846948.000000
847794.000000
848639.000000
849468.000000
850280.000000
851117.000000
851968.000000
852778.000000
853621.000000
854490.000000
855345.000000
856188.000000
857064.000000
857930.000000
858750.000000
859602.000000
860487.000000
861320.000000
862151.000000
863016.000000
863890.000000
864712.000000
865553.000000
866400.000000
867219.000000
868044.000000
868895.000000
869700.000000
870524.000000
871378.000000
872218.000000
873140.000000
874066.000000
874930.000000
875801.000000
876697.000000
877582.000000
878426.000000
879283.000000
880232.000000
881125.000000
881996.000000
882890.000000
883777.000000
884622.000000
885486.000000
886376.000000
887232.000000
888057.000000
888907.000000
889755.000000
890600.000000
891422.000000
892278.000000
893127.000000
893909.000000
894726.000000
895596.000000
896522.000000
897399.000000
898249.000000
899136.000000
900027.000000
900863.000000
