ECG (ms)
146.000000
1220.000000
2693.000000
3805.000000
4766.000000
5709.000000
7195.000000
8453.000000
9839.000000
11127.000000
12358.000000
13513.000000
14594.000000
15688.000000
17093.000000
18285.000000
19466.000000
20638.000000
21777.000000
23118.000000
24386.000000
25524.000000
26724.000000
27878.000000
28997.000000
30191.000000
31369.000000
32579.000000
33721.000000
34844.000000
36076.000000
37303.000000
38450.000000
39648.000000
40942.000000
42092.000000
43251.000000
44370.000000
45505.000000
46856.000000
47996.000000
49167.000000
50357.000000
51488.000000
52741.000000
53865.000000
55070.000000
56278.000000
57413.000000
58669.000000
59915.000000
61012.000000
62151.000000
63354.000000
64518.000000
65799.000000
67055.000000
68154.000000
69314.000000
70492.000000
71578.000000
72713.000000
73895.000000
75000.000000
76086.000000
77288.000000
78459.000000
79593.000000
80795.000000
81925.000000
82991.000000
84158.000000
85327.000000
86404.000000
87584.000000
88768.000000
89883.000000
91062.000000
92265.000000
93393.000000
94540.000000
95744.000000
96859.000000
97934.000000
99196.000000
100487.000000
101653.000000
102852.000000
104024.000000
105145.000000
106340.000000
107520.000000
108643.000000
109689.000000
110827.000000
112269.000000
113416.000000
114577.000000
115761.000000
116836.000000
117963.000000
119118.000000
120235.000000
121296.000000
122432.000000
123549.000000
124596.000000
125727.000000
126803.000000
127868.000000
129078.000000
130238.000000
131349.000000
132565.000000
133708.000000
134809.000000
135991.000000
137129.000000
138251.000000
139408.000000
140584.000000
141665.000000
142766.000000
143901.000000
145000.000000
146145.000000
147454.000000
148646.000000
149737.000000
150863.000000
152037.000000
153119.000000
154329.000000
155489.000000
156656.000000
157877.000000
159002.000000
160165.000000
161319.000000
162433.000000
163567.000000
164910.000000
166094.000000
167236.000000
168450.000000
169633.000000
170815.000000
171950.000000
173072.000000
174262.000000
175351.000000
176366.000000
177486.000000
178664.000000
179726.000000
180802.000000
181934.000000
183032.000000
184199.000000
185391.000000
186437.000000
187559.000000
188722.000000
189792.000000
190890.000000
191991.000000
193012.000000
194109.000000
195241.000000
196304.000000
197483.000000
198645.000000
199696.000000
200814.000000
201915.000000
202978.000000
204277.000000
205463.000000
206583.000000
207563.000000
208469.000000
209499.000000
210559.000000
211712.000000
212913.000000
214026.000000
215187.000000
216283.000000
217327.000000
218494.000000
219594.000000
220664.000000
221841.000000
222973.000000
224013.000000
225135.000000
226254.000000
227343.000000
228549.000000
229663.000000
230813.000000
231965.000000
233043.000000
234183.000000
235332.000000
236401.000000
237515.000000
238582.000000
239508.000000
240552.000000
241616.000000
242636.000000
243733.000000
244857.000000
245905.000000
246996.000000
248183.000000
249246.000000
250337.000000
251469.000000
252509.000000
253543.000000
254759.000000
255923.000000
256946.000000
258051.000000
259226.000000
260281.000000
261350.000000
262521.000000
263644.000000
264737.000000
265876.000000
267008.000000
268095.000000
269278.000000
270400.000000
271462.000000
272603.000000
273763.000000
274843.000000
276014.000000
277165.000000
278283.000000
279469.000000
280648.000000
281738.000000
282872.000000
284039.000000
285114.000000
286180.000000
287286.000000
288358.000000
289395.000000
290517.000000
291782.000000
292936.000000
294078.000000
295136.000000
296137.000000
297211.000000
298428.000000
299573.000000
300656.000000
301782.000000
302890.000000
303937.000000
305061.000000
306142.000000
307222.000000
308379.000000
309437.000000
310542.000000
311632.000000
312699.000000
313819.000000
314925.000000
315994.000000
317132.000000
318227.000000
319281.000000
320439.000000
321557.000000
322706.000000
323859.000000
324916.000000
325991.000000
327135.000000
328212.000000
329360.000000
330472.000000
331511.000000
332605.000000
333642.000000
334555.000000
335519.000000
336641.000000
337798.000000
338865.000000
340011.000000
341163.000000
342246.000000
343331.000000
344557.000000
345747.000000
346843.000000
348008.000000
349175.000000
350217.000000
351313.000000
352395.000000
353432.000000
354613.000000
355761.000000
356970.000000
358185.000000
359261.000000
360360.000000
361507.000000
362636.000000
363827.000000
364990.000000
366076.000000
367237.000000
368380.000000
369444.000000
370570.000000
371712.000000
372798.000000
373964.000000
375126.000000
376230.000000
377398.000000
378574.000000
379654.000000
380806.000000
381880.000000
382941.000000
384049.000000
385140.000000
386222.000000
387412.000000
388534.000000
389673.000000
390762.000000
391774.000000
392827.000000
393830.000000
394799.000000
395848.000000
396967.000000
398048.000000
399234.000000
400384.000000
401485.000000
402635.000000
403680.000000
404722.000000
405812.000000
406892.000000
407944.000000
409064.000000
410157.000000
411134.000000
412150.000000
413252.000000
414334.000000
415443.000000
416645.000000
417747.000000
418854.000000
419990.000000
421078.000000
422223.000000
423441.000000
424533.000000
425709.000000
426900.000000
428010.000000
429214.000000
430361.000000
431353.000000
432251.000000
433182.000000
434358.000000
435591.000000
437020.000000
438154.000000
439326.000000
440394.000000
441328.000000
442339.000000
443791.000000
444992.000000
446073.000000
447196.000000
448434.000000
449633.000000
450858.000000
452093.000000
453224.000000
454386.000000
455444.000000
456493.000000
457613.000000
458652.000000
459695.000000
460727.000000
461802.000000
462995.000000
464193.000000
465368.000000
466348.000000
467258.000000
468261.000000
469216.000000
470186.000000
471156.000000
472107.000000
473123.000000
474226.000000
475257.000000
476356.000000
477416.000000
478434.000000
479503.000000
480537.000000
481600.000000
482679.000000
483658.000000
484704.000000
485808.000000
486849.000000
487978.000000
489093.000000
490142.000000
491255.000000
492324.000000
493349.000000
494485.000000
495581.000000
496709.000000
497859.000000
498933.000000
500075.000000
501163.000000
502177.000000
503334.000000
504479.000000
505559.000000
506726.000000
507873.000000
509007.000000
509959.000000
510880.000000
511950.000000
513012.000000
514136.000000
515291.000000
516323.000000
517290.000000
518438.000000
519756.000000
520903.000000
522017.000000
523070.000000
524076.000000
525189.000000
526291.000000
527462.000000
528625.000000
529733.000000
530907.000000
532102.000000
533238.000000
534465.000000
535693.000000
536846.000000
538265.000000
539462.000000
540779.000000
542013.000000
543017.000000
544250.000000
545677.000000
546836.000000
548007.000000
549215.000000
550378.000000
551593.000000
552634.000000
553562.000000
554642.000000
555816.000000
556874.000000
558048.000000
559221.000000
560335.000000
561568.000000
562782.000000
563913.000000
565069.000000
566180.000000
567369.000000
568664.000000
569834.000000
571022.000000
572118.000000
573173.000000
574403.000000
575596.000000
576710.000000
577804.000000
578753.000000
579871.000000
581016.000000
582190.000000
583396.000000
584482.000000
585614.000000
586799.000000
587914.000000
589035.000000
590173.000000
591270.000000
592543.000000
593732.000000
594875.000000
596049.000000
597161.000000
598208.000000
599386.000000
600522.000000
601655.000000
602829.000000
603967.000000
605120.000000
606325.000000
607418.000000
608526.000000
609707.000000
610849.000000
611883.000000
612802.000000
613881.000000
615067.000000
616195.000000
617358.000000
618459.000000
619549.000000
620659.000000
621668.000000
622726.000000
623988.000000
625155.000000
626370.000000
627519.000000
628554.000000
629597.000000
630901.000000
632149.000000
633238.000000
634341.000000
635453.000000
636650.000000
638018.000000
639253.000000
640454.000000
641421.000000
642352.000000
643594.000000
644634.000000
645816.000000
647068.000000
648194.000000
649414.000000
650558.000000
651682.000000
652783.000000
653811.000000
654939.000000
656130.000000
657133.000000
658108.000000
659194.000000
660350.000000
661474.000000
662601.000000
663722.000000
664771.000000
665877.000000
666945.000000
667975.000000
669061.000000
669994.000000
670884.000000
671975.000000
673143.000000
674239.000000
675384.000000
676477.000000
677379.000000
678328.000000
679846.000000
681179.000000
682389.000000
683513.000000
684684.000000
685790.000000
686906.000000
688161.000000
689402.000000
690550.000000
691886.000000
693134.000000
694282.000000
695414.000000
696399.000000
697316.000000
698610.000000
699733.000000
701021.000000
702183.000000
703317.000000
704445.000000
705460.000000
706483.000000
707473.000000
708377.000000
709395.000000
710489.000000
711565.000000
712638.000000
713686.000000
714759.000000
715844.000000
716821.000000
717777.000000
718872.000000
719999.000000
721042.000000
722140.000000
723192.000000
724264.000000
725377.000000
726455.000000
727579.000000
728718.000000
729781.000000
730929.000000
732064.000000
733159.000000
734302.000000
735392.000000
736429.000000
737547.000000
738542.000000
739447.000000
740405.000000
741598.000000
742794.000000
743946.000000
744959.000000
745948.000000
747067.000000
748199.000000
749273.000000
750381.000000
751512.000000
752582.000000
753702.000000
754780.000000
755809.000000
756906.000000
758012.000000
759043.000000
760187.000000
761375.000000
762491.000000
763648.000000
764778.000000
765872.000000
767009.000000
767968.000000
768881.000000
769989.000000
771090.000000
772325.000000
773478.000000
774542.000000
775619.000000
776692.000000
777758.000000
778949.000000
780164.000000
781267.000000
782439.000000
783519.000000
784634.000000
785790.000000
786809.000000
787866.000000
789010.000000
790056.000000
791174.000000
792155.000000
793061.000000
794185.000000
795309.000000
796390.000000
797483.000000
798496.000000
799578.000000
800681.000000
801715.000000
802783.000000
803952.000000
805004.000000
806120.000000
807314.000000
808362.000000
809486.000000
810658.000000
811720.000000
812846.000000
814057.000000
815209.000000
816436.000000
817612.000000
818722.000000
819838.000000
820781.000000
821700.000000
823011.000000
824117.000000
825295.000000
826393.000000
827473.000000
828606.000000
829639.000000
830590.000000
831551.000000
832423.000000
833285.000000
834199.000000
835718.000000
836953.000000
838027.000000
839041.000000
840063.000000
841112.000000
842095.000000
843002.000000
843934.000000
844967.000000
845948.000000
846997.000000
848065.000000
849042.000000
849994.000000
850890.000000
851761.000000
852726.000000
853707.000000
854759.000000
855751.000000
856665.000000
857723.000000
858700.000000
859788.000000
860841.000000
861825.000000
862937.000000
864046.000000
865098.000000
866216.000000
867276.000000
868338.000000
869464.000000
870518.000000
871569.000000
872612.000000
873608.000000
874606.000000
875511.000000
876441.000000
877577.000000
878624.000000
879729.000000
880810.000000
881875.000000
882975.000000
884029.000000
885048.000000
886124.000000
887231.000000
888270.000000
889359.000000
890421.000000
891456.000000
892530.000000
893564.000000
894561.000000
895663.000000
896732.000000
897645.000000
898518.000000
899540.000000
900588.000000
901624.000000
902724.000000
903817.000000
904831.000000
905986.000000
907234.000000
