ECG (ms)
416.000000
1082.000000
1795.000000
2507.000000
3203.000000
3900.000000
4590.000000
5258.000000
5906.000000
6583.000000
7257.000000
7937.000000
8622.000000
9324.000000
10050.000000
10758.000000
11489.000000
12224.000000
12958.000000
13660.000000
14369.000000
15083.000000
15794.000000
16481.000000
17144.000000
17855.000000
18548.000000
19239.000000
19891.000000
20599.000000
21300.000000
22013.000000
22708.000000
23418.000000
24142.000000
24855.000000
25566.000000
26282.000000
26994.000000
27681.000000
28372.000000
29068.000000
29759.000000
30413.000000
31124.000000
31807.000000
32492.000000
33193.000000
33891.000000
34582.000000
35277.000000
35967.000000
36657.000000
37327.000000
37973.000000
38670.000000
39348.000000
40032.000000
40713.000000
41347.000000
42029.000000
42664.000000
43340.000000
44016.000000
44712.000000
45428.000000
46161.000000
46932.000000
47691.000000
48447.000000
49204.000000
49934.000000
50652.000000
51358.000000
52014.000000
52714.000000
53389.000000
54062.000000
54731.000000
55392.000000
56096.000000
56785.000000
57484.000000
58194.000000
58913.000000
59629.000000
60345.000000
61048.000000
61705.000000
62364.000000
63016.000000
63643.000000
64280.000000
64906.000000
65543.000000
66199.000000
66852.000000
67513.000000
68182.000000
68865.000000
69560.000000
70240.000000
70913.000000
71580.000000
72245.000000
72928.000000
73609.000000
74288.000000
74988.000000
75707.000000
76437.000000
77165.000000
77910.000000
78665.000000
79397.000000
80121.000000
80849.000000
81559.000000
82229.000000
82952.000000
83645.000000
84294.000000
84936.000000
85568.000000
86205.000000
86859.000000
87538.000000
88224.000000
88926.000000
89634.000000
90350.000000
91040.000000
91731.000000
92416.000000
93072.000000
93772.000000
94463.000000
95165.000000
95867.000000
96554.000000
97253.000000
97960.000000
98652.000000
99347.000000
100049.000000
100756.000000
101462.000000
102160.000000
102841.000000
103509.000000
104209.000000
104895.000000
105571.000000
106264.000000
106965.000000
107665.000000
108336.000000
109032.000000
109716.000000
110397.000000
111081.000000
111777.000000
112471.000000
113154.000000
113835.000000
114513.000000
115191.000000
115836.000000
116517.000000
117184.000000
117846.000000
118511.000000
119198.000000
119905.000000
120606.000000
121310.000000
122000.000000
122653.000000
123324.000000
123985.000000
124636.000000
125289.000000
125945.000000
126595.000000
127245.000000
127911.000000
128604.000000
129312.000000
130030.000000
130730.000000
131425.000000
132122.000000
132811.000000
133489.000000
134167.000000
134841.000000
135519.000000
136186.000000
136851.000000
137528.000000
138222.000000
138918.000000
139595.000000
140262.000000
140928.000000
141598.000000
142271.000000
142944.000000
143616.000000
144305.000000
144998.000000
145686.000000
146371.000000
147056.000000
147743.000000
148422.000000
149099.000000
149781.000000
150459.000000
151131.000000
151806.000000
152480.000000
153144.000000
153816.000000
154494.000000
155176.000000
155847.000000
156485.000000
157113.000000
157739.000000
158384.000000
159067.000000
159767.000000
160473.000000
161192.000000
161912.000000
162603.000000
163296.000000
163998.000000
164698.000000
165394.000000
166053.000000
166748.000000
167414.000000
168062.000000
168724.000000
169384.000000
170049.000000
170728.000000
171438.000000
172170.000000
172877.000000
173585.000000
174280.000000
174977.000000
175667.000000
176353.000000
177009.000000
177685.000000
178346.000000
179009.000000
179665.000000
180318.000000
180978.000000
181626.000000
182272.000000
182901.000000
183530.000000
184157.000000
184785.000000
185420.000000
186053.000000
186690.000000
187329.000000
187966.000000
188608.000000
189257.000000
189908.000000
190560.000000
191213.000000
191868.000000
192540.000000
193212.000000
193868.000000
194524.000000
195188.000000
195846.000000
196487.000000
197133.000000
197786.000000
198447.000000
199109.000000
199752.000000
200397.000000
201042.000000
201684.000000
202322.000000
202975.000000
203640.000000
204313.000000
204971.000000
205625.000000
206276.000000
206932.000000
207581.000000
208228.000000
208878.000000
209522.000000
210148.000000
210753.000000
211355.000000
211960.000000
212576.000000
213219.000000
213897.000000
214582.000000
215254.000000
215913.000000
216583.000000
217256.000000
217931.000000
218604.000000
219271.000000
219931.000000
220585.000000
221252.000000
221926.000000
222613.000000
223330.000000
224087.000000
224845.000000
225619.000000
226416.000000
227187.000000
227925.000000
228646.000000
229364.000000
230077.000000
230778.000000
231453.000000
232131.000000
232818.000000
233541.000000
234256.000000
234960.000000
235684.000000
236442.000000
237211.000000
237938.000000
238642.000000
239351.000000
240062.000000
240766.000000
241458.000000
242178.000000
242953.000000
243761.000000
244528.000000
245288.000000
246032.000000
246791.000000
247531.000000
248271.000000
248995.000000
249678.000000
250359.000000
251042.000000
251742.000000
252382.000000
253009.000000
253632.000000
254269.000000
254950.000000
255666.000000
256400.000000
257158.000000
257909.000000
258628.000000
259339.000000
260040.000000
260729.000000
261416.000000
262126.000000
262823.000000
263511.000000
264204.000000
264901.000000
265599.000000
266300.000000
267024.000000
267757.000000
268461.000000
269163.000000
269852.000000
270540.000000
271221.000000
271910.000000
272612.000000
273350.000000
274085.000000
274813.000000
275559.000000
276307.000000
277028.000000
277723.000000
278436.000000
279140.000000
279827.000000
280513.000000
281209.000000
281957.000000
282773.000000
283573.000000
284369.000000
285123.000000
285807.000000
286508.000000
287232.000000
287938.000000
288636.000000
289331.000000
290035.000000
290756.000000
291462.000000
292160.000000
292869.000000
293579.000000
294278.000000
294956.000000
295677.000000
296387.000000
297082.000000
297760.000000
298493.000000
299228.000000
299957.000000
300673.000000
301396.000000
302131.000000
302852.000000
303567.000000
304299.000000
305038.000000
305762.000000
306476.000000
307210.000000
307953.000000
308668.000000
309361.000000
310109.000000
310869.000000
311606.000000
312334.000000
313087.000000
313829.000000
314539.000000
315210.000000
315931.000000
316622.000000
317306.000000
317983.000000
318673.000000
319378.000000
320085.000000
320788.000000
321510.000000
322243.000000
322954.000000
323639.000000
324311.000000
324999.000000
325745.000000
326505.000000
327240.000000
327927.000000
328587.000000
329254.000000
329956.000000
330698.000000
331477.000000
332280.000000
333049.000000
333784.000000
334499.000000
335216.000000
335933.000000
336634.000000
337337.000000
338057.000000
338808.000000
339546.000000
340291.000000
341080.000000
341867.000000
342626.000000
343365.000000
344105.000000
344845.000000
345551.000000
346257.000000
346942.000000
347623.000000
348296.000000
348978.000000
349686.000000
350431.000000
351161.000000
351888.000000
352630.000000
353382.000000
354101.000000
354787.000000
355513.000000
356222.000000
356927.000000
357601.000000
358322.000000
359019.000000
359735.000000
360446.000000
361165.000000
361911.000000
362656.000000
363347.000000
364047.000000
364765.000000
365438.000000
366111.000000
366780.000000
367460.000000
368167.000000
368869.000000
369542.000000
370256.000000
370966.000000
371690.000000
372397.000000
373079.000000
373809.000000
374521.000000
375216.000000
375879.000000
376574.000000
377256.000000
377965.000000
378666.000000
379362.000000
380072.000000
380785.000000
381495.000000
382187.000000
382892.000000
383606.000000
384354.000000
385081.000000
385794.000000
386512.000000
387246.000000
387963.000000
388688.000000
389445.000000
390273.000000
391102.000000
391897.000000
392714.000000
393513.000000
394267.000000
394983.000000
395736.000000
396448.000000
397156.000000
397880.000000
398604.000000
399366.000000
400118.000000
400876.000000
401653.000000
402437.000000
403148.000000
403870.000000
404592.000000
405272.000000
405945.000000
406615.000000
407287.000000
407984.000000
408684.000000
409378.000000
410112.000000
410861.000000
411598.000000
412321.000000
413048.000000
413759.000000
414449.000000
415140.000000
415819.000000
416498.000000
417168.000000
417845.000000
418527.000000
419211.000000
419888.000000
420585.000000
421290.000000
421994.000000
422686.000000
423379.000000
424070.000000
424767.000000
425444.000000
426126.000000
426810.000000
427503.000000
428186.000000
428872.000000
429570.000000
430288.000000
430994.000000
431680.000000
432421.000000
433143.000000
433816.000000
434533.000000
435227.000000
435921.000000
436589.000000
437286.000000
438004.000000
438786.000000
439599.000000
440368.000000
441128.000000
441879.000000
442632.000000
443365.000000
444096.000000
444829.000000
445549.000000
446253.000000
447007.000000
447768.000000
448540.000000
449297.000000
450052.000000
450813.000000
451559.000000
452282.000000
452994.000000
453695.000000
454392.000000
455092.000000
455801.000000
456531.000000
457287.000000
458025.000000
458772.000000
459535.000000
460290.000000
460993.000000
461737.000000
462426.000000
463111.000000
463791.000000
464505.000000
465209.000000
465945.000000
466678.000000
467412.000000
468172.000000
468941.000000
469671.000000
470405.000000
471168.000000
471918.000000
472608.000000
473319.000000
474050.000000
474763.000000
475471.000000
476153.000000
476907.000000
477642.000000
478361.000000
479047.000000
479788.000000
480508.000000
481188.000000
481915.000000
482589.000000
483323.000000
484021.000000
484691.000000
485438.000000
486188.000000
486923.000000
487612.000000
488369.000000
489142.000000
489928.000000
490673.000000
491411.000000
492146.000000
492881.000000
493589.000000
494285.000000
494989.000000
495714.000000
496460.000000
497177.000000
497907.000000
498672.000000
499441.000000
500172.000000
500903.000000
501628.000000
502357.000000
503070.000000
503784.000000
504497.000000
505229.000000
505985.000000
506723.000000
507480.000000
508235.000000
508978.000000
509706.000000
510443.000000
511189.000000
511932.000000
512639.000000
513374.000000
514097.000000
514812.000000
515490.000000
516196.000000
516918.000000
517649.000000
518373.000000
519063.000000
519825.000000
520568.000000
521297.000000
521987.000000
522740.000000
523480.000000
524201.000000
524881.000000
525626.000000
526351.000000
527093.000000
527812.000000
528505.000000
529257.000000
530003.000000
530739.000000
531436.000000
532184.000000
532928.000000
533693.000000
534447.000000
535197.000000
535960.000000
536714.000000
537462.000000
538166.000000
538924.000000
539665.000000
540425.000000
541161.000000
541898.000000
542653.000000
543405.000000
544107.000000
544826.000000
545576.000000
546324.000000
547063.000000
547763.000000
548481.000000
549202.000000
549922.000000
550628.000000
551324.000000
552036.000000
552767.000000
553511.000000
554209.000000
554957.000000
555691.000000
556422.000000
557102.000000
557834.000000
558569.000000
559319.000000
560051.000000
560794.000000
561560.000000
562324.000000
563064.000000
563778.000000
564562.000000
565300.000000
565996.000000
566763.000000
567495.000000
568253.000000
568948.000000
569701.000000
570433.000000
571174.000000
571868.000000
572576.000000
573311.000000
574030.000000
574747.000000
575441.000000
576175.000000
576966.000000
577781.000000
578544.000000
579283.000000
580020.000000
580741.000000
581443.000000
582148.000000
582868.000000
583601.000000
584314.000000
585039.000000
585781.000000
586528.000000
587259.000000
587995.000000
588732.000000
589457.000000
590158.000000
590846.000000
591541.000000
592219.000000
592872.000000
593504.000000
594130.000000
594772.000000
595471.000000
596197.000000
596916.000000
597636.000000
598367.000000
599099.000000
599806.000000
600507.000000
601224.000000
601954.000000
602665.000000
603382.000000
604125.000000
604877.000000
605608.000000
606345.000000
607091.000000
607864.000000
608598.000000
609334.000000
610075.000000
610827.000000
611553.000000
612287.000000
613085.000000
613920.000000
614744.000000
615533.000000
616351.000000
617163.000000
617948.000000
618684.000000
619458.000000
620215.000000
620977.000000
621688.000000
622463.000000
623211.000000
623959.000000
624679.000000
625442.000000
626179.000000
626898.000000
627618.000000
628364.000000
629116.000000
629851.000000
630567.000000
631301.000000
632034.000000
632774.000000
633490.000000
634213.000000
634975.000000
635749.000000
636501.000000
637220.000000
637993.000000
638749.000000
639463.000000
640210.000000
640924.000000
641684.000000
642432.000000
643139.000000
643894.000000
644628.000000
645362.000000
646067.000000
646809.000000
647551.000000
648297.000000
649030.000000
649746.000000
650482.000000
651215.000000
651944.000000
652675.000000
653427.000000
654201.000000
654964.000000
655683.000000
656449.000000
657203.000000
657942.000000
658641.000000
659371.000000
660110.000000
660857.000000
661593.000000
662331.000000
663096.000000
663856.000000
664603.000000
665333.000000
666123.000000
666922.000000
667685.000000
668406.000000
669210.000000
670011.000000
670770.000000
671500.000000
672317.000000
673104.000000
673875.000000
674656.000000
675431.000000
676200.000000
676921.000000
677693.000000
678450.000000
679251.000000
680029.000000
680794.000000
681577.000000
682368.000000
683131.000000
683875.000000
684630.000000
685394.000000
686143.000000
686870.000000
687601.000000
688317.000000
689030.000000
689734.000000
690450.000000
691197.000000
691961.000000
692707.000000
693451.000000
694198.000000
694946.000000
695692.000000
696401.000000
697164.000000
697928.000000
698690.000000
699408.000000
700178.000000
700930.000000
701690.000000
702406.000000
703133.000000
703875.000000
704614.000000
705369.000000
706088.000000
706862.000000
707632.000000
708388.000000
709100.000000
709874.000000
710623.000000
711382.000000
712099.000000
712826.000000
713601.000000
714381.000000
715146.000000
715901.000000
716668.000000
717460.000000
718244.000000
718960.000000
719737.000000
720492.000000
721255.000000
721965.000000
722735.000000
723490.000000
724276.000000
725037.000000
725741.000000
726516.000000
727259.000000
727997.000000
728745.000000
729530.000000
730315.000000
731120.000000
731886.000000
732619.000000
733400.000000
734113.000000
734828.000000
735529.000000
736243.000000
736988.000000
737736.000000
738477.000000
739224.000000
740008.000000
740797.000000
741551.000000
742270.000000
743066.000000
743830.000000
744536.000000
745293.000000
746032.000000
746780.000000
747517.000000
748231.000000
749015.000000
749795.000000
750548.000000
751253.000000
752018.000000
752719.000000
753419.000000
754119.000000
754809.000000
755478.000000
756123.000000
756766.000000
757430.000000
758106.000000
758822.000000
759570.000000
760324.000000
761050.000000
761781.000000
762516.000000
763238.000000
763957.000000
764700.000000
765469.000000
766246.000000
766999.000000
767767.000000
768580.000000
769403.000000
770166.000000
770923.000000
771674.000000
772400.000000
773122.000000
773842.000000
774587.000000
775344.000000
776095.000000
776868.000000
777660.000000
778438.000000
779192.000000
779950.000000
780707.000000
781439.000000
782164.000000
782905.000000
783655.000000
784395.000000
785140.000000
785912.000000
786689.000000
787423.000000
788179.000000
788944.000000
789703.000000
790416.000000
791186.000000
791937.000000
792690.000000
793401.000000
794162.000000
794904.000000
795654.000000
796390.000000
797107.000000
797907.000000
798687.000000
799452.000000
800164.000000
800938.000000
801665.000000
802381.000000
803087.000000
803807.000000
804575.000000
805373.000000
806138.000000
806887.000000
807670.000000
808439.000000
809165.000000
809937.000000
810664.000000
811443.000000
812153.000000
812924.000000
813686.000000
814488.000000
815266.000000
815993.000000
816781.000000
817512.000000
818271.000000
818973.000000
819700.000000
820419.000000
821159.000000
821889.000000
822638.000000
823414.000000
824185.000000
824935.000000
825672.000000
826420.000000
827187.000000
827932.000000
828653.000000
829379.000000
830117.000000
830880.000000
831650.000000
832406.000000
833191.000000
833991.000000
834763.000000
835502.000000
836229.000000
836960.000000
837693.000000
838409.000000
839122.000000
839861.000000
840617.000000
841365.000000
842111.000000
842880.000000
843668.000000
844462.000000
845219.000000
845973.000000
846759.000000
847543.000000
848288.000000
849018.000000
849754.000000
850484.000000
851198.000000
851920.000000
852671.000000
853453.000000
854245.000000
855029.000000
855830.000000
856617.000000
857356.000000
858082.000000
858803.000000
859497.000000
860183.000000
860872.000000
861572.000000
862278.000000
862942.000000
863593.000000
864251.000000
864939.000000
865679.000000
866442.000000
867193.000000
867918.000000
868653.000000
869392.000000
870121.000000
870827.000000
871542.000000
872276.000000
873023.000000
873760.000000
874493.000000
875248.000000
876023.000000
876770.000000
877502.000000
878246.000000
878987.000000
879708.000000
880427.000000
881157.000000
881907.000000
882645.000000
883372.000000
884117.000000
884874.000000
885611.000000
886340.000000
887089.000000
887854.000000
888602.000000
889334.000000
890081.000000
890823.000000
891551.000000
892270.000000
892989.000000
893718.000000
894457.000000
895186.000000
895916.000000
896662.000000
897410.000000
898148.000000
898871.000000
899606.000000
900359.000000
