ECG (ms)
857.000000
1805.000000
2752.000000
3677.000000
4578.000000
5494.000000
6431.000000
7381.000000
8340.000000
9265.000000
10191.000000
11137.000000
12096.000000
13055.000000
14016.000000
14948.000000
15884.000000
16840.000000
17794.000000
18735.000000
19672.000000
20626.000000
21605.000000
22589.000000
23577.000000
24570.000000
25562.000000
26551.000000
27525.000000
28491.000000
29470.000000
30448.000000
31413.000000
32358.000000
33287.000000
34246.000000
35215.000000
36203.000000
37199.000000
38179.000000
39142.000000
40114.000000
41115.000000
42111.000000
43110.000000
44088.000000
45040.000000
45988.000000
46954.000000
47921.000000
48892.000000
49840.000000
50785.000000
51743.000000
52731.000000
53722.000000
54721.000000
55729.000000
56728.000000
57695.000000
58643.000000
59579.000000
60520.000000
61488.000000
62471.000000
63467.000000
64477.000000
65480.000000
66470.000000
67473.000000
68471.000000
69459.000000
70431.000000
71379.000000
72330.000000
73301.000000
74277.000000
75267.000000
76271.000000
77289.000000
78278.000000
79247.000000
80216.000000
81206.000000
82200.000000
83192.000000
84177.000000
85163.000000
86134.000000
87112.000000
88113.000000
89113.000000
90114.000000
91087.000000
92046.000000
92994.000000
93965.000000
94943.000000
95928.000000
96905.000000
97877.000000
98855.000000
99822.000000
100769.000000
101704.000000
102669.000000
103648.000000
104628.000000
105617.000000
106584.000000
107541.000000
108511.000000
109510.000000
110507.000000
111499.000000
112474.000000
113439.000000
114403.000000
115339.000000
116280.000000
117231.000000
118208.000000
119194.000000
120190.000000
121168.000000
122122.000000
123066.000000
124039.000000
125030.000000
126023.000000
127013.000000
127984.000000
128937.000000
129893.000000
130881.000000
131881.000000
132881.000000
133849.000000
134805.000000
135776.000000
136759.000000
137753.000000
138747.000000
139743.000000
140741.000000
141732.000000
142715.000000
143672.000000
144656.000000
145649.000000
146648.000000
147619.000000
148603.000000
149613.000000
150634.000000
151656.000000
152636.000000
153633.000000
154646.000000
155659.000000
156632.000000
157593.000000
158566.000000
159570.000000
160587.000000
161605.000000
162621.000000
163625.000000
164590.000000
165520.000000
166442.000000
167364.000000
168313.000000
169275.000000
170235.000000
171170.000000
172110.000000
173086.000000
174068.000000
175034.000000
175983.000000
176936.000000
177910.000000
178891.000000
179858.000000
180828.000000
181776.000000
182729.000000
183708.000000
184688.000000
185670.000000
186634.000000
187607.000000
188601.000000
189587.000000
190559.000000
191511.000000
192456.000000
193429.000000
194425.000000
195425.000000
196397.000000
197356.000000
198341.000000
199321.000000
200286.000000
201231.000000
202190.000000
203176.000000
204167.000000
205155.000000
206128.000000
207091.000000
208069.000000
209066.000000
210067.000000
211067.000000
212035.000000
212983.000000
213946.000000
214927.000000
215926.000000
216923.000000
217892.000000
218858.000000
219857.000000
220847.000000
221824.000000
222779.000000
223746.000000
224728.000000
225706.000000
226678.000000
227631.000000
228566.000000
229493.000000
230446.000000
231414.000000
232412.000000
233414.000000
234417.000000
235401.000000
236396.000000
237383.000000
238359.000000
239307.000000
240261.000000
241210.000000
242145.000000
243072.000000
244033.000000
245002.000000
245984.000000
246940.000000
247888.000000
248871.000000
249856.000000
250819.000000
251774.000000
252742.000000
253704.000000
254647.000000
255614.000000
256575.000000
257525.000000
258453.000000
259405.000000
260382.000000
261377.000000
262370.000000
263352.000000
264373.000000
265388.000000
266393.000000
267364.000000
268347.000000
269326.000000
270297.000000
271246.000000
272222.000000
273198.000000
274161.000000
275109.000000
276070.000000
277043.000000
278014.000000
278976.000000
279972.000000
280976.000000
281955.000000
282942.000000
283931.000000
284901.000000
285852.000000
286828.000000
287811.000000
288773.000000
289752.000000
290736.000000
291700.000000
292657.000000
293624.000000
294567.000000
295500.000000
296467.000000
297432.000000
298386.000000
299363.000000
300336.000000
301287.000000
302253.000000
303231.000000
304189.000000
305153.000000
306136.000000
307099.000000
308068.000000
309074.000000
310066.000000
311023.000000
312005.000000
312987.000000
313946.000000
314900.000000
315871.000000
316844.000000
317792.000000
318758.000000
319731.000000
320682.000000
321651.000000
322630.000000
323592.000000
324542.000000
325526.000000
326511.000000
327471.000000
328453.000000
329443.000000
330423.000000
331382.000000
332349.000000
333284.000000
334212.000000
335137.000000
336030.000000
336929.000000
337836.000000
338748.000000
339644.000000
340556.000000
341495.000000
342425.000000
343335.000000
344244.000000
345173.000000
346102.000000
347022.000000
347967.000000
348925.000000
349846.000000
350767.000000
351708.000000
352653.000000
353629.000000
354590.000000
355530.000000
356500.000000
357470.000000
358424.000000
359364.000000
360335.000000
361323.000000
362293.000000
363263.000000
364229.000000
365178.000000
366122.000000
367092.000000
368067.000000
369035.000000
369995.000000
370978.000000
371971.000000
372924.000000
373878.000000
374843.000000
375791.000000
376724.000000
377674.000000
378626.000000
379559.000000
380517.000000
381487.000000
382432.000000
383383.000000
384352.000000
385322.000000
386259.000000
387204.000000
388167.000000
389120.000000
390067.000000
391037.000000
392008.000000
392973.000000
393919.000000
394878.000000
395801.000000
396733.000000
397652.000000
398564.000000
399503.000000
400448.000000
401399.000000
402330.000000
403292.000000
404265.000000
405215.000000
406155.000000
407117.000000
408082.000000
409036.000000
409987.000000
410971.000000
411958.000000
412916.000000
413892.000000
414871.000000
415837.000000
416787.000000
417749.000000
418709.000000
419646.000000
420574.000000
421539.000000
422509.000000
423463.000000
424421.000000
425406.000000
426386.000000
427357.000000
428315.000000
429305.000000
430287.000000
431240.000000
432191.000000
433177.000000
434170.000000
435160.000000
436130.000000
437114.000000
438118.000000
439123.000000
440086.000000
441074.000000
442053.000000
443015.000000
443976.000000
444967.000000
445966.000000
446946.000000
447915.000000
448906.000000
449887.000000
450847.000000
451817.000000
452796.000000
453739.000000
454668.000000
455616.000000
456570.000000
457500.000000
458434.000000
459395.000000
460357.000000
461295.000000
462252.000000
463216.000000
464160.000000
465091.000000
466032.000000
466967.000000
467886.000000
468835.000000
469795.000000
470736.000000
471693.000000
472648.000000
473586.000000
474529.000000
475479.000000
476424.000000
477348.000000
478288.000000
479245.000000
480186.000000
481097.000000
482025.000000
482932.000000
483811.000000
484711.000000
485627.000000
486522.000000
487430.000000
488347.000000
489255.000000
490153.000000
491069.000000
492001.000000
492942.000000
493896.000000
494863.000000
495796.000000
496731.000000
497677.000000
498627.000000
499554.000000
500477.000000
501427.000000
502359.000000
503272.000000
504201.000000
505132.000000
506043.000000
506973.000000
507910.000000
508851.000000
509787.000000
510754.000000
511725.000000
512671.000000
513619.000000
514579.000000
515528.000000
516454.000000
517398.000000
518348.000000
519279.000000
520197.000000
521138.000000
522091.000000
523039.000000
523969.000000
524919.000000
525872.000000
526815.000000
527739.000000
528676.000000
529613.000000
530526.000000
531456.000000
532406.000000
533360.000000
534298.000000
535264.000000
536228.000000
537161.000000
538101.000000
539049.000000
539971.000000
540883.000000
541826.000000
542782.000000
543722.000000
544676.000000
545636.000000
546579.000000
547516.000000
548467.000000
549418.000000
550344.000000
551288.000000
552243.000000
553180.000000
554127.000000
555095.000000
556063.000000
557018.000000
557993.000000
558967.000000
559916.000000
560880.000000
561846.000000
562785.000000
563731.000000
564689.000000
565637.000000
566578.000000
567542.000000
568502.000000
569441.000000
570410.000000
571377.000000
572333.000000
573304.000000
574254.000000
575196.000000
576166.000000
577141.000000
578087.000000
579026.000000
579989.000000
580954.000000
581907.000000
582854.000000
583831.000000
584808.000000
585763.000000
586725.000000
587696.000000
588651.000000
589591.000000
590547.000000
591493.000000
592420.000000
593369.000000
594330.000000
595272.000000
596199.000000
597150.000000
598094.000000
599010.000000
599932.000000
600870.000000
601803.000000
602720.000000
603661.000000
604612.000000
605546.000000
606472.000000
607419.000000
608371.000000
609298.000000
610244.000000
611210.000000
612148.000000
613092.000000
614044.000000
614996.000000
615921.000000
616875.000000
617824.000000
618751.000000
619703.000000
620654.000000
621591.000000
622524.000000
623472.000000
624411.000000
625325.000000
626258.000000
627198.000000
628131.000000
629069.000000
630025.000000
630968.000000
631908.000000
632871.000000
633811.000000
634739.000000
635697.000000
636656.000000
637595.000000
638547.000000
639520.000000
640480.000000
641424.000000
642401.000000
643376.000000
644319.000000
645275.000000
646237.000000
647191.000000
648118.000000
649062.000000
649968.000000
650854.000000
651759.000000
652676.000000
653584.000000
654511.000000
655455.000000
656397.000000
657309.000000
658243.000000
659175.000000
660098.000000
661017.000000
661974.000000
662941.000000
663883.000000
664842.000000
665822.000000
666798.000000
667746.000000
668709.000000
669682.000000
670624.000000
671576.000000
672550.000000
673515.000000
674466.000000
675432.000000
676404.000000
677350.000000
678298.000000
679257.000000
680221.000000
681160.000000
682121.000000
683094.000000
684063.000000
685012.000000
685986.000000
686963.000000
687914.000000
688884.000000
689857.000000
690800.000000
691752.000000
692727.000000
693697.000000
694639.000000
695596.000000
696562.000000
697520.000000
698475.000000
699450.000000
700428.000000
701401.000000
702362.000000
703340.000000
704316.000000
705269.000000
706235.000000
707213.000000
708174.000000
709128.000000
710102.000000
711075.000000
712026.000000
712987.000000
713970.000000
714950.000000
715918.000000
716907.000000
717896.000000
718847.000000
719809.000000
720775.000000
721721.000000
722679.000000
723665.000000
724638.000000
725607.000000
726601.000000
727577.000000
728559.000000
729559.000000
730546.000000
731520.000000
732523.000000
733519.000000
734491.000000
735474.000000
736420.000000
737397.000000
738380.000000
739348.000000
740342.000000
741349.000000
742316.000000
743283.000000
744281.000000
745284.000000
746259.000000
747241.000000
748231.000000
749190.000000
750141.000000
751115.000000
752075.000000
753015.000000
753976.000000
754945.000000
755898.000000
756850.000000
757824.000000
758803.000000
759759.000000
760728.000000
761716.000000
762710.000000
763682.000000
764674.000000
765673.000000
766639.000000
767614.000000
768600.000000
769581.000000
770546.000000
771532.000000
772526.000000
773486.000000
774447.000000
775436.000000
776424.000000
777389.000000
778336.000000
779305.000000
780273.000000
781216.000000
782165.000000
783128.000000
784083.000000
785028.000000
785989.000000
786968.000000
787932.000000
788882.000000
789859.000000
790834.000000
791771.000000
792714.000000
793670.000000
794618.000000
795557.000000
796522.000000
797489.000000
798442.000000
799396.000000
800371.000000
801348.000000
802297.000000
803265.000000
804252.000000
805238.000000
806200.000000
807190.000000
808180.000000
809175.000000
810142.000000
811130.000000
812109.000000
813058.000000
814032.000000
815009.000000
815987.000000
816945.000000
817919.000000
818903.000000
819875.000000
820846.000000
821831.000000
822809.000000
823773.000000
824763.000000
825742.000000
826706.000000
827693.000000
828690.000000
829664.000000
830654.000000
831657.000000
832651.000000
833621.000000
834611.000000
835597.000000
836560.000000
837524.000000
838495.000000
839473.000000
840429.000000
841403.000000
842387.000000
843381.000000
844366.000000
845372.000000
846375.000000
847349.000000
848308.000000
849294.000000
850282.000000
851246.000000
852193.000000
853170.000000
854146.000000
855085.000000
856014.000000
856969.000000
857898.000000
858853.000000
859790.000000
860701.000000
861607.000000
862521.000000
863422.000000
864329.000000
865251.000000
866179.000000
867117.000000
868036.000000
868981.000000
869937.000000
870898.000000
871824.000000
872792.000000
873755.000000
874718.000000
875665.000000
876647.000000
877645.000000
878646.000000
879613.000000
880603.000000
881592.000000
882539.000000
883499.000000
884473.000000
885457.000000
886401.000000
887369.000000
888344.000000
889324.000000
890292.000000
891241.000000
892214.000000
893195.000000
894184.000000
895149.000000
896107.000000
897085.000000
898061.000000
899028.000000
