ECG (ms)
1069.000000
2180.000000
3297.000000
4384.000000
5508.000000
6670.000000
7778.000000
8923.000000
10044.000000
11175.000000
12312.000000
13424.000000
14594.000000
15756.000000
16896.000000
18055.000000
19160.000000
20292.000000
21387.000000
22497.000000
23617.000000
24706.000000
25817.000000
26950.000000
28050.000000
29183.000000
30325.000000
31419.000000
32493.000000
33583.000000
34723.000000
35858.000000
36946.000000
38030.000000
39156.000000
40271.000000
41358.000000
42475.000000
43569.000000
44648.000000
45734.000000
46799.000000
47896.000000
48969.000000
50037.000000
51132.000000
52219.000000
53321.000000
54454.000000
55533.000000
56595.000000
57678.000000
58765.000000
59826.000000
60923.000000
62050.000000
63171.000000
64331.000000
65452.000000
66545.000000
67659.000000
68764.000000
69834.000000
70981.000000
72083.000000
73213.000000
74403.000000
75520.000000
76645.000000
77743.000000
78849.000000
79976.000000
81061.000000
82180.000000
83313.000000
84393.000000
85469.000000
86596.000000
87670.000000
88725.000000
89810.000000
90896.000000
91941.000000
93031.000000
94084.000000
95137.000000
96233.000000
97264.000000
98230.000000
99193.000000
100158.000000
101125.000000
102086.000000
103184.000000
104490.000000
105642.000000
106734.000000
107856.000000
109022.000000
110123.000000
111203.000000
112299.000000
113358.000000
114406.000000
115464.000000
116478.000000
117547.000000
118651.000000
119677.000000
120782.000000
121876.000000
122907.000000
124003.000000
125112.000000
126252.000000
127337.000000
128438.000000
129586.000000
130716.000000
131794.000000
132910.000000
134027.000000
135097.000000
136155.000000
137276.000000
138400.000000
139479.000000
140596.000000
141685.000000
142718.000000
143813.000000
144917.000000
145966.000000
147089.000000
148236.000000
149323.000000
150469.000000
151529.000000
152590.000000
153746.000000
154835.000000
155937.000000
157049.000000
158119.000000
159274.000000
160370.000000
161450.000000
162523.000000
163602.000000
164680.000000
165759.000000
166836.000000
167909.000000
169076.000000
170259.000000
171365.000000
172520.000000
173614.000000
174712.000000
175814.000000
176913.000000
178051.000000
179161.000000
180296.000000
181439.000000
182541.000000
183641.000000
184802.000000
185964.000000
187048.000000
188108.000000
189168.000000
190304.000000
191483.000000
192664.000000
193816.000000
194968.000000
196087.000000
197167.000000
198253.000000
199376.000000
200481.000000
201552.000000
202640.000000
203712.000000
204757.000000
205828.000000
206917.000000
208007.000000
209053.000000
210144.000000
211216.000000
212259.000000
213321.000000
214401.000000
215474.000000
216514.000000
217543.000000
218607.000000
219725.000000
220842.000000
221949.000000
223047.000000
224147.000000
225318.000000
226502.000000
227612.000000
228700.000000
229741.000000
230765.000000
231818.000000
232959.000000
234141.000000
235314.000000
236471.000000
237591.000000
238719.000000
239865.000000
240984.000000
242078.000000
243142.000000
244207.000000
245290.000000
246369.000000
247439.000000
248555.000000
249656.000000
250781.000000
251902.000000
252983.000000
254053.000000
255169.000000
256271.000000
257385.000000
258549.000000
259691.000000
260804.000000
261931.000000
263084.000000
264177.000000
265278.000000
266390.000000
267475.000000
268597.000000
269680.000000
270790.000000
271892.000000
272943.000000
274041.000000
275144.000000
276201.000000
277252.000000
278332.000000
279418.000000
280472.000000
281550.000000
282592.000000
283602.000000
284613.000000
285725.000000
286810.000000
287868.000000
288891.000000
289931.000000
291005.000000
292063.000000
293073.000000
294019.000000
294984.000000
296016.000000
297102.000000
298152.000000
299192.000000
300246.000000
301281.000000
302293.000000
303357.000000
304470.000000
305554.000000
306624.000000
307747.000000
308857.000000
309923.000000
311013.000000
312087.000000
313214.000000
314355.000000
315400.000000
316469.000000
317611.000000
318739.000000
319869.000000
321068.000000
322278.000000
323435.000000
324543.000000
325603.000000
326681.000000
327778.000000
328845.000000
329958.000000
331103.000000
332217.000000
333339.000000
334413.000000
335514.000000
336571.000000
337604.000000
338711.000000
339797.000000
340844.000000
341948.000000
343075.000000
344132.000000
345224.000000
346390.000000
347534.000000
348613.000000
349689.000000
350818.000000
351959.000000
353067.000000
354174.000000
355279.000000
356319.000000
357434.000000
358552.000000
359649.000000
360772.000000
361851.000000
362942.000000
364042.000000
365108.000000
366161.000000
367217.000000
368319.000000
369393.000000
370430.000000
371526.000000
372581.000000
373653.000000
374769.000000
375832.000000
376970.000000
378092.000000
379152.000000
380272.000000
381358.000000
382442.000000
383526.000000
384547.000000
385606.000000
386710.000000
387823.000000
389060.000000
390191.000000
391338.000000
392425.000000
393494.000000
394572.000000
395579.000000
396593.000000
397649.000000
398688.000000
399774.000000
400899.000000
401964.000000
403053.000000
404135.000000
405227.000000
406285.000000
407341.000000
408413.000000
409500.000000
410536.000000
411527.000000
412480.000000
413522.000000
414692.000000
415766.000000
416822.000000
417884.000000
419027.000000
420210.000000
421356.000000
422505.000000
423591.000000
424651.000000
425747.000000
426856.000000
427908.000000
428911.000000
429908.000000
431038.000000
432203.000000
433314.000000
434394.000000
435512.000000
436617.000000
437670.000000
438730.000000
439759.000000
440741.000000
441765.000000
442810.000000
443852.000000
444948.000000
446022.000000
447079.000000
448194.000000
449356.000000
450444.000000
451563.000000
452629.000000
453687.000000
454776.000000
455822.000000
456891.000000
458010.000000
459078.000000
460077.000000
461134.000000
462226.000000
463251.000000
464316.000000
465352.000000
466389.000000
467442.000000
468465.000000
469516.000000
470591.000000
471620.000000
472630.000000
473675.000000
474723.000000
475782.000000
476874.000000
477916.000000
478955.000000
480048.000000
481122.000000
482198.000000
483309.000000
484433.000000
485582.000000
486687.000000
487758.000000
488865.000000
489905.000000
490897.000000
491929.000000
492977.000000
494015.000000
495254.000000
496394.000000
497483.000000
498629.000000
499676.000000
500714.000000
501758.000000
502742.000000
503781.000000
504805.000000
505835.000000
506906.000000
507955.000000
509043.000000
510093.000000
511098.000000
512135.000000
513178.000000
514221.000000
515319.000000
516388.000000
517435.000000
518486.000000
519526.000000
520611.000000
521689.000000
522769.000000
523912.000000
525022.000000
526128.000000
527257.000000
528362.000000
529450.000000
530553.000000
531630.000000
532700.000000
533783.000000
534821.000000
535860.000000
536955.000000
538036.000000
539115.000000
540248.000000
541382.000000
542497.000000
543651.000000
544747.000000
545836.000000
546937.000000
548012.000000
549131.000000
550238.000000
551346.000000
552489.000000
553588.000000
554696.000000
555824.000000
556920.000000
558047.000000
559165.000000
560267.000000
561385.000000
562457.000000
563551.000000
564619.000000
565656.000000
566753.000000
567855.000000
568991.000000
570146.000000
571232.000000
572323.000000
573404.000000
574489.000000
575604.000000
576696.000000
577820.000000
578968.000000
580071.000000
581204.000000
582334.000000
583433.000000
584547.000000
585638.000000
586727.000000
587845.000000
588938.000000
590039.000000
591153.000000
592284.000000
593438.000000
594551.000000
595677.000000
596762.000000
597856.000000
598960.000000
600062.000000
601199.000000
602292.000000
603390.000000
604489.000000
605555.000000
606646.000000
607712.000000
608761.000000
609847.000000
610897.000000
611947.000000
613031.000000
614077.000000
615125.000000
616176.000000
617200.000000
618208.000000
619231.000000
620295.000000
621338.000000
622396.000000
623472.000000
624537.000000
625633.000000
626712.000000
627807.000000
628897.000000
629982.000000
631093.000000
632201.000000
633331.000000
634443.000000
635519.000000
636620.000000
637699.000000
638731.000000
639748.000000
640794.000000
641830.000000
642863.000000
643924.000000
644948.000000
646001.000000
647063.000000
648092.000000
649160.000000
650259.000000
651342.000000
652430.000000
653539.000000
654635.000000
655764.000000
656888.000000
657998.000000
659112.000000
660187.000000
661270.000000
662359.000000
663438.000000
664581.000000
665685.000000
666764.000000
667903.000000
669007.000000
670168.000000
671321.000000
672474.000000
673673.000000
674846.000000
676023.000000
677185.000000
678327.000000
679454.000000
680564.000000
681730.000000
682847.000000
683971.000000
685107.000000
686197.000000
687311.000000
688402.000000
689513.000000
690637.000000
691725.000000
692878.000000
693996.000000
695100.000000
696236.000000
697337.000000
698458.000000
699594.000000
700701.000000
701796.000000
702852.000000
703943.000000
705054.000000
706099.000000
707211.000000
708315.000000
709406.000000
710522.000000
711609.000000
712687.000000
713821.000000
714920.000000
716003.000000
717063.000000
718112.000000
719234.000000
720341.000000
721463.000000
722535.000000
723620.000000
724788.000000
725940.000000
727081.000000
728308.000000
729469.000000
730644.000000
731824.000000
732952.000000
734129.000000
735299.000000
736418.000000
737614.000000
738719.000000
739793.000000
740900.000000
741964.000000
743028.000000
744124.000000
745152.000000
746148.000000
747273.000000
748447.000000
749515.000000
750576.000000
751647.000000
752630.000000
753588.000000
754570.000000
755538.000000
756527.000000
757614.000000
758680.000000
759711.000000
760745.000000
761823.000000
762927.000000
764000.000000
765087.000000
766172.000000
767248.000000
768351.000000
769367.000000
770333.000000
771343.000000
772343.000000
773387.000000
774474.000000
775530.000000
776525.000000
777485.000000
778491.000000
779510.000000
780586.000000
781615.000000
782605.000000
783649.000000
784757.000000
785863.000000
786890.000000
787840.000000
788846.000000
789933.000000
790972.000000
792009.000000
793119.000000
794253.000000
795317.000000
796347.000000
797406.000000
798471.000000
799511.000000
800604.000000
801713.000000
802782.000000
803911.000000
805064.000000
806122.000000
807230.000000
808327.000000
809342.000000
810366.000000
811383.000000
812342.000000
813346.000000
814411.000000
815433.000000
816511.000000
817623.000000
818692.000000
819801.000000
820873.000000
821935.000000
823014.000000
824064.000000
825198.000000
826306.000000
827454.000000
828523.000000
829597.000000
830694.000000
831770.000000
832918.000000
834024.000000
835142.000000
836240.000000
837283.000000
838387.000000
839422.000000
840484.000000
841522.000000
842568.000000
843697.000000
844791.000000
845906.000000
846984.000000
848041.000000
849149.000000
850196.000000
851287.000000
852367.000000
853386.000000
854448.000000
855496.000000
856602.000000
857680.000000
858810.000000
859917.000000
860975.000000
862048.000000
863079.000000
864174.000000
865225.000000
866308.000000
867374.000000
868418.000000
869566.000000
870672.000000
871833.000000
872950.000000
874060.000000
875179.000000
876257.000000
877368.000000
878423.000000
879440.000000
880475.000000
881494.000000
882656.000000
883744.000000
884977.000000
886094.000000
887253.000000
888318.000000
889409.000000
890480.000000
891508.000000
892639.000000
893734.000000
894832.000000
895941.000000
897037.000000
898201.000000
899287.000000
900402.000000
901515.000000
902606.000000
903768.000000
904880.000000
906028.000000
907178.000000
908303.000000
909495.000000
910604.000000
911727.000000
912856.000000
913971.000000
915101.000000
916207.000000
917377.000000
918492.000000
919616.000000
920739.000000
921803.000000
922933.000000
924063.000000
925176.000000
926333.000000
927417.000000
928567.000000
929671.000000
930761.000000
931828.000000
932916.000000
934037.000000
935124.000000
936282.000000
937434.000000
938517.000000
939628.000000
940698.000000
941786.000000
942867.000000
943937.000000
945045.000000
946139.000000
947275.000000
948381.000000
949499.000000
950634.000000
951723.000000
952839.000000
953918.000000
954996.000000
956111.000000
957188.000000
958269.000000
959370.000000
960419.000000
961572.000000
962646.000000
963809.000000
964973.000000
966116.000000
967215.000000
968220.000000
969168.000000
970218.000000
971369.000000
972482.000000
973565.000000
974710.000000
975775.000000
976880.000000
977956.000000
978976.000000
979995.000000
980975.000000
981980.000000
982995.000000
983995.000000
985015.000000
986013.000000
987037.000000
988040.000000
989069.000000
990094.000000
991173.000000
992267.000000
993336.000000
994466.000000
995554.000000
996659.000000
997747.000000
998828.000000
999909.000000
1001043.000000
1002130.000000
1003239.000000
1004397.000000
1005482.000000
1006604.000000
1007722.000000
1008813.000000
1009969.000000
1011070.000000
1012215.000000
1013271.000000
1014339.000000
1015446.000000
1016509.000000
1017604.000000
1018650.000000
1019714.000000
1020834.000000
1021893.000000
1023002.000000
1024061.000000
1025116.000000
1026194.000000
1027216.000000
1028317.000000
1029334.000000
1030346.000000
1031376.000000
1032382.000000
1033431.000000
1034555.000000
1035649.000000
1036740.000000
1037795.000000
1038869.000000
1039937.000000
1040963.000000
1042061.000000
1043152.000000
1044260.000000
1045342.000000
1046401.000000
1047481.000000
1048531.000000
1049625.000000
1050680.000000
1051796.000000
1052894.000000
1054017.000000
1055113.000000
1056203.000000
1057278.000000
1058321.000000
1059359.000000
1060323.000000
1061273.000000
1062273.000000
1063507.000000
1064617.000000
1065755.000000
1066905.000000
1068006.000000
1069098.000000
1070116.000000
1071111.000000
1072176.000000
1073231.000000
1074307.000000
1075372.000000
1076420.000000
1077518.000000
1078521.000000
1079482.000000
1080460.000000
1081571.000000
1082667.000000
1083720.000000
1084752.000000
1085878.000000
1087005.000000
1088087.000000
1089186.000000
1090248.000000
1091321.000000
1092367.000000
1093436.000000
1094496.000000
1095553.000000
1096642.000000
1097701.000000
1098749.000000
1099817.000000
1100857.000000
1101926.000000
1102989.000000
1104044.000000
1105139.000000
1106246.000000
1107386.000000
1108581.000000
1109705.000000
1110841.000000
1111973.000000
1113080.000000
1114198.000000
1115283.000000
1116398.000000
1117513.000000
1118612.000000
1119735.000000
1120828.000000
1121937.000000
1122982.000000
1124037.000000
1125083.000000
1126114.000000
1127170.000000
1128224.000000
1129296.000000
1130416.000000
1131526.000000
1132623.000000
1133684.000000
1134754.000000
1135800.000000
1136838.000000
1137889.000000
1138902.000000
1139904.000000
1140908.000000
1141893.000000
1142924.000000
1143970.000000
1145029.000000
1146113.000000
1147197.000000
1148292.000000
1149337.000000
1150349.000000
1151360.000000
1152357.000000
1153400.000000
1154504.000000
1155616.000000
1156767.000000
1157877.000000
1159013.000000
1160103.000000
1161202.000000
1162262.000000
1163329.000000
1164392.000000
1165444.000000
1166506.000000
1167576.000000
1168667.000000
1169725.000000
1170798.000000
1171877.000000
1172997.000000
1174127.000000
1175206.000000
1176321.000000
1177378.000000
1178453.000000
1179546.000000
1180558.000000
1181674.000000
1182730.000000
1183840.000000
1184948.000000
1186132.000000
1187313.000000
1188418.000000
1189548.000000
1190598.000000
1191723.000000
1192888.000000
1193963.000000
