ECG (ms)
512.000000
1333.000000
2097.000000
2847.000000
3581.000000
4334.000000
5147.000000
5996.000000
6845.000000
7697.000000
8486.000000
9252.000000
9997.000000
10733.000000
11486.000000
12261.000000
13075.000000
13926.000000
14795.000000
15664.000000
16521.000000
17336.000000
18112.000000
18867.000000
19617.000000
20375.000000
21176.000000
22017.000000
22870.000000
23729.000000
24589.000000
25427.000000
26256.000000
27062.000000
27833.000000
28594.000000
29346.000000
30100.000000
30887.000000
31729.000000
32600.000000
33463.000000
34311.000000
35142.000000
35941.000000
36749.000000
37546.000000
38322.000000
39085.000000
39820.000000
40558.000000
41295.000000
42040.000000
42808.000000
43621.000000
44487.000000
45358.000000
46216.000000
47055.000000
47884.000000
48695.000000
49486.000000
50271.000000
51054.000000
51838.000000
52600.000000
53350.000000
54095.000000
54846.000000
55615.000000
56406.000000
57246.000000
58148.000000
59035.000000
59909.000000
60770.000000
61610.000000
62420.000000
63205.000000
63987.000000
64755.000000
65528.000000
66287.000000
67036.000000
67785.000000
68535.000000
69292.000000
70080.000000
70911.000000
71785.000000
72656.000000
73507.000000
74342.000000
75151.000000
75919.000000
76646.000000
77362.000000
78085.000000
78830.000000
79592.000000
80352.000000
81102.000000
81875.000000
82678.000000
83526.000000
84398.000000
85260.000000
86095.000000
86915.000000
87706.000000
88477.000000
89251.000000
90022.000000
90786.000000
91547.000000
92301.000000
93054.000000
93805.000000
94582.000000
95429.000000
96322.000000
97201.000000
98066.000000
98913.000000
99734.000000
100527.000000
101301.000000
102078.000000
102863.000000
103662.000000
104451.000000
105240.000000
106016.000000
106784.000000
107555.000000
108351.000000
109209.000000
110098.000000
110982.000000
111842.000000
112668.000000
113473.000000
114265.000000
115058.000000
115849.000000
116647.000000
117450.000000
118248.000000
119030.000000
119798.000000
120555.000000
121313.000000
122073.000000
122884.000000
123800.000000
124722.000000
125634.000000
126527.000000
127396.000000
128236.000000
129054.000000
129855.000000
130648.000000
131443.000000
132247.000000
133045.000000
133828.000000
134591.000000
135345.000000
136091.000000
136846.000000
137639.000000
138475.000000
139326.000000
140174.000000
141000.000000
141811.000000
142600.000000
143382.000000
144164.000000
144950.000000
145727.000000
146492.000000
147246.000000
147986.000000
148721.000000
149465.000000
150251.000000
151080.000000
151917.000000
152745.000000
153564.000000
154362.000000
155144.000000
155921.000000
156680.000000
157440.000000
158169.000000
158893.000000
159605.000000
160315.000000
161037.000000
161834.000000
162698.000000
163573.000000
164436.000000
165298.000000
166165.000000
167008.000000
167828.000000
168630.000000
169416.000000
170203.000000
170959.000000
171700.000000
172432.000000
173161.000000
173904.000000
174670.000000
175525.000000
176400.000000
177268.000000
178120.000000
178958.000000
179795.000000
180615.000000
181406.000000
182203.000000
183000.000000
183788.000000
184553.000000
185301.000000
186042.000000
186783.000000
187540.000000
188335.000000
189202.000000
190082.000000
190953.000000
191792.000000
192635.000000
193451.000000
194267.000000
195077.000000
195884.000000
196681.000000
197447.000000
198207.000000
198960.000000
199709.000000
200457.000000
201215.000000
202030.000000
202873.000000
203722.000000
204551.000000
205370.000000
206165.000000
206942.000000
207709.000000
208479.000000
209249.000000
210005.000000
210762.000000
211512.000000
212255.000000
212998.000000
213758.000000
214545.000000
215401.000000
216286.000000
217157.000000
218001.000000
218815.000000
219618.000000
220406.000000
221214.000000
222011.000000
222833.000000
223658.000000
224454.000000
225230.000000
225989.000000
226735.000000
227481.000000
228238.000000
229032.000000
229863.000000
230697.000000
231525.000000
232349.000000
233152.000000
233934.000000
234698.000000
235445.000000
236184.000000
236910.000000
237638.000000
238370.000000
239106.000000
239856.000000
240630.000000
241443.000000
242294.000000
243135.000000
243965.000000
244785.000000
245577.000000
246352.000000
247117.000000
247871.000000
248626.000000
249372.000000
250118.000000
250857.000000
251596.000000
252345.000000
253120.000000
253927.000000
254782.000000
255660.000000
256512.000000
257345.000000
258155.000000
258947.000000
259725.000000
260500.000000
261253.000000
262004.000000
262738.000000
263468.000000
264206.000000
264976.000000
265808.000000
266660.000000
267504.000000
268332.000000
269144.000000
269934.000000
270713.000000
271480.000000
272230.000000
272961.000000
273689.000000
274410.000000
275133.000000
275874.000000
276639.000000
277440.000000
278275.000000
279107.000000
279928.000000
280730.000000
281505.000000
282266.000000
283022.000000
283772.000000
284521.000000
285251.000000
285983.000000
286711.000000
287441.000000
288186.000000
288955.000000
289765.000000
290611.000000
291465.000000
292304.000000
293119.000000
293917.000000
294698.000000
295464.000000
296226.000000
296993.000000
297738.000000
298488.000000
299232.000000
299968.000000
300711.000000
301463.000000
302250.000000
303077.000000
303917.000000
304740.000000
305548.000000
306339.000000
307112.000000
307881.000000
308651.000000
309418.000000
310167.000000
310911.000000
311655.000000
312403.000000
313164.000000
313964.000000
314784.000000
315652.000000
316536.000000
317414.000000
318303.000000
319165.000000
320001.000000
320826.000000
321641.000000
322469.000000
323260.000000
324032.000000
324790.000000
325539.000000
326310.000000
327145.000000
328064.000000
328964.000000
329877.000000
330780.000000
331663.000000
332532.000000
333351.000000
334136.000000
334905.000000
335655.000000
336403.000000
337167.000000
337979.000000
338891.000000
339828.000000
340741.000000
341653.000000
342528.000000
343360.000000
344164.000000
344955.000000
345752.000000
346534.000000
347305.000000
348071.000000
348834.000000
349597.000000
350378.000000
351200.000000
352071.000000
352955.000000
353834.000000
354682.000000
355494.000000
356290.000000
357075.000000
357850.000000
358638.000000
359412.000000
360185.000000
360950.000000
361713.000000
362475.000000
363253.000000
364043.000000
364854.000000
365713.000000
366573.000000
367416.000000
368230.000000
369027.000000
369799.000000
370568.000000
371350.000000
372133.000000
372919.000000
373700.000000
374464.000000
375211.000000
375947.000000
376680.000000
377421.000000
378195.000000
379018.000000
379876.000000
380722.000000
381563.000000
382386.000000
383195.000000
383994.000000
384785.000000
385544.000000
386289.000000
387027.000000
387768.000000
388526.000000
389323.000000
390143.000000
390976.000000
391808.000000
392628.000000
393417.000000
394179.000000
394934.000000
395684.000000
396428.000000
397186.000000
397955.000000
398780.000000
399661.000000
400549.000000
401408.000000
402247.000000
403070.000000
403863.000000
404645.000000
405429.000000
406208.000000
406992.000000
407770.000000
408532.000000
409281.000000
410026.000000
410770.000000
411525.000000
412313.000000
413172.000000
414046.000000
414905.000000
415760.000000
416598.000000
417410.000000
418210.000000
419002.000000
419778.000000
420545.000000
421310.000000
422085.000000
422900.000000
423723.000000
424547.000000
425365.000000
426177.000000
426971.000000
427733.000000
428486.000000
429218.000000
429942.000000
430667.000000
431408.000000
432206.000000
433063.000000
433926.000000
434771.000000
435605.000000
436436.000000
437247.000000
438046.000000
438835.000000
439613.000000
440386.000000
441132.000000
441876.000000
442615.000000
443356.000000
444103.000000
444869.000000
445681.000000
446523.000000
447387.000000
448255.000000
449098.000000
449919.000000
450716.000000
451499.000000
452269.000000
453043.000000
453803.000000
454561.000000
455308.000000
456050.000000
456792.000000
457562.000000
458357.000000
459170.000000
459980.000000
460784.000000
461582.000000
462365.000000
463129.000000
463882.000000
464622.000000
465358.000000
466095.000000
466835.000000
467609.000000
468442.000000
469321.000000
470205.000000
471069.000000
471917.000000
472739.000000
473555.000000
474350.000000
475115.000000
475871.000000
476629.000000
477381.000000
478142.000000
478921.000000
479737.000000
480517.000000
481268.000000
482042.000000
482830.000000
483610.000000
484381.000000
485151.000000
485913.000000
486654.000000
487381.000000
488100.000000
488816.000000
489533.000000
490265.000000
491015.000000
491848.000000
492746.000000
493645.000000
494523.000000
495377.000000
496201.000000
497014.000000
497798.000000
498581.000000
499368.000000
500168.000000
500968.000000
501746.000000
502512.000000
503271.000000
504027.000000
504799.000000
505609.000000
506476.000000
507361.000000
508234.000000
509090.000000
509929.000000
510755.000000
511571.000000
512400.000000
513248.000000
514083.000000
514905.000000
515708.000000
516495.000000
517272.000000
518050.000000
518840.000000
519664.000000
520550.000000
521454.000000
522339.000000
523211.000000
524067.000000
524896.000000
525707.000000
526510.000000
527300.000000
528075.000000
528842.000000
529606.000000
530366.000000
531130.000000
531918.000000
532769.000000
533637.000000
534489.000000
535326.000000
536151.000000
536955.000000
537753.000000
538537.000000
539314.000000
540090.000000
540850.000000
541609.000000
542356.000000
543100.000000
543850.000000
544627.000000
545472.000000
546351.000000
547219.000000
548071.000000
548900.000000
549705.000000
550503.000000
551276.000000
552043.000000
552800.000000
553559.000000
554322.000000
555089.000000
555856.000000
556627.000000
557414.000000
558226.000000
559094.000000
559965.000000
560840.000000
561690.000000
562514.000000
563324.000000
564124.000000
564926.000000
565730.000000
566530.000000
567340.000000
568143.000000
568927.000000
569700.000000
570465.000000
571225.000000
571990.000000
572775.000000
573599.000000
574506.000000
575436.000000
576357.000000
577238.000000
578101.000000
578938.000000
579756.000000
580565.000000
581381.000000
582210.000000
583021.000000
583818.000000
584601.000000
585369.000000
586132.000000
586904.000000
587696.000000
588518.000000
589427.000000
590374.000000
591310.000000
592224.000000
593112.000000
593971.000000
594792.000000
595596.000000
596404.000000
597208.000000
598013.000000
598817.000000
599599.000000
600374.000000
601143.000000
601920.000000
602713.000000
603562.000000
604479.000000
605387.000000
606266.000000
607114.000000
607943.000000
608747.000000
609538.000000
610331.000000
611127.000000
611930.000000
612709.000000
613484.000000
614237.000000
614989.000000
615753.000000
616570.000000
617469.000000
618398.000000
619325.000000
620237.000000
621116.000000
621966.000000
622792.000000
623605.000000
624408.000000
625200.000000
625985.000000
626754.000000
627509.000000
628275.000000
629069.000000
629916.000000
630837.000000
631759.000000
632651.000000
633514.000000
634365.000000
635182.000000
635987.000000
636787.000000
637582.000000
638375.000000
639157.000000
639931.000000
640702.000000
641479.000000
642257.000000
643059.000000
643917.000000
644804.000000
645692.000000
646571.000000
647409.000000
648221.000000
649020.000000
649815.000000
650614.000000
651395.000000
652176.000000
652955.000000
653730.000000
654506.000000
655297.000000
656117.000000
657000.000000
657891.000000
658761.000000
659607.000000
660425.000000
661213.000000
661990.000000
662762.000000
663536.000000
664321.000000
665099.000000
665875.000000
666643.000000
667411.000000
668176.000000
668956.000000
669762.000000
670607.000000
671460.000000
672306.000000
673131.000000
673941.000000
674741.000000
675526.000000
676306.000000
677080.000000
677843.000000
678602.000000
679356.000000
680112.000000
680873.000000
681672.000000
682526.000000
683417.000000
684298.000000
685175.000000
686043.000000
686882.000000
687694.000000
688493.000000
689278.000000
690072.000000
690838.000000
691601.000000
692353.000000
693105.000000
693864.000000
694653.000000
695487.000000
696354.000000
697229.000000
698082.000000
698924.000000
699747.000000
700558.000000
701355.000000
702138.000000
702916.000000
703686.000000
704459.000000
705228.000000
706002.000000
706781.000000
707582.000000
708418.000000
709298.000000
710190.000000
711076.000000
711943.000000
712795.000000
713617.000000
714432.000000
715234.000000
716040.000000
716851.000000
717648.000000
718427.000000
719191.000000
719949.000000
720711.000000
721490.000000
722337.000000
723235.000000
724140.000000
725035.000000
725903.000000
726739.000000
727556.000000
728366.000000
729169.000000
729956.000000
730739.000000
731517.000000
732290.000000
733082.000000
733898.000000
734760.000000
735639.000000
736509.000000
737366.000000
738192.000000
739004.000000
739815.000000
740609.000000
741394.000000
742157.000000
742927.000000
743689.000000
744455.000000
745233.000000
746025.000000
746837.000000
747675.000000
748542.000000
749436.000000
750297.000000
751141.000000
751973.000000
752789.000000
753610.000000
754437.000000
755260.000000
756076.000000
756874.000000
757663.000000
758446.000000
759221.000000
760008.000000
760825.000000
761679.000000
762580.000000
763475.000000
764346.000000
765193.000000
766018.000000
766827.000000
767639.000000
768459.000000
769292.000000
770096.000000
770893.000000
771674.000000
772453.000000
773236.000000
774041.000000
774900.000000
775797.000000
776698.000000
777593.000000
778471.000000
779329.000000
780180.000000
781014.000000
781830.000000
782642.000000
783450.000000
784268.000000
785081.000000
785889.000000
786696.000000
787510.000000
788340.000000
789170.000000
789983.000000
790783.000000
791566.000000
792338.000000
793110.000000
793908.000000
794739.000000
795592.000000
796474.000000
797369.000000
798233.000000
799083.000000
799923.000000
800751.000000
801568.000000
802360.000000
803145.000000
803923.000000
804697.000000
805476.000000
806278.000000
807118.000000
807981.000000
808847.000000
809722.000000
810589.000000
811426.000000
812243.000000
813050.000000
813834.000000
814611.000000
815366.000000
816125.000000
816888.000000
817682.000000
818542.000000
819426.000000
820316.000000
821193.000000
822006.000000
822774.000000
823537.000000
824309.000000
825071.000000
825827.000000
826577.000000
827318.000000
828062.000000
828819.000000
829627.000000
830485.000000
831352.000000
832209.000000
833051.000000
833890.000000
834715.000000
835523.000000
836315.000000
837097.000000
837880.000000
838669.000000
839485.000000
840341.000000
841273.000000
842194.000000
843084.000000
843956.000000
844790.000000
845612.000000
846420.000000
847232.000000
848012.000000
848797.000000
849592.000000
850382.000000
851171.000000
851981.000000
852770.000000
853562.000000
854349.000000
855139.000000
855956.000000
856786.000000
857621.000000
858446.000000
859268.000000
860085.000000
860887.000000
861674.000000
862440.000000
863202.000000
863957.000000
864722.000000
865496.000000
866308.000000
867163.000000
868047.000000
868932.000000
869798.000000
870634.000000
871448.000000
872248.000000
873036.000000
873819.000000
874599.000000
875371.000000
876128.000000
876869.000000
877620.000000
878395.000000
879237.000000
880124.000000
881030.000000
881925.000000
882801.000000
883664.000000
884513.000000
885335.000000
886125.000000
886902.000000
887668.000000
888421.000000
889185.000000
889960.000000
890750.000000
891561.000000
892422.000000
893332.000000
894236.000000
895122.000000
895971.000000
896804.000000
897621.000000
898487.000000
899332.000000
900158.000000
900986.000000
