ECG (ms)
406.000000
1252.000000
2289.000000
3196.000000
4161.000000
5062.000000
5918.000000
6777.000000
7585.000000
8415.000000
9262.000000
10102.000000
11007.000000
11972.000000
12871.000000
13814.000000
14661.000000
15498.000000
16334.000000
17106.000000
17937.000000
18791.000000
19622.000000
20492.000000
21406.000000
22238.000000
23082.000000
23919.000000
24718.000000
25551.000000
26329.000000
27118.000000
27916.000000
28696.000000
29487.000000
30314.000000
31079.000000
31871.000000
32652.000000
33463.000000
34334.000000
35211.000000
35998.000000
36759.000000
37568.000000
38460.000000
39334.000000
40185.000000
40992.000000
41762.000000
42551.000000
43340.000000
44107.000000
44903.000000
45753.000000
46570.000000
47444.000000
48402.000000
49269.000000
50101.000000
50954.000000
51774.000000
52583.000000
53487.000000
54439.000000
55276.000000
56178.000000
57088.000000
57923.000000
58830.000000
59770.000000
60604.000000
61456.000000
62355.000000
63194.000000
63999.000000
64916.000000
66053.000000
66980.000000
67859.000000
68813.000000
69691.000000
70522.000000
71363.000000
72137.000000
72876.000000
73624.000000
74391.000000
75235.000000
76375.000000
77328.000000
78286.000000
79268.000000
80098.000000
80924.000000
81824.000000
82677.000000
83550.000000
84553.000000
85401.000000
86282.000000
87179.000000
88010.000000
88916.000000
89987.000000
90889.000000
91863.000000
92838.000000
93767.000000
94821.000000
95821.000000
96694.000000
97623.000000
98575.000000
99441.000000
100402.000000
101402.000000
102313.000000
103269.000000
104145.000000
105009.000000
105953.000000
106841.000000
107688.000000
108585.000000
109478.000000
110312.000000
111215.000000
112117.000000
112936.000000
113750.000000
114628.000000
115570.000000
116532.000000
117371.000000
118263.000000
119146.000000
119967.000000
120846.000000
121834.000000
122684.000000
123546.000000
124450.000000
125308.000000
126103.000000
126985.000000
128029.000000
128899.000000
129795.000000
130739.000000
131582.000000
132426.000000
133383.000000
134225.000000
135105.000000
136127.000000
136990.000000
137906.000000
138808.000000
139625.000000
140488.000000
141377.000000
142213.000000
143102.000000
144128.000000
145034.000000
145981.000000
146975.000000
147818.000000
148683.000000
149581.000000
150416.000000
151348.000000
152480.000000
153388.000000
154339.000000
155362.000000
156222.000000
157120.000000
158080.000000
158949.000000
159998.000000
160995.000000
161832.000000
162683.000000
163570.000000
164422.000000
165552.000000
166692.000000
167713.000000
168803.000000
169811.000000
170700.000000
171721.000000
172708.000000
173573.000000
174489.000000
175492.000000
176389.000000
177362.000000
178277.000000
179157.000000
180119.000000
181064.000000
181954.000000
182862.000000
183725.000000
184525.000000
185357.000000
186272.000000
187138.000000
188100.000000
189061.000000
189921.000000
190806.000000
191666.000000
192526.000000
193432.000000
194281.000000
195168.000000
196093.000000
196974.000000
197945.000000
198925.000000
199776.000000
200702.000000
201655.000000
202531.000000
203538.000000
204596.000000
205490.000000
206405.000000
207374.000000
208244.000000
209165.000000
210173.000000
211038.000000
211959.000000
212919.000000
213849.000000
214851.000000
215749.000000
216634.000000
217685.000000
218633.000000
219578.000000
220657.000000
221626.000000
222499.000000
223407.000000
224279.000000
225112.000000
226025.000000
226989.000000
227858.000000
228810.000000
229698.000000
230566.000000
231498.000000
232343.000000
233182.000000
234101.000000
235037.000000
235977.000000
237047.000000
237957.000000
238846.000000
239806.000000
240661.000000
241553.000000
242553.000000
243467.000000
244324.000000
245297.000000
246286.000000
247164.000000
248107.000000
249153.000000
250010.000000
250781.000000
251541.000000
252392.000000
253564.000000
254558.000000
255404.000000
256283.000000
257295.000000
258178.000000
259168.000000
260233.000000
261130.000000
262038.000000
262965.000000
263809.000000
264707.000000
265814.000000
266741.000000
267667.000000
268641.000000
269502.000000
270447.000000
271496.000000
272392.000000
273326.000000
274228.000000
275100.000000
276070.000000
277064.000000
277916.000000
278776.000000
279701.000000
280570.000000
281453.000000
282454.000000
283333.000000
284295.000000
285230.000000
286076.000000
287019.000000
288026.000000
288896.000000
289829.000000
290793.000000
291665.000000
292613.000000
293482.000000
294243.000000
295002.000000
295857.000000
297022.000000
297971.000000
298915.000000
299931.000000
300806.000000
301676.000000
302636.000000
303513.000000
304372.000000
305287.000000
306216.000000
307073.000000
307952.000000
308845.000000
309644.000000
310424.000000
311221.000000
312043.000000
312862.000000
313719.000000
314513.000000
315272.000000
316126.000000
316972.000000
317909.000000
318962.000000
319828.000000
320716.000000
321814.000000
322762.000000
323687.000000
324487.000000
325226.000000
325956.000000
326744.000000
327972.000000
329007.000000
329881.000000
330862.000000
331957.000000
332918.000000
333858.000000
334966.000000
335992.000000
337019.000000
338121.000000
339197.000000
340098.000000
341038.000000
342092.000000
343048.000000
343971.000000
345194.000000
346214.000000
347103.000000
348080.000000
349033.000000
349894.000000
350792.000000
351733.000000
352553.000000
353350.000000
354184.000000
355169.000000
356018.000000
356897.000000
357732.000000
358634.000000
359609.000000
360457.000000
361315.000000
362222.000000
363029.000000
363848.000000
364705.000000
365552.000000
366342.000000
367169.000000
368041.000000
368905.000000
369921.000000
370982.000000
371897.000000
372838.000000
373810.000000
374685.000000
375663.000000
376711.000000
377626.000000
378552.000000
379598.000000
380491.000000
381479.000000
382654.000000
383625.000000
384660.000000
385730.000000
386657.000000
387545.000000
388526.000000
389417.000000
390307.000000
391427.000000
392468.000000
393521.000000
394546.000000
395438.000000
396357.000000
397372.000000
398259.000000
399175.000000
400141.000000
401063.000000
402022.000000
403056.000000
404025.000000
404973.000000
405995.000000
406902.000000
407776.000000
408795.000000
409768.000000
410655.000000
411586.000000
412414.000000
413208.000000
414050.000000
415207.000000
416133.000000
417114.000000
418107.000000
418998.000000
419982.000000
421030.000000
421944.000000
422885.000000
423999.000000
424953.000000
425871.000000
426840.000000
427709.000000
428657.000000
429738.000000
430616.000000
431540.000000
432479.000000
433330.000000
434275.000000
435355.000000
436251.000000
437253.000000
438330.000000
439217.000000
440160.000000
441158.000000
442022.000000
442955.000000
443884.000000
444784.000000
445805.000000
446875.000000
447807.000000
448826.000000
449881.000000
450788.000000
451654.000000
452614.000000
453527.000000
454529.000000
455497.000000
456366.000000
457328.000000
458415.000000
459348.000000
460400.000000
461390.000000
462250.000000
463159.000000
464103.000000
464965.000000
465912.000000
466949.000000
467893.000000
469003.000000
470001.000000
470939.000000
471943.000000
472927.000000
473855.000000
474974.000000
476006.000000
476893.000000
477820.000000
478843.000000
479791.000000
480895.000000
481981.000000
483010.000000
484079.000000
485068.000000
486129.000000
487226.000000
488222.000000
489263.000000
490395.000000
491354.000000
492324.000000
493510.000000
494523.000000
495626.000000
496644.000000
497561.000000
498577.000000
499551.000000
500460.000000
501447.000000
502408.000000
503264.000000
504166.000000
505079.000000
505934.000000
506841.000000
507815.000000
508654.000000
509515.000000
510440.000000
511322.000000
512138.000000
513033.000000
513982.000000
514835.000000
515754.000000
516796.000000
517717.000000
518669.000000
519613.000000
520479.000000
521447.000000
522479.000000
523327.000000
524203.000000
525342.000000
526310.000000
527385.000000
528432.000000
529358.000000
530290.000000
531289.000000
532217.000000
533277.000000
534337.000000
535318.000000
536380.000000
537431.000000
538339.000000
539264.000000
540176.000000
541013.000000
541900.000000
542936.000000
543850.000000
545075.000000
546052.000000
546966.000000
547941.000000
548806.000000
549756.000000
550825.000000
551740.000000
552846.000000
553879.000000
554751.000000
555652.000000
556762.000000
557671.000000
558827.000000
559955.000000
560940.000000
561961.000000
562963.000000
563820.000000
564766.000000
565968.000000
567037.000000
568172.000000
569139.000000
569958.000000
570794.000000
571763.000000
572628.000000
573477.000000
574438.000000
575264.000000
576033.000000
576815.000000
577727.000000
578754.000000
579726.000000
580758.000000
581646.000000
582501.000000
583334.000000
584131.000000
584955.000000
585821.000000
586674.000000
587543.000000
588448.000000
589281.000000
590097.000000
590867.000000
591624.000000
592395.000000
593154.000000
593894.000000
594634.000000
595387.000000
596152.000000
596941.000000
597859.000000
598720.000000
599684.000000
600650.000000
601576.000000
602535.000000
603566.000000
604441.000000
605369.000000
606315.000000
607184.000000
608167.000000
609212.000000
610099.000000
611042.000000
611942.000000
612856.000000
613987.000000
614948.000000
615884.000000
616937.000000
617821.000000
618729.000000
619728.000000
620587.000000
621525.000000
622512.000000
623350.000000
624244.000000
625294.000000
626153.000000
627054.000000
628103.000000
628998.000000
630071.000000
631028.000000
631850.000000
632716.000000
633571.000000
634389.000000
635341.000000
636375.000000
637287.000000
638312.000000
639261.000000
640187.000000
641155.000000
642031.000000
642976.000000
643940.000000
644795.000000
645694.000000
646619.000000
647488.000000
648398.000000
649405.000000
650278.000000
651159.000000
652162.000000
653021.000000
653913.000000
654855.000000
655731.000000
656661.000000
657725.000000
658623.000000
659552.000000
660548.000000
661437.000000
662386.000000
663343.000000
664217.000000
665148.000000
666059.000000
666917.000000
667881.000000
668859.000000
669719.000000
670643.000000
671595.000000
672437.000000
673325.000000
674278.000000
675133.000000
676056.000000
677038.000000
677883.000000
678731.000000
679672.000000
680636.000000
681731.000000
682750.000000
683619.000000
684560.000000
685480.000000
686342.000000
687277.000000
688285.000000
689171.000000
690112.000000
691053.000000
691907.000000
692820.000000
693798.000000
694652.000000
695547.000000
696489.000000
697361.000000
698354.000000
699277.000000
700159.000000
701113.000000
702024.000000
702899.000000
703883.000000
704829.000000
705722.000000
706657.000000
707580.000000
708452.000000
709389.000000
710352.000000
711229.000000
712158.000000
713041.000000
713881.000000
714782.000000
715711.000000
716575.000000
717565.000000
718548.000000
719453.000000
720434.000000
721444.000000
722314.000000
723185.000000
724156.000000
725052.000000
725893.000000
726824.000000
727878.000000
728778.000000
729724.000000
730790.000000
731734.000000
732721.000000
733818.000000
734750.000000
735949.000000
737042.000000
737981.000000
739081.000000
740038.000000
740955.000000
741968.000000
742875.000000
743832.000000
744871.000000
745770.000000
746827.000000
747849.000000
748768.000000
749763.000000
750719.000000
751636.000000
752707.000000
753683.000000
754629.000000
755711.000000
756615.000000
757471.000000
758360.000000
759234.000000
760116.000000
761091.000000
761983.000000
762905.000000
763879.000000
764772.000000
765801.000000
766802.000000
767723.000000
768727.000000
769668.000000
770538.000000
771543.000000
772575.000000
773460.000000
774369.000000
775425.000000
776363.000000
777211.000000
778162.000000
779236.000000
780135.000000
781067.000000
782059.000000
782992.000000
783886.000000
784961.000000
785967.000000
786873.000000
787902.000000
788877.000000
789809.000000
791037.000000
792100.000000
793094.000000
794207.000000
795205.000000
796135.000000
797219.000000
798255.000000
799228.000000
800280.000000
801238.000000
802336.000000
803416.000000
804316.000000
805308.000000
806467.000000
807437.000000
808624.000000
809551.000000
810402.000000
811322.000000
812330.000000
813201.000000
814159.000000
815083.000000
816018.000000
817077.000000
817959.000000
818835.000000
819683.000000
820492.000000
821351.000000
822309.000000
823159.000000
824029.000000
824869.000000
825691.000000
826557.000000
827489.000000
828324.000000
829185.000000
830049.000000
830869.000000
831722.000000
832619.000000
833451.000000
834320.000000
835335.000000
836222.000000
837195.000000
838231.000000
839143.000000
840077.000000
841113.000000
842058.000000
843094.000000
844103.000000
845020.000000
845996.000000
846957.000000
847751.000000
848498.000000
849284.000000
850255.000000
851367.000000
852374.000000
853503.000000
854569.000000
855478.000000
856396.000000
857322.000000
858238.000000
859514.000000
860659.000000
861740.000000
862857.000000
863948.000000
864888.000000
865931.000000
866970.000000
867915.000000
869051.000000
870092.000000
870980.000000
871965.000000
873014.000000
873950.000000
875028.000000
876002.000000
876954.000000
877933.000000
878788.000000
879578.000000
880449.000000
881584.000000
882506.000000
883371.000000
884254.000000
885091.000000
885941.000000
886861.000000
887706.000000
888590.000000
889647.000000
890572.000000
891610.000000
892653.000000
893635.000000
894706.000000
895731.000000
896688.000000
897774.000000
898828.000000
899738.000000
900710.000000
901772.000000
902638.000000
903517.000000
904390.000000
905209.000000
905991.000000
907029.000000
908254.000000
909344.000000
910511.000000
911497.000000
912443.000000
913447.000000
914349.000000
915518.000000
916650.000000
917604.000000
918720.000000
919808.000000
920827.000000
921945.000000
922982.000000
923932.000000
924996.000000
925931.000000
926764.000000
927575.000000
928370.000000
