ECG (ms)
89.000000
1051.000000
2090.000000
3094.000000
4031.000000
5096.000000
6070.000000
7148.000000
8188.000000
9215.000000
10201.000000
11164.000000
12216.000000
13143.000000
14155.000000
15112.000000
15991.000000
17039.000000
18078.000000
19034.000000
20063.000000
21138.000000
22159.000000
23212.000000
24251.000000
25285.000000
26281.000000
27252.000000
28239.000000
29194.000000
30133.000000
31120.000000
32036.000000
33027.000000
33991.000000
34903.000000
35910.000000
36917.000000
37880.000000
38897.000000
39880.000000
40953.000000
41989.000000
42995.000000
43996.000000
44934.000000
45926.000000
46839.000000
47820.000000
48748.000000
49715.000000
50747.000000
51741.000000
52811.000000
53821.000000
54835.000000
55863.000000
56848.000000
57853.000000
58940.000000
59902.000000
60881.000000
61853.000000
62812.000000
63865.000000
64896.000000
65892.000000
66803.000000
67708.000000
68654.000000
69637.000000
70556.000000
71518.000000
72476.000000
73382.000000
74356.000000
75352.000000
76328.000000
77358.000000
78300.000000
79300.000000
80254.000000
81272.000000
82270.000000
83236.000000
84251.000000
85185.000000
86222.000000
87225.000000
88270.000000
89261.000000
90270.000000
91286.000000
92207.000000
93186.000000
94153.000000
95080.000000
96088.000000
97047.000000
98050.000000
99047.000000
100012.000000
100981.000000
101925.000000
102921.000000
103918.000000
104852.000000
105862.000000
106821.000000
107845.000000
108843.000000
109821.000000
110826.000000
111786.000000
112766.000000
113772.000000
114729.000000
115769.000000
116767.000000
117709.000000
118852.000000
120002.000000
121124.000000
122278.000000
123183.000000
124299.000000
125362.000000
126422.000000
127450.000000
128407.000000
129536.000000
130624.000000
131683.000000
132561.000000
133636.000000
134738.000000
135626.000000
136707.000000
137842.000000
138774.000000
139887.000000
140997.000000
141894.000000
142946.000000
144018.000000
144889.000000
145929.000000
146870.000000
147785.000000
148810.000000
149753.000000
150730.000000
151783.000000
152728.000000
153751.000000
154769.000000
155729.000000
156738.000000
157705.000000
158675.000000
159720.000000
160654.000000
161627.000000
162703.000000
163675.000000
164711.000000
165780.000000
166779.000000
167931.000000
168960.000000
169981.000000
171002.000000
171932.000000
173023.000000
174115.000000
175041.000000
176164.000000
177303.000000
178291.000000
179461.000000
180611.000000
181504.000000
182727.000000
183885.000000
184839.000000
185958.000000
187104.000000
188058.000000
189239.000000
190266.000000
191356.000000
192521.000000
193506.000000
194557.000000
195684.000000
196594.000000
197673.000000
198775.000000
199660.000000
200820.000000
201870.000000
202818.000000
203955.000000
204965.000000
205912.000000
207074.000000
208176.000000
209251.000000
210134.000000
211263.000000
212249.000000
213166.000000
214344.000000
215301.000000
216353.000000
217455.000000
218416.000000
219371.000000
220385.000000
221314.000000
222291.000000
223329.000000
224285.000000
225364.000000
226478.000000
227436.000000
228561.000000
229722.000000
230650.000000
231592.000000
232592.000000
233473.000000
234526.000000
235603.000000
236513.000000
237593.000000
238695.000000
239625.000000
240706.000000
241753.000000
242732.000000
243826.000000
244800.000000
245742.000000
246916.000000
247915.000000
249035.000000
250143.000000
251158.000000
252296.000000
253216.000000
254219.000000
255298.000000
256217.000000
257249.000000
258342.000000
259272.000000
260344.000000
261390.000000
262285.000000
263342.000000
264383.000000
265284.000000
266319.000000
267414.000000
268426.000000
269548.000000
270678.000000
271776.000000
272686.000000
273588.000000
274736.000000
275595.000000
276524.000000
277662.000000
278648.000000
279660.000000
280743.000000
281635.000000
282550.000000
283632.000000
284622.000000
285688.000000
286698.000000
287623.000000
288781.000000
289793.000000
290856.000000
291989.000000
293057.000000
294163.000000
295332.000000
296253.000000
297432.000000
298626.000000
299672.000000
300862.000000
301923.000000
302923.000000
304111.000000
305104.000000
306251.000000
307425.000000
308470.000000
309626.000000
310548.000000
311677.000000
312839.000000
313836.000000
314948.000000
316015.000000
316995.000000
318157.000000
319094.000000
320120.000000
321218.000000
322136.000000
323274.000000
324279.000000
325326.000000
326407.000000
327348.000000
328372.000000
329332.000000
330346.000000
331507.000000
332541.000000
333700.000000
334767.000000
335847.000000
336937.000000
337865.000000
338922.000000
339966.000000
340926.000000
342097.000000
343122.000000
344144.000000
345351.000000
346404.000000
347568.000000
348664.000000
349739.000000
350905.000000
351878.000000
353106.000000
354140.000000
355228.000000
356436.000000
357589.000000
358717.000000
359800.000000
360966.000000
361900.000000
363068.000000
364051.000000
365009.000000
366181.000000
367102.000000
367967.000000
369151.000000
370179.000000
371104.000000
372319.000000
373387.000000
374486.000000
375756.000000
376982.000000
378085.000000
379166.000000
380185.000000
381328.000000
382342.000000
383517.000000
384448.000000
385600.000000
386704.000000
387797.000000
388849.000000
389890.000000
391045.000000
391994.000000
393183.000000
394080.000000
395175.000000
396310.000000
397287.000000
398442.000000
399618.000000
400543.000000
401582.000000
402778.000000
403685.000000
404863.000000
405931.000000
406988.000000
408155.000000
409225.000000
410364.000000
411361.000000
412526.000000
413591.000000
414751.000000
415921.000000
416905.000000
418061.000000
419027.000000
419913.000000
421100.000000
422175.000000
423064.000000
423977.000000
424974.000000
425835.000000
426890.000000
427868.000000
428852.000000
429875.000000
430830.000000
431818.000000
432891.000000
434015.000000
435179.000000
436305.000000
437406.000000
438499.000000
439560.000000
440690.000000
441751.000000
442795.000000
443813.000000
444790.000000
445763.000000
446696.000000
447702.000000
448679.000000
449574.000000
450668.000000
451820.000000
452828.000000
454030.000000
455033.000000
456131.000000
457302.000000
458313.000000
459490.000000
460468.000000
461540.000000
462665.000000
463623.000000
464781.000000
465902.000000
466929.000000
468128.000000
469152.000000
470285.000000
471427.000000
472390.000000
473578.000000
474631.000000
475694.000000
476822.000000
477742.000000
478822.000000
479865.000000
480919.000000
481864.000000
482812.000000
483821.000000
484733.000000
485747.000000
486744.000000
487679.000000
488774.000000
489730.000000
490869.000000
491992.000000
493060.000000
494182.000000
495157.000000
496349.000000
497509.000000
498428.000000
499573.000000
500635.000000
501738.000000
502823.000000
503826.000000
505070.000000
506108.000000
507340.000000
508561.000000
509669.000000
510849.000000
511950.000000
512950.000000
513991.000000
515120.000000
516104.000000
517255.000000
518227.000000
519351.000000
520334.000000
521487.000000
522598.000000
523753.000000
524746.000000
525896.000000
526945.000000
528005.000000
529130.000000
530109.000000
531272.000000
532294.000000
533395.000000
534479.000000
535470.000000
536550.000000
537524.000000
538615.000000
539579.000000
540691.000000
541734.000000
542829.000000
543935.000000
544978.000000
546107.000000
547204.000000
548302.000000
549408.000000
550505.000000
551602.000000
552774.000000
553877.000000
555065.000000
556175.000000
557346.000000
558451.000000
559642.000000
560725.000000
561884.000000
563028.000000
564140.000000
565263.000000
566311.000000
567447.000000
568618.000000
569738.000000
570925.000000
571983.000000
573173.000000
574135.000000
575342.000000
576325.000000
577501.000000
578570.000000
579719.000000
580855.000000
581910.000000
583054.000000
584164.000000
585041.000000
586100.000000
587117.000000
588162.000000
589273.000000
590329.000000
591507.000000
592586.000000
593796.000000
594861.000000
596009.000000
597028.000000
598044.000000
599046.000000
600177.000000
601213.000000
602427.000000
603534.000000
604594.000000
605731.000000
606804.000000
607818.000000
608849.000000
610059.000000
611203.000000
612337.000000
613393.000000
614497.000000
615648.000000
616746.000000
617874.000000
618949.000000
620183.000000
621249.000000
622428.000000
623642.000000
624825.000000
626022.000000
627219.000000
628407.000000
629493.000000
630709.000000
631644.000000
632842.000000
633776.000000
634934.000000
635939.000000
636892.000000
638113.000000
639158.000000
640370.000000
641266.000000
642122.000000
643397.000000
644354.000000
645347.000000
646213.000000
647274.000000
648271.000000
649298.000000
650350.000000
651364.000000
652545.000000
653562.000000
654728.000000
655848.000000
656958.000000
658217.000000
659133.000000
660417.000000
661751.000000
663032.000000
664210.000000
665426.000000
666560.000000
667818.000000
668814.000000
670102.000000
670989.000000
672246.000000
673493.000000
674478.000000
675574.000000
676889.000000
678059.000000
679201.000000
680380.000000
681607.000000
682667.000000
683817.000000
684858.000000
685898.000000
687133.000000
688285.000000
689293.000000
690423.000000
691514.000000
692610.000000
693802.000000
694740.000000
695984.000000
697192.000000
698314.000000
699268.000000
700529.000000
701786.000000
702981.000000
704092.000000
705300.000000
706536.000000
707715.000000
708910.000000
709838.000000
711092.000000
711972.000000
712853.000000
714163.000000
715447.000000
716635.000000
717795.000000
718713.000000
719956.000000
721231.000000
722488.000000
723694.000000
724830.000000
725785.000000
726809.000000
728084.000000
729271.000000
730431.000000
731575.000000
732726.000000
733882.000000
735012.000000
735939.000000
737031.000000
738152.000000
739039.000000
740207.000000
741351.000000
742390.000000
743454.000000
744484.000000
745354.000000
746507.000000
747696.000000
748884.000000
749963.000000
751061.000000
752190.000000
753340.000000
754493.000000
755613.000000
756570.000000
757778.000000
758685.000000
759510.000000
760852.000000
762086.000000
763225.000000
764381.000000
765563.000000
766489.000000
767687.000000
768692.000000
769494.000000
770417.000000
771668.000000
772744.000000
773612.000000
774951.000000
776256.000000
777475.000000
778692.000000
779876.000000
781063.000000
782173.000000
783315.000000
784453.000000
785487.000000
786631.000000
787636.000000
788721.000000
789575.000000
790418.000000
791659.000000
792793.000000
793958.000000
795136.000000
796280.000000
797383.000000
798459.000000
799677.000000
800843.000000
801771.000000
802832.000000
803856.000000
804778.000000
805969.000000
806946.000000
807999.000000
809235.000000
810474.000000
811702.000000
812902.000000
814103.000000
815264.000000
816414.000000
817650.000000
818790.000000
819939.000000
821064.000000
822020.000000
823084.000000
824030.000000
824993.000000
826219.000000
827360.000000
828502.000000
829600.000000
830472.000000
831366.000000
832537.000000
833539.000000
834659.000000
835835.000000
836919.000000
837952.000000
838858.000000
839947.000000
841005.000000
842029.000000
843049.000000
843930.000000
844936.000000
845969.000000
846896.000000
847891.000000
848877.000000
849794.000000
850824.000000
851879.000000
852791.000000
853773.000000
855079.000000
856300.000000
857389.000000
858508.000000
859552.000000
860427.000000
861448.000000
862512.000000
863472.000000
864441.000000
865745.000000
866935.000000
868062.000000
869295.000000
870523.000000
871674.000000
872784.000000
873621.000000
874811.000000
876002.000000
876920.000000
877708.000000
878489.000000
879734.000000
880646.000000
881739.000000
882938.000000
884113.000000
885270.000000
886403.000000
887548.000000
888434.000000
889332.000000
890605.000000
891755.000000
892872.000000
893737.000000
894871.000000
895851.000000
896844.000000
897975.000000
899086.000000
900178.000000
