ECG (ms)
384.000000
1116.000000
1860.000000
2564.000000
3223.000000
3869.000000
4519.000000
5146.000000
5775.000000
6493.000000
7215.000000
7988.000000
8843.000000
9701.000000
10465.000000
11252.000000
12099.000000
12935.000000
13696.000000
14402.000000
15164.000000
16031.000000
16895.000000
17653.000000
18476.000000
19399.000000
20225.000000
20963.000000
21724.000000
22588.000000
23447.000000
24231.000000
25031.000000
25868.000000
26729.000000
27582.000000
28386.000000
29106.000000
29789.000000
30497.000000
31588.000000
32561.000000
33503.000000
34459.000000
35418.000000
36331.000000
37252.000000
38164.000000
39076.000000
39964.000000
40894.000000
41771.000000
42523.000000
43274.000000
44374.000000
45377.000000
46260.000000
47034.000000
47883.000000
48856.000000
49789.000000
50610.000000
51392.000000
52254.000000
53230.000000
54188.000000
55045.000000
55922.000000
56854.000000
57831.000000
58801.000000
59645.000000
60390.000000
61165.000000
62083.000000
63049.000000
63966.000000
64778.000000
65612.000000
66531.000000
67458.000000
68272.000000
69017.000000
69748.000000
70563.000000
71582.000000
72565.000000
73488.000000
74264.000000
74982.000000
75710.000000
76565.000000
77561.000000
78544.000000
79461.000000
80316.000000
81169.000000
82083.000000
83007.000000
83910.000000
84791.000000
85652.000000
86459.000000
87212.000000
87936.000000
88713.000000
89786.000000
90798.000000
91764.000000
92608.000000
93357.000000
94105.000000
94941.000000
95868.000000
96825.000000
97723.000000
98533.000000
99262.000000
100002.000000
100980.000000
101899.000000
102664.000000
103400.000000
104204.000000
105172.000000
106090.000000
106879.000000
107597.000000
108313.000000
109364.000000
110359.000000
111306.000000
112189.000000
112939.000000
113682.000000
114704.000000
115712.000000
116663.000000
117476.000000
118210.000000
118957.000000
119761.000000
120708.000000
121648.000000
122563.000000
123405.000000
124211.000000
125056.000000
125975.000000
126890.000000
127747.000000
128588.000000
129463.000000
130283.000000
131055.000000
131813.000000
132620.000000
133611.000000
134597.000000
135522.000000
136308.000000
137017.000000
137727.000000
138615.000000
139623.000000
140575.000000
141492.000000
142402.000000
143213.000000
143984.000000
144772.000000
145659.000000
146587.000000
147491.000000
148356.000000
149189.000000
149967.000000
150694.000000
151442.000000
152297.000000
153234.000000
154119.000000
154990.000000
155803.000000
156555.000000
157364.000000
158303.000000
159250.000000
160184.000000
161062.000000
161848.000000
162583.000000
163355.000000
164256.000000
165215.000000
166148.000000
167007.000000
167886.000000
168682.000000
169416.000000
170145.000000
170990.000000
172019.000000
172993.000000
173904.000000
174772.000000
175687.000000
176603.000000
177440.000000
178254.000000
179114.000000
180008.000000
180936.000000
181853.000000
182659.000000
183418.000000
184144.000000
184893.000000
186005.000000
187021.000000
187986.000000
188844.000000
189600.000000
190335.000000
191090.000000
191976.000000
192991.000000
193988.000000
194945.000000
195875.000000
196763.000000
197622.000000
198469.000000
199254.000000
200009.000000
200859.000000
201803.000000
202726.000000
203621.000000
204425.000000
205195.000000
206067.000000
207002.000000
207953.000000
208845.000000
209722.000000
210590.000000
211475.000000
212354.000000
213161.000000
213929.000000
214739.000000
215702.000000
216758.000000
217730.000000
218567.000000
219311.000000
220056.000000
220903.000000
221800.000000
222657.000000
223466.000000
224228.000000
225012.000000
225796.000000
226527.000000
227233.000000
228036.000000
228829.000000
229566.000000
230322.000000
231358.000000
232354.000000
233297.000000
234178.000000
234997.000000
235791.000000
236575.000000
237358.000000
238177.000000
238936.000000
239642.000000
240340.000000
241312.000000
242302.000000
243266.000000
244171.000000
244930.000000
245633.000000
246303.000000
247102.000000
248152.000000
249117.000000
250104.000000
251079.000000
251942.000000
252694.000000
253431.000000
254206.000000
255204.000000
256203.000000
257140.000000
258061.000000
258983.000000
259891.000000
260692.000000
261448.000000
262272.000000
263288.000000
264259.000000
265178.000000
266030.000000
266878.000000
267657.000000
268417.000000
269159.000000
269948.000000
270982.000000
272000.000000
272954.000000
273874.000000
274748.000000
275572.000000
276357.000000
277097.000000
277804.000000
278521.000000
279371.000000
280356.000000
281415.000000
282459.000000
283456.000000
284398.000000
285300.000000
286161.000000
286992.000000
287797.000000
288559.000000
289281.000000
289991.000000
290732.000000
291664.000000
292668.000000
293693.000000
294687.000000
295635.000000
296512.000000
297328.000000
298134.000000
298944.000000
299761.000000
300534.000000
301269.000000
301967.000000
302673.000000
303447.000000
304382.000000
305387.000000
306346.000000
307260.000000
308081.000000
308872.000000
309648.000000
310410.000000
311153.000000
311870.000000
312556.000000
313251.000000
314038.000000
315022.000000
316013.000000
317030.000000
317997.000000
318919.000000
319776.000000
320579.000000
321356.000000
322134.000000
322954.000000
323719.000000
324436.000000
325124.000000
325818.000000
326743.000000
327753.000000
328760.000000
329727.000000
330634.000000
331486.000000
332310.000000
333112.000000
333898.000000
334656.000000
335380.000000
336081.000000
336807.000000
337731.000000
338730.000000
339795.000000
340770.000000
341694.000000
342575.000000
343426.000000
344226.000000
345021.000000
345830.000000
346591.000000
347324.000000
348062.000000
348861.000000
349738.000000
350720.000000
351755.000000
352789.000000
353750.000000
354618.000000
355410.000000
356190.000000
356978.000000
357756.000000
358527.000000
359290.000000
360068.000000
360910.000000
361919.000000
362951.000000
363953.000000
364901.000000
365818.000000
366695.000000
367509.000000
368239.000000
368925.000000
369572.000000
370250.000000
370994.000000
371727.000000
372520.000000
373570.000000
374578.000000
375581.000000
376544.000000
377452.000000
378316.000000
379133.000000
379944.000000
380760.000000
381584.000000
382346.000000
383090.000000
383851.000000
384721.000000
385762.000000
386790.000000
387770.000000
388672.000000
389525.000000
390328.000000
391128.000000
391924.000000
392682.000000
393407.000000
394113.000000
394842.000000
395705.000000
396710.000000
397691.000000
398627.000000
399523.000000
400370.000000
401204.000000
402056.000000
402858.000000
403596.000000
404312.000000
405040.000000
405873.000000
406888.000000
407906.000000
408898.000000
409829.000000
410687.000000
411493.000000
412279.000000
413023.000000
413740.000000
414458.000000
415276.000000
416352.000000
417372.000000
418353.000000
419282.000000
420183.000000
421071.000000
421850.000000
422579.000000
423289.000000
424014.000000
424955.000000
425965.000000
426962.000000
427929.000000
428819.000000
429623.000000
430365.000000
431117.000000
431942.000000
432813.000000
433691.000000
434588.000000
435439.000000
436234.000000
437023.000000
437843.000000
438807.000000
439757.000000
440662.000000
441525.000000
442353.000000
443158.000000
443923.000000
444667.000000
445407.000000
446226.000000
447299.000000
448338.000000
449348.000000
450310.000000
451245.000000
452111.000000
452936.000000
453717.000000
454458.000000
455176.000000
455890.000000
456672.000000
457728.000000
458733.000000
459672.000000
460549.000000
461392.000000
462223.000000
463009.000000
463734.000000
464436.000000
465145.000000
465987.000000
467016.000000
467997.000000
468924.000000
469797.000000
470619.000000
471408.000000
472161.000000
472884.000000
473614.000000
474474.000000
475404.000000
476330.000000
477214.000000
478073.000000
478891.000000
479705.000000
480505.000000
481307.000000
482085.000000
482822.000000
483551.000000
484319.000000
485275.000000
486191.000000
486964.000000
487679.000000
488386.000000
489198.000000
489991.000000
490717.000000
491411.000000
492139.000000
492956.000000
493988.000000
494965.000000
495880.000000
496733.000000
497536.000000
498316.000000
499066.000000
499779.000000
500485.000000
501275.000000
502318.000000
503364.000000
504363.000000
505361.000000
506280.000000
507165.000000
508033.000000
508868.000000
509700.000000
510545.000000
511318.000000
512072.000000
512880.000000
513839.000000
514808.000000
515698.000000
516489.000000
517235.000000
518030.000000
518901.000000
519855.000000
520721.000000
521497.000000
522256.000000
523041.000000
523976.000000
524964.000000
525936.000000
526856.000000
527757.000000
528597.000000
529380.000000
530117.000000
530872.000000
531879.000000
532923.000000
533944.000000
534900.000000
535711.000000
536454.000000
537168.000000
537915.000000
538911.000000
539969.000000
540994.000000
542015.000000
543008.000000
543971.000000
544857.000000
545665.000000
546412.000000
547151.000000
547931.000000
548938.000000
550038.000000
551107.000000
552163.000000
553025.000000
553767.000000
554450.000000
555149.000000
556256.000000
557313.000000
558376.000000
559431.000000
560486.000000
561490.000000
562415.000000
563209.000000
563961.000000
564723.000000
565547.000000
566598.000000
567649.000000
568687.000000
569686.000000
570636.000000
571517.000000
572345.000000
573118.000000
573864.000000
574622.000000
575471.000000
576505.000000
577546.000000
578539.000000
579532.000000
580481.000000
581402.000000
582259.000000
583025.000000
583756.000000
584471.000000
585220.000000
586093.000000
587136.000000
588230.000000
589275.000000
590277.000000
591149.000000
591906.000000
592617.000000
593286.000000
594017.000000
594785.000000
595502.000000
596233.000000
597117.000000
598217.000000
599288.000000
600306.000000
601282.000000
602183.000000
603033.000000
603869.000000
604723.000000
605556.000000
606331.000000
607088.000000
607883.000000
608942.000000
609997.000000
611023.000000
611978.000000
612883.000000
613754.000000
614605.000000
615454.000000
616328.000000
617177.000000
617977.000000
618729.000000
619487.000000
620288.000000
621248.000000
622250.000000
623284.000000
624270.000000
625206.000000
626050.000000
626854.000000
627669.000000
628486.000000
629332.000000
630223.000000
631070.000000
631881.000000
632659.000000
633447.000000
634271.000000
635146.000000
636090.000000
637077.000000
638105.000000
639062.000000
639968.000000
640819.000000
641625.000000
642417.000000
643225.000000
644061.000000
644915.000000
645792.000000
646680.000000
647498.000000
648234.000000
648941.000000
649664.000000
650464.000000
651412.000000
652447.000000
653427.000000
654399.000000
655305.000000
656164.000000
657024.000000
657886.000000
658682.000000
659435.000000
660150.000000
660829.000000
661490.000000
662164.000000
663226.000000
664201.000000
665115.000000
666044.000000
666960.000000
667829.000000
668668.000000
669451.000000
670182.000000
670887.000000
671604.000000
672633.000000
673690.000000
674717.000000
675707.000000
676650.000000
677523.000000
678387.000000
679230.000000
680076.000000
680900.000000
681671.000000
682416.000000
683176.000000
684030.000000
685041.000000
686059.000000
687009.000000
687924.000000
688787.000000
689620.000000
690376.000000
691091.000000
691789.000000
692531.000000
693579.000000
694594.000000
695579.000000
696482.000000
697331.000000
698142.000000
698943.000000
699758.000000
700558.000000
701313.000000
702032.000000
702750.000000
703607.000000
704693.000000
705716.000000
706697.000000
707603.000000
708474.000000
709282.000000
710036.000000
710755.000000
711459.000000
712213.000000
713170.000000
714200.000000
715202.000000
716135.000000
717024.000000
717861.000000
718654.000000
719409.000000
720165.000000
720957.000000
721842.000000
722789.000000
723703.000000
724564.000000
725395.000000
726210.000000
727028.000000
727843.000000
728640.000000
729397.000000
730131.000000
730891.000000
731742.000000
732671.000000
733586.000000
734442.000000
735273.000000
736070.000000
736833.000000
737560.000000
738279.000000
739046.000000
740052.000000
741033.000000
741972.000000
742877.000000
743763.000000
744649.000000
745496.000000
746381.000000
747249.000000
748033.000000
748766.000000
749504.000000
750306.000000
751405.000000
752423.000000
753383.000000
754328.000000
755217.000000
756079.000000
756878.000000
757623.000000
758349.000000
759098.000000
760010.000000
761073.000000
762120.000000
763113.000000
764023.000000
764892.000000
765720.000000
766541.000000
767326.000000
768077.000000
768825.000000
769592.000000
770547.000000
771638.000000
772699.000000
773722.000000
774696.000000
775616.000000
776487.000000
777318.000000
778103.000000
778848.000000
779586.000000
780355.000000
781238.000000
782262.000000
783282.000000
784318.000000
785278.000000
786190.000000
787049.000000
787892.000000
788710.000000
789483.000000
790227.000000
790970.000000
791761.000000
792672.000000
793710.000000
794738.000000
795741.000000
796661.000000
797552.000000
798402.000000
799229.000000
800042.000000
800881.000000
801697.000000
802470.000000
803214.000000
803970.000000
804851.000000
805886.000000
806885.000000
807796.000000
808668.000000
809496.000000
810270.000000
811015.000000
811732.000000
812461.000000
813288.000000
814326.000000
815310.000000
816245.000000
817168.000000
818034.000000
818855.000000
819624.000000
820401.000000
821276.000000
822243.000000
823237.000000
824237.000000
825218.000000
826177.000000
827096.000000
828000.000000
828828.000000
829586.000000
830307.000000
831032.000000
832079.000000
833109.000000
834094.000000
835046.000000
835962.000000
836788.000000
837546.000000
838268.000000
839001.000000
839933.000000
840992.000000
842017.000000
843004.000000
844002.000000
844944.000000
845847.000000
846648.000000
847391.000000
848125.000000
848984.000000
850016.000000
850940.000000
851716.000000
852438.000000
853264.000000
854208.000000
855037.000000
855801.000000
856644.000000
857649.000000
858663.000000
859581.000000
860466.000000
861336.000000
862118.000000
862850.000000
863609.000000
864618.000000
865648.000000
866598.000000
867579.000000
868539.000000
869462.000000
870356.000000
871178.000000
871957.000000
872691.000000
873457.000000
874523.000000
875555.000000
876596.000000
877522.000000
878347.000000
879170.000000
880179.000000
881188.000000
882153.000000
883036.000000
883926.000000
884798.000000
885668.000000
886569.000000
887480.000000
888375.000000
889166.000000
889914.000000
890728.000000
891747.000000
892721.000000
893538.000000
894275.000000
895006.000000
895867.000000
896868.000000
897817.000000
898802.000000
899672.000000
900458.000000
901235.000000
902070.000000
903043.000000
904016.000000
904914.000000
905836.000000
906729.000000
907546.000000
908312.000000
909083.000000
910001.000000
911102.000000
912136.000000
913146.000000
914107.000000
914913.000000
915671.000000
916468.000000
917371.000000
918287.000000
