ECG (ms)
591.000000
2099.000000
3675.000000
5265.000000
6864.000000
8432.000000
9894.000000
11330.000000
12793.000000
14338.000000
15845.000000
17417.000000
18952.000000
20358.000000
21764.000000
23186.000000
24487.000000
25894.000000
27432.000000
28778.000000
30283.000000
31666.000000
33114.000000
34574.000000
35997.000000
37449.000000
38811.000000
40285.000000
41824.000000
43226.000000
44374.000000
45670.000000
47275.000000
48854.000000
50451.000000
52052.000000
53619.000000
55194.000000
56684.000000
58193.000000
59840.000000
61398.000000
62963.000000
64454.000000
65968.000000
67497.000000
69007.000000
70395.000000
71596.000000
73116.000000
74631.000000
76146.000000
77526.000000
78640.000000
80095.000000
81520.000000
82764.000000
84193.000000
85732.000000
87249.000000
88720.000000
90186.000000
91523.000000
92706.000000
94020.000000
95506.000000
97088.000000
98655.000000
100152.000000
101605.000000
103075.000000
104562.000000
106030.000000
107366.000000
108615.000000
109998.000000
111563.000000
113090.000000
114640.000000
116137.000000
117647.000000
118985.000000
120512.000000
122009.000000
123560.000000
125077.000000
126510.000000
127986.000000
129452.000000
130925.000000
132375.000000
133855.000000
135325.000000
136798.000000
138297.000000
139757.000000
141221.000000
142573.000000
143760.000000
145084.000000
146690.000000
148168.000000
149520.000000
150781.000000
152328.000000
153815.000000
155239.000000
156694.000000
158196.000000
159683.000000
161070.000000
162447.000000
163900.000000
165366.000000
166832.000000
168339.000000
169840.000000
171363.000000
172815.000000
174325.000000
175863.000000
177413.000000
178945.000000
180416.000000
181937.000000
183374.000000
184829.000000
186217.000000
187377.000000
188611.000000
189809.000000
190976.000000
192291.000000
193610.000000
194966.000000
196205.000000
197562.000000
199016.000000
200449.000000
201936.000000
203399.000000
204841.000000
206294.000000
207768.000000
209287.000000
210794.000000
212317.000000
213830.000000
215184.000000
216621.000000
218204.000000
219672.000000
221203.000000
222713.000000
224194.000000
225673.000000
227115.000000
228608.000000
230103.000000
231619.000000
233183.000000
234675.000000
236173.000000
237696.000000
239232.000000
240755.000000
242277.000000
243729.000000
245225.000000
246683.000000
248198.000000
249656.000000
251148.000000
252690.000000
254135.000000
255595.000000
256983.000000
258479.000000
259892.000000
261380.000000
262771.000000
264249.000000
265701.000000
267100.000000
268423.000000
269735.000000
271242.000000
272681.000000
274131.000000
275537.000000
277023.000000
278475.000000
279990.000000
281438.000000
282937.000000
284387.000000
285817.000000
287266.000000
288720.000000
290211.000000
291752.000000
293210.000000
294702.000000
296186.000000
297642.000000
299132.000000
300520.000000
302000.000000
303391.000000
304860.000000
306273.000000
307729.000000
309170.000000
310664.000000
312158.000000
313618.000000
315180.000000
316604.000000
318078.000000
319543.000000
321091.000000
322522.000000
323785.000000
325187.000000
326367.000000
327798.000000
329313.000000
330769.000000
332246.000000
333704.000000
335222.000000
336732.000000
338254.000000
339729.000000
341203.000000
342717.000000
344178.000000
345647.000000
347121.000000
348651.000000
350172.000000
351695.000000
353227.000000
354730.000000
356261.000000
357655.000000
359055.000000
360481.000000
361964.000000
363498.000000
365051.000000
366557.000000
368058.000000
369565.000000
371028.000000
372490.000000
373911.000000
375432.000000
376914.000000
378484.000000
379999.000000
381561.000000
383078.000000
384613.000000
386116.000000
387638.000000
389087.000000
390530.000000
391951.000000
393521.000000
394959.000000
396461.000000
397896.000000
399389.000000
400752.000000
402304.000000
403744.000000
405314.000000
406838.000000
408412.000000
409907.000000
411418.000000
412900.000000
414419.000000
415932.000000
417449.000000
418978.000000
420411.000000
421891.000000
423249.000000
424704.000000
426125.000000
427592.000000
429099.000000
430599.000000
432113.000000
433545.000000
435039.000000
436538.000000
438009.000000
439482.000000
440960.000000
442475.000000
443975.000000
445493.000000
446991.000000
448549.000000
450080.000000
451575.000000
453059.000000
454556.000000
455985.000000
457510.000000
458964.000000
460509.000000
462065.000000
463507.000000
464911.000000
466471.000000
468053.000000
469608.000000
471125.000000
472501.000000
473940.000000
475502.000000
477085.000000
478556.000000
480005.000000
481525.000000
482998.000000
484587.000000
486140.000000
487701.000000
489259.000000
490807.000000
492372.000000
493864.000000
495487.000000
496982.000000
498545.000000
499965.000000
501448.000000
502854.000000
504355.000000
505790.000000
507238.000000
508632.000000
510057.000000
511428.000000
512910.000000
514357.000000
515891.000000
517388.000000
518890.000000
520372.000000
521876.000000
523394.000000
524867.000000
526386.000000
527872.000000
529409.000000
530927.000000
532469.000000
534001.000000
535553.000000
537036.000000
538344.000000
539861.000000
541131.000000
542228.000000
543848.000000
545439.000000
546995.000000
548483.000000
550059.000000
551628.000000
553252.000000
554807.000000
556342.000000
557919.000000
559504.000000
561043.000000
562574.000000
564132.000000
565647.000000
567239.000000
568817.000000
570375.000000
571922.000000
573393.000000
574922.000000
576418.000000
577922.000000
579396.000000
580879.000000
582341.000000
583725.000000
585208.000000
586547.000000
588137.000000
589688.000000
591217.000000
592815.000000
594317.000000
595838.000000
597285.000000
598812.000000
600302.000000
601869.000000
603352.000000
604790.000000
605975.000000
607519.000000
608893.000000
610353.000000
611716.000000
613248.000000
614738.000000
616226.000000
617693.000000
619216.000000
620738.000000
622263.000000
623745.000000
625286.000000
626788.000000
628303.000000
629801.000000
631245.000000
632745.000000
634234.000000
635697.000000
637169.000000
638671.000000
640211.000000
641693.000000
643129.000000
644610.000000
645973.000000
647448.000000
648869.000000
650337.000000
651740.000000
653215.000000
654570.000000
656001.000000
657429.000000
658806.000000
660228.000000
661660.000000
663132.000000
664601.000000
666165.000000
667620.000000
669112.000000
670550.000000
672077.000000
673474.000000
674966.000000
676337.000000
677814.000000
679175.000000
680641.000000
682029.000000
683541.000000
684951.000000
686254.000000
687700.000000
689229.000000
690688.000000
692123.000000
693622.000000
695108.000000
696595.000000
698071.000000
699483.000000
700960.000000
702601.000000
704149.000000
705733.000000
707207.000000
708662.000000
709982.000000
711371.000000
712656.000000
714044.000000
715296.000000
716771.000000
718133.000000
719588.000000
720931.000000
722388.000000
723771.000000
725124.000000
726509.000000
728002.000000
729404.000000
730886.000000
732271.000000
733690.000000
735107.000000
736545.000000
737991.000000
739468.000000
740950.000000
742425.000000
743979.000000
745452.000000
746945.000000
748460.000000
749898.000000
751368.000000
752803.000000
754310.000000
755740.000000
757166.000000
758691.000000
760023.000000
761527.000000
762975.000000
764430.000000
765819.000000
767234.000000
768679.000000
770146.000000
771596.000000
773029.000000
774490.000000
775951.000000
777489.000000
778926.000000
780405.000000
781798.000000
783241.000000
784672.000000
786094.000000
787512.000000
789065.000000
790505.000000
791985.000000
793494.000000
794997.000000
796526.000000
797955.000000
799535.000000
801060.000000
802617.000000
804185.000000
805722.000000
807303.000000
808832.000000
810359.000000
811841.000000
813397.000000
814875.000000
816352.000000
817792.000000
819247.000000
820767.000000
822232.000000
823738.000000
825203.000000
826712.000000
828182.000000
829716.000000
831163.000000
832734.000000
834160.000000
835739.000000
837146.000000
838727.000000
840252.000000
841895.000000
843352.000000
844881.000000
846425.000000
848010.000000
849533.000000
851049.000000
852542.000000
854035.000000
855567.000000
857117.000000
858617.000000
860122.000000
861605.000000
863126.000000
864586.000000
866111.000000
867634.000000
869081.000000
870642.000000
872175.000000
873843.000000
875342.000000
876852.000000
878340.000000
879879.000000
881372.000000
882790.000000
884236.000000
885704.000000
887238.000000
888642.000000
890179.000000
891564.000000
893053.000000
894398.000000
895807.000000
897216.000000
898747.000000
900134.000000
901621.000000
903101.000000
904637.000000
906153.000000
907721.000000
909216.000000
910744.000000
912224.000000
913715.000000
915241.000000
916728.000000
918235.000000
919713.000000
921201.000000
922776.000000
924246.000000
925790.000000
927277.000000
928833.000000
930345.000000
931936.000000
933387.000000
934914.000000
936371.000000
937797.000000
939108.000000
940381.000000
941863.000000
943251.000000
944719.000000
946183.000000
947675.000000
949146.000000
950713.000000
952163.000000
953679.000000
955152.000000
956645.000000
958135.000000
959607.000000
961108.000000
962617.000000
964103.000000
965574.000000
967017.000000
968591.000000
970089.000000
971652.000000
973164.000000
974698.000000
976193.000000
977538.000000
978968.000000
980354.000000
981963.000000
983417.000000
984913.000000
986257.000000
987705.000000
989202.000000
990743.000000
992215.000000
993610.000000
995131.000000
996584.000000
998071.000000
999566.000000
1000999.000000
1002501.000000
1003862.000000
1005415.000000
1006910.000000
1008448.000000
1009905.000000
1011418.000000
1012895.000000
1014421.000000
1015948.000000
1017351.000000
1018884.000000
1020338.000000
1021875.000000
1023395.000000
1024815.000000
1026312.000000
1027790.000000
1029427.000000
1030928.000000
1032475.000000
1033933.000000
1035441.000000
1036841.000000
1038334.000000
1039725.000000
1041269.000000
1042681.000000
1044159.000000
1045574.000000
1047049.000000
1048561.000000
1050105.000000
1051589.000000
1053079.000000
1054643.000000
1056138.000000
1057669.000000
1059211.000000
1060733.000000
1062245.000000
1063660.000000
1065029.000000
1066440.000000
1068003.000000
1069476.000000
1071004.000000
1072510.000000
1074017.000000
1075492.000000
1077031.000000
1078559.000000
1080103.000000
1081618.000000
1083216.000000
1084632.000000
1086127.000000
1087591.000000
1089138.000000
1090577.000000
1092150.000000
1093634.000000
1095138.000000
1096598.000000
1097886.000000
1099340.000000
1100749.000000
1102143.000000
1103585.000000
1104972.000000
1106335.000000
1107702.000000
1109014.000000
1110398.000000
1111867.000000
1113297.000000
1114798.000000
1116312.000000
1117787.000000
1119153.000000
1120600.000000
1122006.000000
1123189.000000
1124746.000000
1126015.000000
1127444.000000
1128832.000000
1130256.000000
1131767.000000
1133150.000000
1134563.000000
1135975.000000
1137421.000000
1138795.000000
1140186.000000
1141557.000000
1143040.000000
1144485.000000
1145905.000000
1147387.000000
1148817.000000
1150251.000000
1151682.000000
1152948.000000
1154035.000000
1155191.000000
1156686.000000
1157927.000000
1159345.000000
1160636.000000
1161991.000000
1163324.000000
1164661.000000
1166092.000000
1167438.000000
1168845.000000
1170194.000000
1171647.000000
1172999.000000
1174467.000000
1175854.000000
1177368.000000
1178865.000000
1180319.000000
1181815.000000
1183244.000000
1184750.000000
1186156.000000
1187685.000000
1189185.000000
1190706.000000
1192217.000000
1193734.000000
1195182.000000
1196456.000000
1197836.000000
1199246.000000
1200431.000000
1201702.000000
1203241.000000
1204757.000000
1206283.000000
1207600.000000
1208932.000000
1210499.000000
1212037.000000
1213625.000000
1215187.000000
1216613.000000
1218157.000000
1219717.000000
