ECG (ms)
641.000000
1608.000000
2644.000000
3627.000000
4511.000000
5479.000000
6458.000000
7374.000000
8383.000000
9346.000000
10241.000000
11220.000000
12175.000000
13148.000000
14215.000000
15243.000000
16236.000000
17261.000000
18265.000000
19214.000000
20198.000000
21080.000000
21972.000000
22936.000000
23853.000000
24802.000000
25824.000000
26781.000000
27786.000000
28815.000000
29783.000000
30828.000000
31827.000000
32789.000000
33821.000000
34774.000000
35760.000000
36678.000000
37597.000000
38490.000000
39357.000000
40153.000000
40973.000000
41776.000000
42545.000000
43314.000000
44090.000000
44828.000000
45584.000000
46357.000000
47160.000000
48031.000000
48931.000000
49781.000000
50693.000000
51663.000000
52586.000000
53546.000000
54526.000000
55445.000000
56447.000000
57467.000000
58383.000000
59399.000000
60467.000000
61424.000000
62396.000000
63382.000000
64322.000000
65302.000000
66273.000000
67174.000000
68161.000000
69127.000000
70075.000000
71076.000000
72021.000000
72993.000000
74074.000000
75060.000000
76047.000000
77076.000000
78051.000000
79029.000000
80014.000000
80923.000000
81931.000000
82940.000000
83916.000000
85003.000000
86016.000000
87018.000000
88075.000000
89070.000000
90053.000000
91099.000000
92047.000000
93048.000000
94091.000000
95044.000000
96069.000000
97098.000000
98108.000000
99175.000000
100154.000000
101140.000000
102266.000000
103228.000000
104236.000000
105219.000000
106145.000000
107144.000000
108151.000000
109111.000000
110121.000000
111065.000000
112045.000000
113038.000000
113922.000000
114901.000000
115857.000000
116790.000000
117789.000000
118653.000000
119493.000000
120438.000000
121454.000000
122388.000000
123425.000000
124445.000000
125404.000000
126526.000000
127504.000000
128416.000000
129414.000000
130392.000000
131376.000000
132421.000000
133436.000000
134421.000000
135446.000000
136440.000000
137433.000000
138486.000000
139433.000000
140490.000000
141567.000000
142544.000000
143622.000000
144619.000000
145581.000000
146711.000000
147645.000000
148644.000000
149646.000000
150558.000000
151565.000000
152587.000000
153567.000000
154712.000000
155735.000000
156788.000000
157834.000000
158854.000000
159906.000000
160939.000000
161912.000000
162947.000000
163970.000000
164961.000000
166027.000000
167072.000000
168029.000000
169043.000000
169999.000000
170955.000000
171990.000000
172970.000000
173957.000000
175011.000000
175972.000000
176976.000000
178035.000000
179030.000000
180105.000000
181177.000000
182149.000000
183179.000000
184150.000000
185121.000000
186245.000000
187242.000000
188191.000000
189190.000000
190114.000000
191036.000000
192014.000000
192929.000000
193888.000000
194906.000000
195831.000000
196803.000000
197823.000000
198747.000000
199734.000000
200750.000000
201673.000000
202710.000000
203709.000000
204653.000000
205692.000000
206672.000000
207600.000000
208597.000000
209609.000000
210588.000000
211643.000000
212624.000000
213647.000000
214690.000000
215663.000000
216695.000000
217632.000000
218561.000000
219587.000000
220553.000000
221454.000000
222409.000000
223305.000000
224180.000000
225172.000000
226151.000000
227096.000000
228070.000000
228911.000000
229813.000000
230701.000000
231627.000000
232607.000000
233533.000000
234485.000000
235490.000000
236449.000000
237393.000000
238399.000000
239360.000000
240325.000000
241321.000000
242249.000000
243207.000000
244214.000000
245141.000000
246099.000000
247078.000000
247989.000000
248948.000000
249878.000000
250759.000000
251744.000000
252703.000000
253665.000000
254706.000000
255714.000000
256681.000000
257703.000000
258666.000000
259625.000000
260642.000000
261635.000000
262603.000000
263634.000000
264639.000000
265627.000000
266702.000000
267734.000000
268712.000000
269754.000000
270712.000000
271686.000000
272720.000000
273686.000000
274656.000000
275662.000000
276609.000000
277624.000000
278653.000000
279628.000000
280666.000000
281681.000000
282682.000000
283759.000000
284763.000000
285794.000000
286833.000000
287778.000000
288784.000000
289771.000000
290771.000000
291794.000000
292734.000000
293680.000000
294748.000000
295730.000000
296670.000000
297692.000000
298652.000000
299647.000000
300708.000000
301725.000000
302736.000000
303787.000000
304677.000000
305507.000000
306387.000000
307313.000000
308235.000000
309240.000000
310262.000000
311247.000000
312281.000000
313280.000000
314228.000000
315272.000000
316365.000000
317346.000000
318362.000000
319431.000000
320472.000000
321506.000000
322549.000000
323552.000000
324565.000000
325595.000000
326545.000000
327552.000000
328583.000000
329503.000000
330474.000000
331479.000000
332400.000000
333404.000000
334377.000000
335304.000000
336328.000000
337308.000000
338288.000000
339354.000000
340310.000000
341296.000000
342300.000000
343258.000000
344272.000000
345283.000000
346264.000000
347297.000000
348316.000000
349322.000000
350420.000000
351428.000000
352462.000000
353468.000000
354391.000000
355261.000000
356187.000000
357138.000000
358065.000000
359071.000000
360088.000000
361087.000000
362159.000000
363181.000000
364126.000000
365108.000000
366066.000000
367018.000000
368091.000000
369116.000000
370096.000000
371128.000000
372111.000000
373031.000000
374036.000000
375076.000000
376054.000000
377084.000000
378066.000000
379036.000000
380054.000000
380982.000000
381976.000000
383028.000000
384045.000000
385083.000000
386126.000000
387110.000000
388139.000000
389051.000000
389923.000000
390844.000000
391759.000000
392706.000000
393622.000000
394574.000000
395578.000000
396526.000000
397469.000000
398450.000000
399356.000000
400331.000000
401364.000000
402308.000000
403317.000000
404319.000000
405211.000000
406173.000000
407087.000000
407977.000000
408899.000000
409733.000000
410721.000000
411670.000000
412660.000000
413705.000000
414676.000000
415702.000000
416749.000000
417713.000000
418621.000000
419554.000000
420459.000000
421358.000000
422345.000000
423278.000000
424230.000000
425285.000000
426281.000000
427263.000000
428325.000000
429298.000000
430252.000000
431271.000000
432234.000000
433214.000000
434192.000000
435126.000000
436036.000000
437021.000000
437933.000000
438791.000000
439625.000000
440576.000000
441620.000000
442606.000000
443614.000000
444564.000000
445583.000000
446626.000000
447590.000000
448657.000000
449689.000000
450646.000000
451664.000000
452642.000000
453578.000000
454589.000000
455563.000000
456493.000000
457493.000000
458463.000000
459501.000000
460575.000000
461552.000000
462554.000000
463573.000000
464584.000000
465540.000000
466469.000000
467355.000000
468265.000000
469147.000000
470080.000000
471131.000000
472177.000000
473149.000000
474136.000000
475167.000000
476156.000000
477139.000000
478295.000000
479392.000000
480348.000000
481385.000000
482383.000000
483317.000000
484314.000000
485298.000000
486213.000000
487210.000000
488174.000000
489111.000000
490122.000000
491074.000000
492006.000000
492988.000000
493919.000000
494864.000000
495838.000000
496750.000000
497683.000000
498670.000000
499604.000000
500607.000000
501652.000000
502626.000000
503623.000000
504648.000000
505579.000000
506564.000000
507580.000000
508496.000000
509435.000000
510362.000000
511272.000000
512262.000000
513255.000000
514170.000000
515165.000000
516127.000000
517032.000000
518036.000000
519013.000000
519956.000000
520987.000000
521945.000000
522906.000000
523925.000000
524889.000000
525888.000000
526921.000000
527912.000000
528978.000000
530050.000000
531046.000000
532120.000000
533168.000000
534171.000000
535190.000000
536204.000000
537141.000000
538161.000000
539181.000000
540138.000000
541168.000000
542177.000000
543103.000000
544111.000000
545108.000000
546069.000000
547089.000000
548086.000000
549001.000000
549992.000000
550896.000000
551756.000000
552579.000000
553439.000000
554337.000000
555300.000000
556291.000000
557261.000000
558128.000000
559051.000000
559913.000000
560804.000000
561789.000000
562756.000000
563681.000000
564741.000000
565817.000000
566792.000000
567831.000000
568881.000000
569838.000000
570878.000000
571926.000000
572875.000000
573917.000000
574960.000000
575911.000000
576950.000000
578007.000000
578976.000000
580020.000000
581031.000000
581962.000000
582986.000000
584015.000000
585005.000000
586064.000000
587069.000000
588049.000000
589093.000000
590072.000000
591078.000000
592137.000000
593097.000000
594082.000000
595110.000000
596072.000000
597079.000000
598130.000000
599081.000000
600075.000000
601104.000000
602059.000000
603090.000000
604131.000000
605130.000000
606174.000000
607200.000000
608151.000000
609156.000000
610140.000000
611108.000000
612184.000000
613238.000000
614229.000000
615274.000000
616255.000000
617243.000000
618293.000000
619259.000000
620268.000000
621307.000000
622287.000000
623357.000000
624420.000000
625407.000000
626497.000000
627558.000000
628543.000000
629599.000000
630578.000000
631504.000000
632536.000000
633486.000000
634409.000000
635373.000000
636291.000000
637136.000000
638031.000000
638936.000000
639825.000000
640804.000000
641764.000000
642678.000000
643667.000000
644608.000000
645518.000000
646489.000000
647406.000000
648335.000000
649355.000000
650314.000000
651290.000000
652342.000000
653338.000000
654312.000000
655406.000000
656478.000000
657476.000000
658529.000000
659501.000000
660456.000000
661477.000000
662419.000000
663377.000000
664405.000000
665348.000000
666309.000000
667320.000000
668251.000000
669247.000000
670257.000000
671239.000000
672221.000000
673234.000000
674149.000000
675150.000000
676199.000000
677147.000000
678176.000000
679192.000000
680209.000000
681286.000000
682353.000000
683320.000000
684374.000000
685392.000000
686380.000000
687443.000000
688471.000000
689450.000000
690489.000000
691531.000000
692567.000000
693598.000000
694569.000000
695520.000000
696541.000000
697543.000000
698553.000000
699668.000000
700717.000000
701735.000000
702803.000000
703945.000000
704974.000000
706025.000000
707126.000000
708165.000000
709295.000000
710407.000000
711412.000000
712472.000000
713457.000000
714449.000000
715467.000000
716393.000000
717402.000000
718443.000000
719414.000000
720496.000000
721500.000000
722495.000000
723589.000000
724539.000000
725518.000000
726534.000000
727499.000000
728623.000000
729648.000000
730615.000000
731645.000000
732648.000000
733610.000000
734634.000000
735577.000000
736522.000000
737363.000000
738284.000000
739163.000000
740084.000000
741051.000000
741933.000000
742900.000000
743855.000000
744748.000000
745728.000000
746681.000000
747576.000000
748547.000000
749494.000000
750393.000000
751406.000000
752392.000000
753307.000000
754306.000000
755303.000000
756244.000000
757280.000000
758300.000000
759243.000000
760259.000000
761265.000000
762221.000000
763249.000000
764271.000000
765240.000000
766269.000000
767256.000000
768206.000000
769250.000000
770284.000000
771224.000000
772272.000000
773276.000000
774231.000000
775265.000000
776222.000000
777202.000000
778259.000000
779227.000000
780255.000000
781311.000000
782277.000000
783326.000000
784358.000000
785345.000000
786411.000000
787416.000000
788403.000000
789463.000000
790456.000000
791499.000000
792499.000000
793452.000000
794548.000000
795561.000000
796450.000000
797287.000000
798163.000000
799124.000000
800118.000000
800995.000000
801979.000000
802988.000000
803970.000000
804995.000000
806070.000000
807094.000000
808182.000000
809251.000000
810283.000000
811346.000000
812355.000000
813375.000000
814416.000000
815376.000000
816413.000000
817473.000000
818424.000000
819450.000000
820452.000000
821454.000000
822528.000000
823473.000000
824413.000000
825407.000000
826352.000000
827347.000000
828398.000000
829372.000000
830394.000000
831468.000000
832443.000000
833475.000000
834525.000000
835467.000000
836486.000000
837509.000000
838486.000000
839553.000000
840596.000000
841602.000000
842659.000000
843656.000000
844690.000000
845786.000000
846782.000000
847845.000000
848929.000000
849917.000000
850974.000000
852033.000000
852968.000000
853959.000000
854964.000000
855928.000000
856950.000000
857923.000000
858913.000000
859945.000000
860904.000000
861903.000000
862890.000000
863818.000000
864832.000000
865829.000000
866746.000000
867745.000000
868647.000000
869526.000000
870356.000000
871257.000000
872203.000000
873264.000000
874262.000000
875207.000000
876186.000000
877230.000000
878245.000000
879295.000000
880363.000000
881329.000000
882344.000000
883366.000000
884302.000000
885319.000000
886314.000000
887247.000000
888270.000000
889276.000000
890238.000000
891269.000000
892275.000000
893285.000000
894343.000000
895321.000000
896328.000000
897364.000000
898318.000000
899330.000000
900355.000000
