ECG (ms)
103.000000
963.000000
1850.000000
2769.000000
3745.000000
4745.000000
5728.000000
6709.000000
7695.000000
8630.000000
9548.000000
10456.000000
11356.000000
12270.000000
13259.000000
14275.000000
15308.000000
16334.000000
17372.000000
18351.000000
19309.000000
20300.000000
21368.000000
22430.000000
23472.000000
24388.000000
25205.000000
26025.000000
26901.000000
27779.000000
28707.000000
29742.000000
30814.000000
31872.000000
32946.000000
33962.000000
34908.000000
35880.000000
36914.000000
37987.000000
39097.000000
40245.000000
41344.000000
42376.000000
43415.000000
44476.000000
45537.000000
46596.000000
47638.000000
48724.000000
49823.000000
50897.000000
51870.000000
52878.000000
53981.000000
55022.000000
56007.000000
57065.000000
58168.000000
59233.000000
60246.000000
61227.000000
62274.000000
63349.000000
64422.000000
65419.000000
66354.000000
67335.000000
68408.000000
69496.000000
70546.000000
71641.000000
72799.000000
74044.000000
75226.000000
76247.000000
77219.000000
78257.000000
79312.000000
80409.000000
81439.000000
82543.000000
83711.000000
84802.000000
85933.000000
87074.000000
88222.000000
89328.000000
90356.000000
91356.000000
92445.000000
93594.000000
94785.000000
95873.000000
96980.000000
98098.000000
99239.000000
100263.000000
101256.000000
102369.000000
103484.000000
104425.000000
105308.000000
106242.000000
107228.000000
108270.000000
109394.000000
110518.000000
111596.000000
112634.000000
113628.000000
114673.000000
115708.000000
116750.000000
117730.000000
118746.000000
119831.000000
120957.000000
122047.000000
123053.000000
124049.000000
125116.000000
126232.000000
127319.000000
128299.000000
129276.000000
130363.000000
131538.000000
132732.000000
133885.000000
134922.000000
135901.000000
136947.000000
138080.000000
139201.000000
140276.000000
141330.000000
142408.000000
143543.000000
144672.000000
145748.000000
146764.000000
147723.000000
148712.000000
149794.000000
150888.000000
151994.000000
153067.000000
154104.000000
155071.000000
155998.000000
156955.000000
158024.000000
159115.000000
160187.000000
161241.000000
162216.000000
163133.000000
164021.000000
164954.000000
166024.000000
167075.000000
168052.000000
168925.000000
169727.000000
170512.000000
171313.000000
172169.000000
173167.000000
174319.000000
175445.000000
176512.000000
177535.000000
178549.000000
179506.000000
180446.000000
181452.000000
182510.000000
183595.000000
184660.000000
185701.000000
186722.000000
187663.000000
188622.000000
189643.000000
190772.000000
191920.000000
193009.000000
194070.000000
195068.000000
196040.000000
196996.000000
198005.000000
199083.000000
200163.000000
201219.000000
202228.000000
203205.000000
204169.000000
205134.000000
206234.000000
207368.000000
208448.000000
209493.000000
210494.000000
211422.000000
212326.000000
213254.000000
214238.000000
215289.000000
216368.000000
217408.000000
218462.000000
219436.000000
220369.000000
221275.000000
222183.000000
223192.000000
224319.000000
225482.000000
226613.000000
227678.000000
228739.000000
229770.000000
230731.000000
231694.000000
232720.000000
233809.000000
234941.000000
236069.000000
237162.000000
238239.000000
239284.000000
240300.000000
241250.000000
242134.000000
243000.000000
243938.000000
245091.000000
246084.000000
246980.000000
247924.000000
248919.000000
249958.000000
251002.000000
251981.000000
252909.000000
253867.000000
254848.000000
255889.000000
256947.000000
257984.000000
259012.000000
259970.000000
260876.000000
261783.000000
262737.000000
263860.000000
265056.000000
266241.000000
267415.000000
268565.000000
269683.000000
270768.000000
271851.000000
272926.000000
274007.000000
275134.000000
276261.000000
277380.000000
278502.000000
279508.000000
280516.000000
281597.000000
282806.000000
284044.000000
285287.000000
286495.000000
287589.000000
288662.000000
289734.000000
290840.000000
292022.000000
293143.000000
294212.000000
295220.000000
296172.000000
297145.000000
298173.000000
299314.000000
300398.000000
301382.000000
302261.000000
303094.000000
303914.000000
304728.000000
305570.000000
306483.000000
307544.000000
308606.000000
309663.000000
310755.000000
311839.000000
312826.000000
313725.000000
314576.000000
315450.000000
316388.000000
317402.000000
318421.000000
319445.000000
320468.000000
321406.000000
322317.000000
323251.000000
324253.000000
325306.000000
326420.000000
327551.000000
328587.000000
329587.000000
330553.000000
331577.000000
332713.000000
333832.000000
334908.000000
335922.000000
336894.000000
337915.000000
338983.000000
340191.000000
341308.000000
342480.000000
343643.000000
344689.000000
345737.000000
346795.000000
347960.000000
349135.000000
350292.000000
351422.000000
352425.000000
353390.000000
354446.000000
355620.000000
356755.000000
357895.000000
358949.000000
360011.000000
361067.000000
362171.000000
363310.000000
364451.000000
365572.000000
366646.000000
367645.000000
368603.000000
369572.000000
370604.000000
371627.000000
372625.000000
373516.000000
374376.000000
375257.000000
376165.000000
377093.000000
378098.000000
379167.000000
380237.000000
381275.000000
382289.000000
383303.000000
384216.000000
385119.000000
386007.000000
386977.000000
388000.000000
389022.000000
390132.000000
391175.000000
392163.000000
393173.000000
394297.000000
395390.000000
396545.000000
397705.000000
398830.000000
399909.000000
400973.000000
402063.000000
403158.000000
404247.000000
405248.000000
406195.000000
407154.000000
408218.000000
409398.000000
410535.000000
411700.000000
412787.000000
413870.000000
414980.000000
416082.000000
417183.000000
418207.000000
419137.000000
420055.000000
421187.000000
422381.000000
423522.000000
424636.000000
425719.000000
426699.000000
427621.000000
428519.000000
429439.000000
430443.000000
431499.000000
432533.000000
433578.000000
434574.000000
435584.000000
436563.000000
437491.000000
438418.000000
439429.000000
440495.000000
441628.000000
442715.000000
443752.000000
444729.000000
445653.000000
446544.000000
447441.000000
448367.000000
449405.000000
450515.000000
451667.000000
452775.000000
453888.000000
454960.000000
455981.000000
457010.000000
458071.000000
459147.000000
460233.000000
461336.000000
462404.000000
463422.000000
464387.000000
465414.000000
466544.000000
467723.000000
468823.000000
469887.000000
471024.000000
472164.000000
473269.000000
474312.000000
475349.000000
476429.000000
477562.000000
478714.000000
479861.000000
480970.000000
482056.000000
483159.000000
484265.000000
485397.000000
486540.000000
487665.000000
488813.000000
489937.000000
491084.000000
492237.000000
493314.000000
494382.000000
495506.000000
496683.000000
497793.000000
498837.000000
499894.000000
500958.000000
502042.000000
503142.000000
504264.000000
505374.000000
506410.000000
507433.000000
508468.000000
509511.000000
510511.000000
511514.000000
512555.000000
513634.000000
514662.000000
515646.000000
516668.000000
517709.000000
518711.000000
519710.000000
520777.000000
521843.000000
522922.000000
523982.000000
525069.000000
526153.000000
527157.000000
528109.000000
529090.000000
530197.000000
531360.000000
532445.000000
533466.000000
534460.000000
535499.000000
536600.000000
537647.000000
538603.000000
539568.000000
540498.000000
541481.000000
542472.000000
543412.000000
544295.000000
545153.000000
546038.000000
546921.000000
547828.000000
548709.000000
549605.000000
550552.000000
551514.000000
552489.000000
553406.000000
554258.000000
555075.000000
555874.000000
556687.000000
557585.000000
558553.000000
559523.000000
560430.000000
561293.000000
562131.000000
562990.000000
563854.000000
564696.000000
565505.000000
566287.000000
567105.000000
567947.000000
568786.000000
569672.000000
570653.000000
571686.000000
572709.000000
573724.000000
574733.000000
575657.000000
576535.000000
577398.000000
578306.000000
579323.000000
580408.000000
581497.000000
582554.000000
583511.000000
584419.000000
585336.000000
586420.000000
587608.000000
588777.000000
589837.000000
590796.000000
591721.000000
592666.000000
593730.000000
594855.000000
595951.000000
597001.000000
597978.000000
598923.000000
599860.000000
600819.000000
601838.000000
602834.000000
603816.000000
604718.000000
605595.000000
606473.000000
607379.000000
608397.000000
609449.000000
610472.000000
611451.000000
612378.000000
613299.000000
614278.000000
615350.000000
616411.000000
617423.000000
618449.000000
619521.000000
620530.000000
621522.000000
622559.000000
623728.000000
624892.000000
626046.000000
627168.000000
628240.000000
629255.000000
630303.000000
631421.000000
632537.000000
633667.000000
634753.000000
635849.000000
636982.000000
638112.000000
639158.000000
640179.000000
641252.000000
642420.000000
643550.000000
644625.000000
645643.000000
646725.000000
647819.000000
648892.000000
649935.000000
650920.000000
651887.000000
652941.000000
654016.000000
655079.000000
656153.000000
657177.000000
658221.000000
659321.000000
660419.000000
661484.000000
662549.000000
663615.000000
664747.000000
665818.000000
666884.000000
667995.000000
669110.000000
670236.000000
671327.000000
672398.000000
673482.000000
674562.000000
675629.000000
676660.000000
677725.000000
678800.000000
679895.000000
680880.000000
681816.000000
682850.000000
683951.000000
685008.000000
685971.000000
686880.000000
687800.000000
688668.000000
689522.000000
690423.000000
691308.000000
692221.000000
693243.000000
694317.000000
695399.000000
696381.000000
697391.000000
698465.000000
699528.000000
700521.000000
701567.000000
702670.000000
703761.000000
704793.000000
705878.000000
707018.000000
708162.000000
709239.000000
710358.000000
711514.000000
712658.000000
713714.000000
714757.000000
715850.000000
716921.000000
717940.000000
719020.000000
720138.000000
721224.000000
722256.000000
723369.000000
724539.000000
725716.000000
726848.000000
727864.000000
728825.000000
729841.000000
730930.000000
732029.000000
733114.000000
734151.000000
735226.000000
736339.000000
737407.000000
738454.000000
739529.000000
740659.000000
741893.000000
743066.000000
744193.000000
745329.000000
746433.000000
747583.000000
748737.000000
749847.000000
750999.000000
752094.000000
753226.000000
754380.000000
755469.000000
756541.000000
757664.000000
758796.000000
759958.000000
761052.000000
762168.000000
763329.000000
764494.000000
765613.000000
766658.000000
767758.000000
768887.000000
769953.000000
771033.000000
772167.000000
773307.000000
774359.000000
775410.000000
776491.000000
777543.000000
778726.000000
779887.000000
780916.000000
781921.000000
783017.000000
784097.000000
785104.000000
786201.000000
787328.000000
788357.000000
789478.000000
790630.000000
791756.000000
792849.000000
793954.000000
795045.000000
796105.000000
797118.000000
798249.000000
799422.000000
800491.000000
801565.000000
802675.000000
803735.000000
804801.000000
805900.000000
806967.000000
807997.000000
809071.000000
810161.000000
811246.000000
812368.000000
813508.000000
814572.000000
815575.000000
816620.000000
817701.000000
818748.000000
819835.000000
820935.000000
821976.000000
823010.000000
824090.000000
825173.000000
826231.000000
827282.000000
828401.000000
829467.000000
830482.000000
831547.000000
832643.000000
833692.000000
834672.000000
835719.000000
836767.000000
837778.000000
838766.000000
839815.000000
840897.000000
841952.000000
843029.000000
844123.000000
845217.000000
846260.000000
847329.000000
848427.000000
849460.000000
850445.000000
851514.000000
852584.000000
853598.000000
854690.000000
855776.000000
856797.000000
857876.000000
858987.000000
860062.000000
861127.000000
862239.000000
863351.000000
864398.000000
865429.000000
866495.000000
867600.000000
868646.000000
869636.000000
870710.000000
871793.000000
872810.000000
873892.000000
874960.000000
875985.000000
877002.000000
878090.000000
879186.000000
880199.000000
881235.000000
882345.000000
883434.000000
884507.000000
885641.000000
886748.000000
887777.000000
888842.000000
889907.000000
890946.000000
891932.000000
892882.000000
893897.000000
894937.000000
