ECG (ms)
36.000000
834.000000
1619.000000
2399.000000
3186.000000
3995.000000
4811.000000
5644.000000
6481.000000
7302.000000
8122.000000
8922.000000
9712.000000
10510.000000
11337.000000
12155.000000
12963.000000
13764.000000
14560.000000
15340.000000
16120.000000
16891.000000
17661.000000
18433.000000
19257.000000
20073.000000
20874.000000
21661.000000
22422.000000
23149.000000
23903.000000
24724.000000
25528.000000
26311.000000
27089.000000
27859.000000
28670.000000
29507.000000
30372.000000
31233.000000
32074.000000
32904.000000
33725.000000
34519.000000
35279.000000
36076.000000
36840.000000
37588.000000
38371.000000
39220.000000
40048.000000
40905.000000
41766.000000
42614.000000
43478.000000
44345.000000
45216.000000
46080.000000
46936.000000
47793.000000
48644.000000
49423.000000
50100.000000
50770.000000
51499.000000
52249.000000
53217.000000
54096.000000
54953.000000
55815.000000
56701.000000
57569.000000
58423.000000
59292.000000
60169.000000
61045.000000
61904.000000
62781.000000
63676.000000
64559.000000
65428.000000
66296.000000
67206.000000
68125.000000
69019.000000
69903.000000
70809.000000
71714.000000
72603.000000
73471.000000
74350.000000
75242.000000
76144.000000
77032.000000
77902.000000
78773.000000
79681.000000
80598.000000
81500.000000
82371.000000
83235.000000
84138.000000
85028.000000
85919.000000
86789.000000
87643.000000
88507.000000
89415.000000
90320.000000
91226.000000
92109.000000
92994.000000
93896.000000
94830.000000
95758.000000
96658.000000
97551.000000
98456.000000
99389.000000
100306.000000
101209.000000
102089.000000
102979.000000
103884.000000
104772.000000
105664.000000
106546.000000
107411.000000
108295.000000
109192.000000
110086.000000
110976.000000
111839.000000
112707.000000
113605.000000
114511.000000
115429.000000
116331.000000
117229.000000
118101.000000
119011.000000
119928.000000
120842.000000
121731.000000
122610.000000
123488.000000
124390.000000
125303.000000
126202.000000
127084.000000
127966.000000
128870.000000
129783.000000
130687.000000
131596.000000
132504.000000
133377.000000
134245.000000
135136.000000
136029.000000
136887.000000
137730.000000
138538.000000
139327.000000
140123.000000
140921.000000
141725.000000
142540.000000
143353.000000
144171.000000
145002.000000
145856.000000
146724.000000
147597.000000
148460.000000
149308.000000
150173.000000
151058.000000
151928.000000
152796.000000
153651.000000
154528.000000
155396.000000
156260.000000
157119.000000
158011.000000
158921.000000
159823.000000
160716.000000
161592.000000
162477.000000
163367.000000
164263.000000
165150.000000
166028.000000
166898.000000
167796.000000
168707.000000
169618.000000
170504.000000
171406.000000
172336.000000
173249.000000
174145.000000
175072.000000
175992.000000
176907.000000
177791.000000
178686.000000
179599.000000
180521.000000
181414.000000
182314.000000
183229.000000
184146.000000
185057.000000
185950.000000
186839.000000
187748.000000
188666.000000
189586.000000
190483.000000
191383.000000
192309.000000
193245.000000
194185.000000
195109.000000
196024.000000
196962.000000
197910.000000
198855.000000
199784.000000
200714.000000
201645.000000
202565.000000
203464.000000
204364.000000
205281.000000
206207.000000
207120.000000
208017.000000
208911.000000
209825.000000
210744.000000
211648.000000
212534.000000
213420.000000
214314.000000
215222.000000
216125.000000
217014.000000
217906.000000
218819.000000
219740.000000
220652.000000
221548.000000
222454.000000
223354.000000
224255.000000
225158.000000
226050.000000
226944.000000
227857.000000
228779.000000
229701.000000
230613.000000
231513.000000
232434.000000
233358.000000
234279.000000
235179.000000
236087.000000
237004.000000
237910.000000
238804.000000
239708.000000
240621.000000
241534.000000
242438.000000
243361.000000
244290.000000
245205.000000
246118.000000
247036.000000
247955.000000
248852.000000
249722.000000
250567.000000
251421.000000
252276.000000
253122.000000
253977.000000
254826.000000
255681.000000
256565.000000
257460.000000
258347.000000
259233.000000
260088.000000
260948.000000
261829.000000
262699.000000
263577.000000
264438.000000
265306.000000
266191.000000
267084.000000
267991.000000
268905.000000
269824.000000
270688.000000
271570.000000
272486.000000
273383.000000
274298.000000
275189.000000
276105.000000
277009.000000
277931.000000
278858.000000
279787.000000
280725.000000
281649.000000
282574.000000
283547.000000
284502.000000
285433.000000
286384.000000
287346.000000
288296.000000
289221.000000
290152.000000
291090.000000
292013.000000
292915.000000
293820.000000
294734.000000
295654.000000
296555.000000
297458.000000
298384.000000
299314.000000
300245.000000
301160.000000
302069.000000
302991.000000
303905.000000
304820.000000
305712.000000
306596.000000
307490.000000
308382.000000
309279.000000
310174.000000
311086.000000
312011.000000
312947.000000
313883.000000
314790.000000
315697.000000
316611.000000
317524.000000
318434.000000
319325.000000
320232.000000
321142.000000
322048.000000
322951.000000
323870.000000
324790.000000
325706.000000
326595.000000
327503.000000
328407.000000
329297.000000
330193.000000
331113.000000
332035.000000
332923.000000
333793.000000
334661.000000
335543.000000
336437.000000
337332.000000
338212.000000
339102.000000
340005.000000
340935.000000
341871.000000
342789.000000
343710.000000
344657.000000
345601.000000
346537.000000
347451.000000
348383.000000
349331.000000
350268.000000
351185.000000
352125.000000
353071.000000
353998.000000
354936.000000
355873.000000
356788.000000
357690.000000
358607.000000
359519.000000
360433.000000
361347.000000
362238.000000
363121.000000
364029.000000
364940.000000
365850.000000
366745.000000
367659.000000
368589.000000
369527.000000
370456.000000
371380.000000
372340.000000
373305.000000
374265.000000
375208.000000
376166.000000
377118.000000
378058.000000
378988.000000
379950.000000
380907.000000
381856.000000
382795.000000
383748.000000
384716.000000
385660.000000
386596.000000
387540.000000
388478.000000
389406.000000
390308.000000
391218.000000
392132.000000
393027.000000
393905.000000
394791.000000
395683.000000
396574.000000
397458.000000
398352.000000
399261.000000
400167.000000
401048.000000
401929.000000
402821.000000
403718.000000
404600.000000
405453.000000
406275.000000
407072.000000
407849.000000
408634.000000
409428.000000
410230.000000
411072.000000
411925.000000
412784.000000
413672.000000
414572.000000
415479.000000
416370.000000
417262.000000
418180.000000
419111.000000
420038.000000
420974.000000
421936.000000
422906.000000
423875.000000
424817.000000
425781.000000
426752.000000
427713.000000
428658.000000
429631.000000
430597.000000
431550.000000
432479.000000
433406.000000
434314.000000
435195.000000
436059.000000
436923.000000
437828.000000
438750.000000
439681.000000
440612.000000
441530.000000
442463.000000
443392.000000
444312.000000
445221.000000
446144.000000
447063.000000
447982.000000
448890.000000
449813.000000
450751.000000
451687.000000
452609.000000
453547.000000
454488.000000
455421.000000
456344.000000
457285.000000
458224.000000
459161.000000
460074.000000
460976.000000
461901.000000
462818.000000
463738.000000
464661.000000
465574.000000
466502.000000
467426.000000
468347.000000
469257.000000
470178.000000
471104.000000
472023.000000
472933.000000
473857.000000
474787.000000
475712.000000
476626.000000
477556.000000
478506.000000
479443.000000
480379.000000
481326.000000
482283.000000
483236.000000
484156.000000
485094.000000
486036.000000
486975.000000
487903.000000
488835.000000
489787.000000
490742.000000
491703.000000
492648.000000
493596.000000
494541.000000
495473.000000
496378.000000
497297.000000
498215.000000
499126.000000
500018.000000
500908.000000
501811.000000
502645.000000
503616.000000
504518.000000
505426.000000
506326.000000
507230.000000
508124.000000
509006.000000
509866.000000
510721.000000
511557.000000
512404.000000
513266.000000
514135.000000
515007.000000
515866.000000
516723.000000
517587.000000
518457.000000
519334.000000
520207.000000
521075.000000
521940.000000
522815.000000
523688.000000
524569.000000
525436.000000
526313.000000
527205.000000
528101.000000
528998.000000
529880.000000
530771.000000
531668.000000
532561.000000
533445.000000
534350.000000
535258.000000
536151.000000
537047.000000
537942.000000
538847.000000
539729.000000
540604.000000
541487.000000
542366.000000
543246.000000
544129.000000
545006.000000
545891.000000
546798.000000
547701.000000
548594.000000
549486.000000
550438.000000
551333.000000
552216.000000
553074.000000
553902.000000
554710.000000
555538.000000
556370.000000
557189.000000
558012.000000
558846.000000
559689.000000
560575.000000
561502.000000
562441.000000
563399.000000
564388.000000
565416.000000
566449.000000
567449.000000
568434.000000
569410.000000
570395.000000
571382.000000
572332.000000
573340.000000
574334.000000
575307.000000
576262.000000
577211.000000
578165.000000
579095.000000
580029.000000
580978.000000
581942.000000
582888.000000
583830.000000
584778.000000
585737.000000
586691.000000
587682.000000
588626.000000
589604.000000
590578.000000
591553.000000
592487.000000
593440.000000
594404.000000
595373.000000
596301.000000
597254.000000
598206.000000
599150.000000
600084.000000
601012.000000
602000.000000
602980.000000
603931.000000
604873.000000
605815.000000
606735.000000
607666.000000
608569.000000
609462.000000
610361.000000
611261.000000
612159.000000
613054.000000
613964.000000
614885.000000
615832.000000
616734.000000
617690.000000
618606.000000
619538.000000
620455.000000
621370.000000
622282.000000
623193.000000
624087.000000
624965.000000
625837.000000
626687.000000
627520.000000
628337.000000
629164.000000
630025.000000
630889.000000
631764.000000
632653.000000
633532.000000
634387.000000
635234.000000
636064.000000
636916.000000
637785.000000
638665.000000
639548.000000
640421.000000
641321.000000
642218.000000
643125.000000
644026.000000
644958.000000
645907.000000
646888.000000
647831.000000
648789.000000
649739.000000
650674.000000
651595.000000
652538.000000
653491.000000
654451.000000
655415.000000
656374.000000
657342.000000
658323.000000
659293.000000
660250.000000
661224.000000
662193.000000
663159.000000
664103.000000
665052.000000
665998.000000
666939.000000
667864.000000
668794.000000
669739.000000
670688.000000
671619.000000
672557.000000
673494.000000
674423.000000
675335.000000
676259.000000
677187.000000
678097.000000
678991.000000
679889.000000
680776.000000
681655.000000
682512.000000
683364.000000
684211.000000
685072.000000
685943.000000
686821.000000
687700.000000
688577.000000
689465.000000
690373.000000
691276.000000
692170.000000
693059.000000
693954.000000
694859.000000
695764.000000
696666.000000
697583.000000
698499.000000
699409.000000
700303.000000
701201.000000
702098.000000
703010.000000
703906.000000
704797.000000
705705.000000
706606.000000
707493.000000
708375.000000
709276.000000
710170.000000
711067.000000
711956.000000
712860.000000
713789.000000
714723.000000
715627.000000
716549.000000
717483.000000
718426.000000
719367.000000
720293.000000
721262.000000
722240.000000
723240.000000
724192.000000
725158.000000
726124.000000
727084.000000
728020.000000
728940.000000
729879.000000
730805.000000
731747.000000
732652.000000
733557.000000
734442.000000
735312.000000
736156.000000
737003.000000
737858.000000
738731.000000
739603.000000
740482.000000
741350.000000
742233.000000
743107.000000
743991.000000
744872.000000
745768.000000
746679.000000
747582.000000
748489.000000
749395.000000
750306.000000
751225.000000
752148.000000
753047.000000
753978.000000
754929.000000
755874.000000
756787.000000
757720.000000
758625.000000
759513.000000
760393.000000
761270.000000
762133.000000
762979.000000
763809.000000
764621.000000
765453.000000
766284.000000
767112.000000
767958.000000
768790.000000
769600.000000
770395.000000
771167.000000
771937.000000
772721.000000
773509.000000
774333.000000
775160.000000
775988.000000
776829.000000
777701.000000
778580.000000
779482.000000
780401.000000
781298.000000
782236.000000
783176.000000
784125.000000
785090.000000
786039.000000
786972.000000
787935.000000
788887.000000
789834.000000
790764.000000
791685.000000
792633.000000
793581.000000
794521.000000
795455.000000
796400.000000
797349.000000
798302.000000
799262.000000
800208.000000
801174.000000
802106.000000
803009.000000
803885.000000
804733.000000
805586.000000
806470.000000
807374.000000
808289.000000
809229.000000
810170.000000
811085.000000
812012.000000
812950.000000
813896.000000
814823.000000
815760.000000
816705.000000
817655.000000
818588.000000
819528.000000
820502.000000
821482.000000
822436.000000
823402.000000
824371.000000
825341.000000
826315.000000
827263.000000
828216.000000
829180.000000
830129.000000
831047.000000
831967.000000
832901.000000
833821.000000
834714.000000
835613.000000
836553.000000
837492.000000
838431.000000
839374.000000
840295.000000
841243.000000
842171.000000
843063.000000
843940.000000
844785.000000
845619.000000
846458.000000
847346.000000
848224.000000
849117.000000
850028.000000
850939.000000
851831.000000
852733.000000
853628.000000
854511.000000
855398.000000
856292.000000
857199.000000
858093.000000
859007.000000
859924.000000
860838.000000
861738.000000
862647.000000
863558.000000
864474.000000
865372.000000
866298.000000
867234.000000
868172.000000
869088.000000
870018.000000
870938.000000
871858.000000
872753.000000
873653.000000
874549.000000
875452.000000
876330.000000
877230.000000
878135.000000
879057.000000
879948.000000
880851.000000
881766.000000
882678.000000
883578.000000
884487.000000
885420.000000
886345.000000
887259.000000
888169.000000
889055.000000
889927.000000
890789.000000
891666.000000
892540.000000
893413.000000
894281.000000
895133.000000
895967.000000
896786.000000
897619.000000
898465.000000
