ECG (ms)
500.000000
1769.000000
3119.000000
4364.000000
5370.000000
6298.000000
7217.000000
8654.000000
9981.000000
11195.000000
12428.000000
13591.000000
14664.000000
15548.000000
16399.000000
17264.000000
18299.000000
19693.000000
21030.000000
22258.000000
23463.000000
24532.000000
25483.000000
26863.000000
28192.000000
29485.000000
30785.000000
32108.000000
33291.000000
34476.000000
35875.000000
37213.000000
38329.000000
39361.000000
40829.000000
42234.000000
43631.000000
44731.000000
46205.000000
47609.000000
48920.000000
50031.000000
51178.000000
52661.000000
54079.000000
55369.000000
56450.000000
57669.000000
59100.000000
60509.000000
61777.000000
62894.000000
64237.000000
65548.000000
66816.000000
67905.000000
69386.000000
70772.000000
72087.000000
73149.000000
74154.000000
75565.000000
76857.000000
77989.000000
78931.000000
80386.000000
81719.000000
82971.000000
84142.000000
85404.000000
86673.000000
87873.000000
88846.000000
89934.000000
91299.000000
92627.000000
93941.000000
95033.000000
96205.000000
97542.000000
98690.000000
99642.000000
100650.000000
102055.000000
103374.000000
104654.000000
105997.000000
107311.000000
108431.000000
109758.000000
111040.000000
112303.000000
113540.000000
114836.000000
116076.000000
117345.000000
118673.000000
120038.000000
121311.000000
122549.000000
123998.000000
125308.000000
126501.000000
127803.000000
129159.000000
130410.000000
131739.000000
133150.000000
134449.000000
135700.000000
137051.000000
138382.000000
139538.000000
140665.000000
142097.000000
143550.000000
144836.000000
146114.000000
147387.000000
148559.000000
149609.000000
151008.000000
152391.000000
153590.000000
154738.000000
156111.000000
157394.000000
158507.000000
159633.000000
160966.000000
162263.000000
163326.000000
164648.000000
165921.000000
167195.000000
168289.000000
169335.000000
170750.000000
172157.000000
173477.000000
174647.000000
175831.000000
176969.000000
177937.000000
178876.000000
180270.000000
181559.000000
182578.000000
183846.000000
185074.000000
186148.000000
187108.000000
188180.000000
189532.000000
190663.000000
191871.000000
193215.000000
194400.000000
195407.000000
196449.000000
197341.000000
198237.000000
199675.000000
200813.000000
202185.000000
203524.000000
204761.000000
205865.000000
206854.000000
208087.000000
209333.000000
210431.000000
211435.000000
212819.000000
214132.000000
215216.000000
216260.000000
217669.000000
218870.000000
219847.000000
220927.000000
222424.000000
223745.000000
225009.000000
226383.000000
227672.000000
228708.000000
230117.000000
231466.000000
232759.000000
233904.000000
235245.000000
236611.000000
237891.000000
238944.000000
240355.000000
241713.000000
242899.000000
244290.000000
245661.000000
246963.000000
248265.000000
249335.000000
250753.000000
252078.000000
253421.000000
254641.000000
255712.000000
257021.000000
258354.000000
259605.000000
260864.000000
261973.000000
263285.000000
264571.000000
265741.000000
266763.000000
267767.000000
269033.000000
270310.000000
271429.000000
272566.000000
273814.000000
275047.000000
276169.000000
277426.000000
278641.000000
279774.000000
280731.000000
281712.000000
283154.000000
284487.000000
285754.000000
286778.000000
287832.000000
289187.000000
290506.000000
291704.000000
292741.000000
293656.000000
294609.000000
296030.000000
297311.000000
298340.000000
299466.000000
300770.000000
302000.000000
302987.000000
303898.000000
304886.000000
306281.000000
307500.000000
308501.000000
309537.000000
310912.000000
312217.000000
313413.000000
314513.000000
315784.000000
316936.000000
317915.000000
318875.000000
320263.000000
321447.000000
322463.000000
323506.000000
324962.000000
326106.000000
327182.000000
328564.000000
329755.000000
331091.000000
332406.000000
333572.000000
334596.000000
335747.000000
337164.000000
338439.000000
339674.000000
341072.000000
342434.000000
343617.000000
344684.000000
346074.000000
347421.000000
348631.000000
349769.000000
351165.000000
352407.000000
353633.000000
354779.000000
355858.000000
357272.000000
358610.000000
359783.000000
360964.000000
362313.000000
363537.000000
364581.000000
365881.000000
367179.000000
368282.000000
369455.000000
370680.000000
371735.000000
372896.000000
374067.000000
375144.000000
376321.000000
377667.000000
378870.000000
379904.000000
380951.000000
382314.000000
383402.000000
384380.000000
385455.000000
386861.000000
388074.000000
389070.000000
390092.000000
391538.000000
392773.000000
393938.000000
395253.000000
396643.000000
397837.000000
399007.000000
400382.000000
401529.000000
402726.000000
404242.000000
405558.000000
406926.000000
408238.000000
409471.000000
410587.000000
411968.000000
413291.000000
414526.000000
415585.000000
416788.000000
418138.000000
419441.000000
420545.000000
421733.000000
423055.000000
424306.000000
425571.000000
426856.000000
427865.000000
428825.000000
430237.000000
431539.000000
432775.000000
433868.000000
434858.000000
435969.000000
437335.000000
438590.000000
439623.000000
440642.000000
441827.000000
443178.000000
444461.000000
445560.000000
446795.000000
448186.000000
449381.000000
450434.000000
451781.000000
453106.000000
454371.000000
455401.000000
456413.000000
457589.000000
458716.000000
459760.000000
460727.000000
461784.000000
463139.000000
464402.000000
465603.000000
466574.000000
467497.000000
468958.000000
470303.000000
471543.000000
472682.000000
473761.000000
475109.000000
476437.000000
477687.000000
478702.000000
479639.000000
480746.000000
482063.000000
483288.000000
484283.000000
485232.000000
486613.000000
487869.000000
488959.000000
489895.000000
491055.000000
492363.000000
493596.000000
494605.000000
495629.000000
496905.000000
498174.000000
499207.000000
500171.000000
501602.000000
502883.000000
503915.000000
504875.000000
506296.000000
507623.000000
508699.000000
510014.000000
511390.000000
512568.000000
513749.000000
515120.000000
516403.000000
517529.000000
518716.000000
520075.000000
521330.000000
522496.000000
523856.000000
525199.000000
526431.000000
527560.000000
528753.000000
530050.000000
531262.000000
532666.000000
533997.000000
535153.000000
536131.000000
537120.000000
538563.000000
539857.000000
540907.000000
542344.000000
543708.000000
545077.000000
546277.000000
547529.000000
548714.000000
549722.000000
550806.000000
552070.000000
553314.000000
554361.000000
555277.000000
556221.000000
557707.000000
558995.000000
559993.000000
560971.000000
562279.000000
563501.000000
564689.000000
566013.000000
567304.000000
568370.000000
569325.000000
570359.000000
571556.000000
572680.000000
573701.000000
575051.000000
576325.000000
577345.000000
578444.000000
579765.000000
580944.000000
581947.000000
583114.000000
584442.000000
585642.000000
586639.000000
587797.000000
589169.000000
590512.000000
591681.000000
592651.000000
593584.000000
594795.000000
596049.000000
597170.000000
598228.000000
599534.000000
600823.000000
601981.000000
603021.000000
604402.000000
605691.000000
606927.000000
607998.000000
609363.000000
610757.000000
612017.000000
613255.000000
614657.000000
616030.000000
617244.000000
618282.000000
619708.000000
621101.000000
622405.000000
623664.000000
624728.000000
625777.000000
627196.000000
628539.000000
629695.000000
630707.000000
632084.000000
633438.000000
634732.000000
635795.000000
636991.000000
638404.000000
639775.000000
640992.000000
642050.000000
643376.000000
644723.000000
645977.000000
647066.000000
648224.000000
649470.000000
650745.000000
651827.000000
652808.000000
654215.000000
655558.000000
656706.000000
657678.000000
658583.000000
659444.000000
660929.000000
662137.000000
663132.000000
664269.000000
665607.000000
666854.000000
667870.000000
668871.000000
670036.000000
671221.000000
672259.000000
673218.000000
674408.000000
675650.000000
676730.000000
677775.000000
679142.000000
680364.000000
681478.000000
682793.000000
684072.000000
685157.000000
686390.000000
687774.000000
688953.000000
690085.000000
691486.000000
692811.000000
694050.000000
695131.000000
696212.000000
697472.000000
698789.000000
699972.000000
700987.000000
702044.000000
703423.000000
704752.000000
705996.000000
707124.000000
708415.000000
709704.000000
710953.000000
712100.000000
713082.000000
714109.000000
715528.000000
716871.000000
718140.000000
719259.000000
720430.000000
721779.000000
723167.000000
724430.000000
725555.000000
726903.000000
728294.000000
729488.000000
730546.000000
731895.000000
733211.000000
734341.000000
735350.000000
736687.000000
737926.000000
739023.000000
739965.000000
741125.000000
742461.000000
743601.000000
744548.000000
745529.000000
746904.000000
748052.000000
749176.000000
750144.000000
751128.000000
752480.000000
753708.000000
754785.000000
755717.000000
756685.000000
757843.000000
759054.000000
760143.000000
761392.000000
762517.000000
763513.000000
764611.000000
765677.000000
766648.000000
767871.000000
768951.000000
769903.000000
770964.000000
772272.000000
773313.000000
774566.000000
775821.000000
776924.000000
778017.000000
779322.000000
780613.000000
781938.000000
783303.000000
784601.000000
785785.000000
786782.000000
788275.000000
789602.000000
790812.000000
791885.000000
793195.000000
794557.000000
795852.000000
796948.000000
798227.000000
799600.000000
800906.000000
802083.000000
803312.000000
804523.000000
805545.000000
806563.000000
807961.000000
809333.000000
810576.000000
811735.000000
813097.000000
814470.000000
815666.000000
816642.000000
817686.000000
819055.000000
820175.000000
821201.000000
822611.000000
823755.000000
824728.000000
825819.000000
827164.000000
828224.000000
829298.000000
830668.000000
831932.000000
833299.000000
834629.000000
835986.000000
837238.000000
838504.000000
839830.000000
841042.000000
842434.000000
843802.000000
845042.000000
846092.000000
847018.000000
847999.000000
849431.000000
850826.000000
852066.000000
853142.000000
854389.000000
855759.000000
857045.000000
858206.000000
859480.000000
860815.000000
862076.000000
863211.000000
864488.000000
865745.000000
866910.000000
867985.000000
869336.000000
870704.000000
871915.000000
873116.000000
874101.000000
875131.000000
876515.000000
877685.000000
878717.000000
880049.000000
881360.000000
882588.000000
883596.000000
884553.000000
885733.000000
887105.000000
888359.000000
889444.000000
890479.000000
891823.000000
893136.000000
894262.000000
895291.000000
896594.000000
897888.000000
899072.000000
900061.000000
901452.000000
902756.000000
903885.000000
904876.000000
906151.000000
907468.000000
908720.000000
909982.000000
911327.000000
912616.000000
913886.000000
915017.000000
916301.000000
917595.000000
918777.000000
919952.000000
921265.000000
