ECG (ms)
278.000000
938.000000
1640.000000
2401.000000
3189.000000
4009.000000
4889.000000
5767.000000
6569.000000
7344.000000
8116.000000
8895.000000
9710.000000
10511.000000
11314.000000
12167.000000
13002.000000
13767.000000
14515.000000
15268.000000
16014.000000
16782.000000
17591.000000
18526.000000
19401.000000
20263.000000
21142.000000
22007.000000
22842.000000
23654.000000
24409.000000
25161.000000
25939.000000
26835.000000
27783.000000
28662.000000
29512.000000
30380.000000
31252.000000
32123.000000
32980.000000
33815.000000
34656.000000
35479.000000
36283.000000
37075.000000
37945.000000
38842.000000
39714.000000
40541.000000
41379.000000
42226.000000
43081.000000
43901.000000
44738.000000
45576.000000
46422.000000
47245.000000
48066.000000
48890.000000
49700.000000
50524.000000
51358.000000
52186.000000
52998.000000
53830.000000
54611.000000
55366.000000
56150.000000
56990.000000
57798.000000
58567.000000
59347.000000
60153.000000
60994.000000
61807.000000
62566.000000
63346.000000
64169.000000
64955.000000
65705.000000
66428.000000
67159.000000
67901.000000
68642.000000
69375.000000
70102.000000
70811.000000
71534.000000
72258.000000
72981.000000
73718.000000
74519.000000
75350.000000
76084.000000
76769.000000
77428.000000
78115.000000
79016.000000
79787.000000
80591.000000
81470.000000
82279.000000
83082.000000
83936.000000
84793.000000
85601.000000
86378.000000
87163.000000
87989.000000
88880.000000
89738.000000
90560.000000
91414.000000
92321.000000
93228.000000
94055.000000
94886.000000
95742.000000
96614.000000
97464.000000
98235.000000
99018.000000
99843.000000
100755.000000
101676.000000
102522.000000
103390.000000
104238.000000
105123.000000
105951.000000
106733.000000
107586.000000
108524.000000
109418.000000
110321.000000
111195.000000
112091.000000
112977.000000
113820.000000
114690.000000
115557.000000
116427.000000
117271.000000
118129.000000
118998.000000
119872.000000
120742.000000
121574.000000
122419.000000
123271.000000
124118.000000
124943.000000
125722.000000
126528.000000
127333.000000
128191.000000
129015.000000
129797.000000
130622.000000
131488.000000
132401.000000
133220.000000
134032.000000
134873.000000
135756.000000
136604.000000
137384.000000
138198.000000
139047.000000
139874.000000
140642.000000
141404.000000
142198.000000
143043.000000
143868.000000
144636.000000
145447.000000
146278.000000
147104.000000
147869.000000
148630.000000
149459.000000
150319.000000
151178.000000
151951.000000
152740.000000
153563.000000
154476.000000
155308.000000
156127.000000
157012.000000
157895.000000
158753.000000
159543.000000
160308.000000
161086.000000
161894.000000
162703.000000
163473.000000
164275.000000
165113.000000
165968.000000
166772.000000
167591.000000
168473.000000
169364.000000
170160.000000
170944.000000
171753.000000
172579.000000
173359.000000
174106.000000
174865.000000
175644.000000
176363.000000
177032.000000
177707.000000
178460.000000
179465.000000
180365.000000
181185.000000
182023.000000
182852.000000
183633.000000
184379.000000
185153.000000
185995.000000
186887.000000
187685.000000
188516.000000
189375.000000
190200.000000
190960.000000
191736.000000
192555.000000
193465.000000
194307.000000
195132.000000
196002.000000
196905.000000
197744.000000
198549.000000
199375.000000
200260.000000
201167.000000
201970.000000
202776.000000
203605.000000
204450.000000
205234.000000
206047.000000
206877.000000
207693.000000
208463.000000
209238.000000
210053.000000
210821.000000
211580.000000
212375.000000
213192.000000
214002.000000
214766.000000
215544.000000
216383.000000
217161.000000
217906.000000
218632.000000
219365.000000
220071.000000
220766.000000
221460.000000
222181.000000
222898.000000
223653.000000
224360.000000
225060.000000
225747.000000
226434.000000
227134.000000
227827.000000
228520.000000
229211.000000
229895.000000
230588.000000
231283.000000
231964.000000
232655.000000
233347.000000
234016.000000
234675.000000
235318.000000
235955.000000
236624.000000
237332.000000
238039.000000
238822.000000
239616.000000
240459.000000
241268.000000
242042.000000
242841.000000
243663.000000
244446.000000
245178.000000
245910.000000
246624.000000
247308.000000
247974.000000
248692.000000
249456.000000
250219.000000
251059.000000
252034.000000
252910.000000
253737.000000
254563.000000
255419.000000
256248.000000
257031.000000
257829.000000
258650.000000
259497.000000
260285.000000
261068.000000
261900.000000
262782.000000
263642.000000
264439.000000
265271.000000
266140.000000
266998.000000
267780.000000
268567.000000
269396.000000
270305.000000
271163.000000
271968.000000
272807.000000
273710.000000
274598.000000
275405.000000
276225.000000
277080.000000
278004.000000
278860.000000
279707.000000
280614.000000
281507.000000
282375.000000
283244.000000
284124.000000
285005.000000
285856.000000
286699.000000
287552.000000
288413.000000
289267.000000
290102.000000
290959.000000
291837.000000
292720.000000
293581.000000
294454.000000
295340.000000
296225.000000
297098.000000
297948.000000
298830.000000
299721.000000
300614.000000
301488.000000
302351.000000
303232.000000
304118.000000
305004.000000
305858.000000
306727.000000
307599.000000
308480.000000
309339.000000
310203.000000
311092.000000
311988.000000
312855.000000
313701.000000
314565.000000
315410.000000
316185.000000
316932.000000
317724.000000
318560.000000
319380.000000
320137.000000
320884.000000
321648.000000
322531.000000
323366.000000
324237.000000
325151.000000
326030.000000
326875.000000
327745.000000
328627.000000
329504.000000
330340.000000
331198.000000
332049.000000
332906.000000
333738.000000
334561.000000
335369.000000
336189.000000
337025.000000
337807.000000
338618.000000
339459.000000
340316.000000
341084.000000
341846.000000
342654.000000
343476.000000
344254.000000
345031.000000
345888.000000
346783.000000
347679.000000
348530.000000
349446.000000
350323.000000
351119.000000
351871.000000
352650.000000
353460.000000
354279.000000
355057.000000
355975.000000
356963.000000
357878.000000
358747.000000
359634.000000
360515.000000
361359.000000
362198.000000
362997.000000
363767.000000
364533.000000
365269.000000
366027.000000
366907.000000
367789.000000
368580.000000
369407.000000
370368.000000
371261.000000
372129.000000
373002.000000
373871.000000
374724.000000
375533.000000
376270.000000
376963.000000
377678.000000
378422.000000
379185.000000
380117.000000
381040.000000
381896.000000
382765.000000
383653.000000
384542.000000
385399.000000
386265.000000
387137.000000
388010.000000
388857.000000
389712.000000
390575.000000
391435.000000
392256.000000
393091.000000
393941.000000
394797.000000
395645.000000
396485.000000
397347.000000
398213.000000
399062.000000
399902.000000
400764.000000
401626.000000
402480.000000
403314.000000
404167.000000
405027.000000
405898.000000
406747.000000
407582.000000
408443.000000
409318.000000
410207.000000
411075.000000
411947.000000
412830.000000
413703.000000
414541.000000
415374.000000
416217.000000
417021.000000
417882.000000
418689.000000
419483.000000
420305.000000
421140.000000
421914.000000
422681.000000
423481.000000
424348.000000
425211.000000
425999.000000
426773.000000
427550.000000
428331.000000
429094.000000
429806.000000
430480.000000
431161.000000
432009.000000
432973.000000
433926.000000
434818.000000
435686.000000
436510.000000
437262.000000
437953.000000
438629.000000
439330.000000
440085.000000
440895.000000
441707.000000
442453.000000
443190.000000
443937.000000
444734.000000
445613.000000
446464.000000
447209.000000
447944.000000
448666.000000
449406.000000
450141.000000
450858.000000
451643.000000
452525.000000
453367.000000
454146.000000
454934.000000
455722.000000
456473.000000
457192.000000
457921.000000
458685.000000
459492.000000
460254.000000
461025.000000
461825.000000
462626.000000
463381.000000
464121.000000
464875.000000
465662.000000
466433.000000
467175.000000
467957.000000
468894.000000
469857.000000
470708.000000
471572.000000
472450.000000
473316.000000
474159.000000
475013.000000
475866.000000
476716.000000
477543.000000
478379.000000
479225.000000
480078.000000
480920.000000
481698.000000
482480.000000
483291.000000
484074.000000
484812.000000
485559.000000
486399.000000
487377.000000
488400.000000
489358.000000
490221.000000
491062.000000
491846.000000
492605.000000
493416.000000
494355.000000
495230.000000
496079.000000
496957.000000
497844.000000
498688.000000
499545.000000
500415.000000
501281.000000
502121.000000
502962.000000
503814.000000
504676.000000
505522.000000
506372.000000
507231.000000
508092.000000
508929.000000
509781.000000
510610.000000
511398.000000
512134.000000
512893.000000
513654.000000
514397.000000
515210.000000
516116.000000
516946.000000
517713.000000
518518.000000
519352.000000
520138.000000
520923.000000
521751.000000
522616.000000
523406.000000
524169.000000
524947.000000
525755.000000
526589.000000
527365.000000
528130.000000
528918.000000
529720.000000
530473.000000
531214.000000
531979.000000
532807.000000
533699.000000
534504.000000
535276.000000
536057.000000
536839.000000
537597.000000
538333.000000
539097.000000
539934.000000
540835.000000
541637.000000
542405.000000
543200.000000
544055.000000
544876.000000
545635.000000
546443.000000
547313.000000
548155.000000
548940.000000
549757.000000
550769.000000
551676.000000
552542.000000
553386.000000
554201.000000
554976.000000
555769.000000
556528.000000
557294.000000
558153.000000
559104.000000
559980.000000
560739.000000
561502.000000
562298.000000
563175.000000
564034.000000
564824.000000
565617.000000
566435.000000
567293.000000
568140.000000
568930.000000
569731.000000
570555.000000
571423.000000
572215.000000
572998.000000
573773.000000
574565.000000
575364.000000
576135.000000
576928.000000
577765.000000
578648.000000
579506.000000
580298.000000
581137.000000
581977.000000
582807.000000
583588.000000
584357.000000
585136.000000
585939.000000
586704.000000
587449.000000
588254.000000
589145.000000
589999.000000
590775.000000
591586.000000
592465.000000
593340.000000
594161.000000
594953.000000
595756.000000
596591.000000
597395.000000
598163.000000
598970.000000
599801.000000
600628.000000
601398.000000
602168.000000
602959.000000
603788.000000
604637.000000
605412.000000
606185.000000
607015.000000
607874.000000
608682.000000
609438.000000
610214.000000
611028.000000
611859.000000
612640.000000
613394.000000
614185.000000
615021.000000
615854.000000
616631.000000
617387.000000
618162.000000
618974.000000
619800.000000
620564.000000
621322.000000
622095.000000
622922.000000
623788.000000
624563.000000
625300.000000
626053.000000
626848.000000
627703.000000
628582.000000
629389.000000
630132.000000
630831.000000
631531.000000
632400.000000
633396.000000
634270.000000
635149.000000
636021.000000
636893.000000
637752.000000
638615.000000
639468.000000
640295.000000
641119.000000
641871.000000
642643.000000
643471.000000
644324.000000
645148.000000
645942.000000
646761.000000
647648.000000
648536.000000
649383.000000
650170.000000
650936.000000
651705.000000
652523.000000
653369.000000
654169.000000
654943.000000
655732.000000
656534.000000
657378.000000
658159.000000
658934.000000
659735.000000
660568.000000
