ECG (ms)
170.000000
840.000000
1511.000000
2197.000000
2876.000000
3552.000000
4240.000000
4935.000000
5627.000000
6306.000000
6995.000000
7687.000000
8364.000000
9035.000000
9712.000000
10399.000000
11072.000000
11740.000000
12426.000000
13132.000000
13846.000000
14532.000000
15222.000000
15907.000000
16588.000000
17259.000000
17934.000000
18621.000000
19323.000000
20010.000000
20688.000000
21371.000000
22073.000000
22767.000000
23454.000000
24145.000000
24848.000000
25542.000000
26208.000000
26876.000000
27551.000000
28230.000000
28894.000000
29564.000000
30242.000000
30935.000000
31614.000000
32286.000000
32968.000000
33662.000000
34355.000000
35023.000000
35696.000000
36385.000000
37055.000000
37712.000000
38370.000000
39021.000000
39663.000000
40299.000000
40941.000000
41615.000000
42307.000000
42982.000000
43669.000000
44372.000000
45076.000000
45759.000000
46443.000000
47120.000000
47805.000000
48475.000000
49149.000000
49825.000000
50512.000000
51188.000000
51863.000000
52537.000000
53221.000000
53887.000000
54553.000000
55218.000000
55899.000000
56604.000000
57279.000000
57951.000000
58622.000000
59317.000000
60000.000000
60700.000000
61407.000000
62111.000000
62799.000000
63501.000000
64200.000000
64901.000000
65572.000000
66235.000000
66902.000000
67588.000000
68269.000000
68941.000000
69615.000000
70297.000000
71000.000000
71683.000000
72366.000000
73050.000000
73732.000000
74397.000000
75054.000000
75701.000000
76350.000000
77013.000000
77666.000000
78308.000000
78952.000000
79614.000000
80298.000000
80965.000000
81637.000000
82311.000000
82998.000000
83692.000000
84366.000000
85031.000000
85686.000000
86345.000000
86990.000000
87635.000000
88293.000000
88989.000000
89693.000000
90378.000000
91070.000000
91763.000000
92473.000000
93159.000000
93842.000000
94535.000000
95252.000000
95942.000000
96630.000000
97322.000000
98029.000000
98712.000000
99390.000000
100075.000000
100771.000000
101465.000000
102150.000000
102843.000000
103552.000000
104302.000000
105004.000000
105694.000000
106386.000000
107071.000000
107741.000000
108408.000000
109083.000000
109768.000000
110449.000000
111126.000000
111829.000000
112544.000000
113231.000000
113917.000000
114610.000000
115305.000000
115977.000000
116635.000000
117290.000000
117954.000000
118632.000000
119298.000000
119972.000000
120675.000000
121393.000000
122078.000000
122760.000000
123456.000000
124163.000000
124851.000000
125528.000000
126208.000000
126883.000000
127550.000000
128194.000000
128835.000000
129477.000000
130143.000000
130820.000000
131497.000000
132191.000000
132910.000000
133627.000000
134315.000000
134993.000000
135675.000000
136372.000000
137064.000000
137734.000000
138407.000000
139086.000000
139782.000000
140465.000000
141144.000000
141835.000000
142546.000000
143263.000000
143950.000000
144641.000000
145337.000000
146012.000000
146675.000000
147338.000000
148007.000000
148689.000000
149363.000000
150047.000000
150755.000000
151471.000000
152153.000000
152843.000000
153538.000000
154235.000000
154907.000000
155581.000000
156262.000000
156967.000000
157647.000000
158328.000000
159018.000000
159717.000000
160404.000000
161088.000000
161775.000000
162471.000000
163148.000000
163821.000000
164499.000000
165179.000000
165839.000000
166503.000000
167174.000000
167856.000000
168528.000000
169190.000000
169861.000000
170534.000000
171217.000000
171877.000000
172540.000000
173204.000000
173880.000000
174554.000000
175213.000000
175874.000000
176546.000000
177241.000000
177925.000000
178617.000000
179320.000000
180046.000000
180749.000000
181441.000000
182141.000000
182843.000000
183521.000000
184195.000000
184874.000000
185560.000000
186220.000000
186882.000000
187544.000000
188213.000000
188863.000000
189510.000000
190167.000000
190836.000000
191489.000000
192145.000000
192801.000000
193467.000000
194127.000000
194789.000000
195467.000000
196155.000000
196822.000000
197484.000000
198152.000000
198822.000000
199475.000000
200125.000000
200779.000000
201453.000000
202135.000000
202798.000000
203463.000000
204135.000000
204812.000000
205467.000000
206120.000000
206777.000000
207456.000000
208119.000000
208785.000000
209464.000000
210152.000000
210841.000000
211525.000000
212210.000000
212906.000000
213608.000000
214288.000000
214958.000000
215635.000000
216316.000000
216981.000000
217644.000000
218310.000000
218992.000000
219668.000000
220336.000000
221011.000000
221709.000000
222395.000000
223073.000000
223757.000000
224443.000000
225114.000000
225788.000000
226464.000000
227155.000000
227820.000000
228488.000000
229161.000000
229833.000000
230487.000000
231136.000000
231788.000000
232452.000000
233117.000000
233777.000000
234450.000000
235131.000000
235845.000000
236537.000000
237225.000000
237919.000000
238617.000000
239291.000000
239956.000000
240622.000000
241294.000000
241959.000000
242608.000000
243237.000000
243859.000000
244492.000000
245156.000000
245819.000000
246483.000000
247151.000000
247835.000000
248536.000000
249222.000000
249901.000000
250576.000000
251253.000000
251911.000000
252560.000000
253213.000000
253865.000000
254534.000000
255189.000000
255850.000000
256517.000000
257195.000000
257863.000000
258529.000000
259196.000000
259868.000000
260534.000000
261195.000000
261854.000000
262511.000000
263172.000000
263828.000000
264484.000000
265144.000000
265827.000000
266503.000000
267176.000000
267858.000000
268552.000000
269222.000000
269891.000000
270559.000000
271227.000000
271880.000000
272539.000000
273196.000000
273862.000000
274518.000000
275180.000000
275843.000000
276518.000000
277181.000000
277839.000000
278505.000000
279196.000000
279875.000000
280547.000000
281227.000000
281907.000000
282602.000000
283272.000000
283939.000000
284607.000000
285288.000000
285956.000000
286632.000000
287319.000000
288020.000000
288705.000000
289377.000000
290056.000000
290753.000000
291436.000000
292108.000000
292780.000000
293462.000000
294150.000000
294817.000000
295484.000000
296151.000000
296828.000000
297494.000000
298147.000000
298791.000000
299440.000000
300125.000000
300830.000000
301521.000000
302211.000000
302907.000000
303603.000000
304280.000000
304948.000000
305621.000000
306308.000000
306975.000000
307638.000000
308308.000000
308991.000000
309656.000000
310321.000000
310996.000000
311693.000000
312377.000000
313052.000000
313727.000000
314405.000000
315085.000000
315750.000000
316414.000000
317075.000000
317743.000000
318412.000000
319080.000000
319754.000000
320451.000000
321142.000000
321823.000000
322509.000000
323188.000000
323869.000000
324526.000000
325183.000000
325842.000000
326520.000000
327218.000000
327897.000000
328581.000000
329272.000000
329982.000000
330690.000000
331373.000000
332043.000000
332707.000000
333387.000000
334072.000000
334748.000000
335423.000000
336101.000000
336802.000000
337505.000000
338193.000000
338879.000000
339559.000000
340256.000000
340951.000000
341634.000000
342316.000000
343004.000000
343719.000000
344411.000000
345089.000000
345770.000000
346454.000000
347144.000000
347816.000000
348476.000000
349145.000000
349837.000000
350516.000000
351199.000000
351902.000000
352617.000000
353307.000000
353995.000000
354680.000000
355369.000000
356032.000000
356699.000000
357384.000000
358089.000000
358774.000000
359454.000000
360148.000000
360850.000000
361533.000000
362212.000000
362892.000000
363581.000000
364264.000000
364927.000000
365594.000000
366263.000000
366955.000000
367635.000000
368318.000000
369002.000000
369699.000000
370378.000000
371053.000000
371735.000000
372429.000000
373100.000000
373776.000000
374451.000000
375132.000000
375795.000000
376454.000000
377122.000000
377790.000000
378446.000000
379107.000000
379772.000000
380443.000000
381104.000000
381756.000000
382408.000000
383074.000000
383757.000000
384434.000000
385120.000000
385822.000000
386516.000000
387191.000000
387867.000000
388539.000000
389218.000000
389879.000000
390540.000000
391199.000000
391869.000000
392528.000000
393189.000000
393866.000000
394562.000000
395245.000000
395918.000000
396599.000000
397290.000000
397986.000000
398663.000000
399342.000000
400025.000000
400720.000000
401398.000000
402076.000000
402755.000000
403451.000000
404151.000000
404830.000000
405507.000000
406193.000000
406903.000000
407593.000000
408275.000000
408961.000000
409657.000000
410335.000000
411004.000000
411678.000000
412358.000000
413024.000000
413701.000000
414393.000000
415101.000000
415799.000000
416485.000000
417184.000000
417883.000000
418552.000000
419218.000000
419888.000000
420563.000000
421222.000000
421883.000000
422546.000000
423229.000000
423899.000000
424570.000000
425247.000000
425937.000000
426621.000000
427288.000000
427960.000000
428635.000000
429333.000000
430006.000000
430678.000000
431352.000000
432038.000000
432720.000000
433387.000000
434048.000000
434715.000000
435402.000000
436075.000000
436753.000000
437446.000000
438171.000000
438869.000000
439568.000000
440261.000000
440955.000000
441625.000000
442295.000000
442964.000000
443661.000000
444346.000000
445018.000000
445693.000000
446379.000000
447059.000000
447723.000000
448393.000000
449077.000000
449789.000000
450476.000000
451164.000000
451865.000000
452574.000000
453251.000000
453920.000000
454589.000000
455278.000000
455961.000000
456634.000000
457314.000000
458004.000000
458684.000000
459354.000000
460029.000000
460713.000000
461403.000000
462080.000000
462762.000000
463454.000000
464171.000000
464864.000000
465552.000000
466241.000000
466941.000000
467618.000000
468279.000000
468936.000000
469600.000000
470257.000000
470909.000000
471565.000000
472244.000000
472944.000000
473627.000000
474307.000000
474995.000000
475690.000000
476371.000000
477050.000000
477729.000000
478402.000000
479059.000000
479715.000000
480368.000000
481034.000000
481690.000000
482341.000000
482987.000000
483658.000000
484355.000000
485032.000000
485704.000000
486375.000000
487053.000000
487729.000000
488392.000000
489054.000000
489725.000000
490409.000000
491077.000000
491744.000000
492418.000000
493113.000000
493783.000000
494449.000000
495116.000000
495796.000000
496469.000000
497137.000000
497801.000000
498466.000000
499159.000000
499848.000000
500531.000000
501220.000000
501924.000000
502631.000000
503313.000000
503998.000000
504678.000000
505374.000000
506051.000000
506732.000000
507425.000000
508131.000000
508815.000000
509504.000000
510188.000000
510896.000000
511582.000000
512257.000000
512932.000000
513620.000000
514311.000000
514986.000000
515675.000000
516383.000000
517126.000000
517838.000000
518537.000000
519240.000000
519954.000000
520639.000000
521326.000000
522016.000000
522726.000000
523422.000000
524105.000000
524795.000000
525516.000000
526233.000000
526928.000000
527638.000000
528356.000000
529054.000000
529731.000000
530406.000000
531089.000000
531778.000000
532450.000000
533116.000000
533790.000000
534490.000000
535172.000000
535860.000000
536562.000000
537288.000000
538009.000000
538699.000000
539390.000000
540087.000000
540800.000000
541485.000000
542157.000000
542839.000000
543538.000000
544224.000000
544906.000000
545595.000000
546303.000000
546985.000000
547661.000000
548336.000000
549018.000000
549705.000000
550373.000000
551051.000000
551730.000000
552433.000000
553111.000000
553788.000000
554469.000000
555167.000000
555860.000000
556534.000000
557204.000000
557884.000000
558579.000000
559264.000000
559937.000000
560613.000000
561305.000000
561980.000000
562662.000000
563356.000000
564068.000000
564766.000000
565459.000000
566150.000000
566851.000000
567540.000000
568239.000000
568945.000000
569641.000000
570318.000000
570988.000000
571658.000000
572335.000000
573002.000000
573669.000000
574350.000000
575057.000000
575750.000000
576439.000000
577124.000000
577811.000000
578476.000000
579129.000000
579778.000000
580442.000000
581137.000000
581820.000000
582503.000000
583208.000000
583937.000000
584638.000000
585326.000000
586021.000000
586720.000000
587414.000000
588094.000000
588780.000000
589477.000000
590173.000000
590854.000000
591535.000000
592230.000000
592941.000000
593623.000000
594302.000000
594982.000000
595688.000000
596377.000000
597056.000000
597740.000000
598434.000000
599110.000000
599784.000000
600462.000000
601159.000000
601857.000000
602535.000000
603224.000000
603935.000000
604669.000000
605380.000000
606071.000000
606761.000000
607467.000000
608195.000000
608900.000000
609597.000000
610300.000000
611032.000000
611751.000000
612453.000000
613162.000000
613873.000000
614572.000000
615258.000000
615945.000000
616646.000000
617353.000000
618031.000000
618703.000000
619382.000000
620080.000000
620773.000000
621452.000000
622131.000000
622817.000000
623520.000000
624203.000000
624890.000000
625584.000000
626296.000000
626988.000000
627675.000000
628370.000000
629080.000000
629768.000000
630445.000000
631124.000000
631810.000000
632485.000000
633160.000000
633845.000000
634554.000000
635240.000000
635926.000000
636630.000000
637351.000000
638041.000000
638737.000000
639451.000000
640161.000000
640844.000000
641528.000000
642215.000000
642897.000000
643571.000000
644250.000000
644955.000000
645670.000000
646379.000000
647089.000000
647796.000000
648505.000000
649186.000000
649853.000000
650520.000000
651200.000000
651882.000000
652569.000000
653271.000000
653990.000000
654694.000000
655392.000000
656104.000000
656831.000000
657530.000000
658240.000000
658958.000000
659690.000000
660388.000000
661087.000000
661789.000000
662507.000000
663203.000000
663890.000000
664583.000000
665290.000000
666024.000000
666724.000000
667424.000000
668144.000000
668891.000000
669602.000000
670311.000000
671035.000000
671786.000000
672507.000000
673213.000000
673937.000000
674677.000000
675403.000000
676101.000000
676799.000000
677506.000000
678219.000000
678916.000000
679602.000000
680306.000000
681043.000000
681746.000000
682456.000000
683183.000000
683914.000000
684618.000000
685310.000000
686010.000000
686730.000000
687433.000000
688120.000000
688812.000000
689534.000000
690250.000000
690953.000000
691668.000000
692391.000000
693114.000000
693806.000000
694511.000000
695225.000000
695936.000000
696620.000000
697307.000000
697993.000000
698697.000000
699373.000000
700053.000000
700753.000000
701481.000000
702198.000000
702903.000000
703615.000000
704339.000000
705039.000000
705723.000000
706408.000000
707116.000000
707838.000000
708537.000000
709234.000000
709940.000000
710652.000000
711339.000000
712028.000000
712732.000000
713448.000000
714136.000000
714826.000000
715514.000000
716213.000000
716897.000000
717571.000000
718244.000000
718928.000000
719607.000000
720273.000000
720931.000000
721595.000000
722278.000000
722965.000000
723656.000000
724368.000000
725102.000000
725828.000000
726530.000000
727252.000000
727990.000000
728713.000000
729402.000000
730090.000000
730793.000000
731503.000000
732189.000000
732888.000000
733594.000000
734313.000000
735006.000000
735702.000000
736406.000000
737138.000000
737844.000000
738545.000000
739259.000000
740004.000000
740709.000000
741413.000000
742124.000000
742850.000000
743550.000000
744238.000000
744929.000000
745640.000000
746342.000000
747034.000000
747740.000000
748479.000000
749192.000000
749888.000000
750586.000000
751285.000000
751972.000000
752647.000000
753326.000000
754012.000000
754709.000000
755398.000000
756103.000000
756822.000000
757539.000000
758240.000000
758957.000000
759680.000000
760392.000000
761086.000000
761789.000000
762504.000000
763197.000000
763879.000000
764566.000000
765257.000000
765953.000000
766642.000000
767324.000000
768022.000000
768759.000000
769461.000000
770160.000000
770865.000000
771597.000000
772299.000000
773006.000000
773711.000000
774436.000000
775134.000000
775819.000000
776503.000000
777203.000000
777910.000000
778612.000000
779324.000000
780067.000000
780832.000000
781567.000000
782286.000000
783018.000000
783764.000000
784505.000000
785216.000000
785920.000000
786639.000000
787397.000000
788125.000000
788831.000000
789556.000000
790317.000000
791036.000000
791739.000000
792454.000000
793187.000000
793899.000000
794592.000000
795298.000000
796018.000000
796756.000000
797460.000000
798156.000000
798854.000000
799564.000000
800257.000000
800943.000000
801638.000000
802363.000000
803069.000000
803773.000000
804486.000000
805209.000000
805923.000000
806612.000000
807302.000000
807993.000000
808711.000000
809416.000000
810120.000000
810844.000000
811586.000000
812294.000000
813003.000000
813724.000000
814464.000000
815167.000000
815869.000000
816576.000000
817298.000000
818007.000000
818717.000000
819448.000000
820186.000000
820900.000000
821609.000000
822325.000000
823037.000000
823726.000000
824410.000000
825107.000000
825807.000000
826482.000000
827155.000000
827835.000000
828533.000000
829217.000000
829901.000000
830595.000000
831299.000000
831985.000000
832665.000000
833350.000000
834049.000000
834725.000000
835402.000000
836092.000000
836802.000000
837502.000000
838188.000000
838881.000000
839583.000000
840294.000000
840977.000000
841655.000000
842344.000000
843033.000000
843713.000000
844396.000000
845086.000000
845800.000000
846499.000000
847195.000000
847896.000000
848615.000000
849314.000000
850005.000000
850703.000000
851414.000000
852108.000000
852788.000000
853475.000000
854182.000000
854880.000000
855570.000000
856264.000000
856970.000000
857656.000000
858338.000000
859032.000000
859727.000000
860401.000000
861089.000000
861797.000000
862505.000000
863192.000000
863877.000000
864572.000000
865283.000000
865976.000000
866669.000000
867367.000000
868078.000000
868776.000000
869475.000000
870187.000000
870920.000000
871629.000000
872331.000000
873036.000000
873745.000000
874439.000000
875118.000000
875801.000000
876508.000000
877213.000000
877915.000000
878627.000000
879352.000000
880088.000000
880791.000000
881481.000000
882173.000000
882882.000000
883568.000000
884252.000000
884949.000000
885672.000000
886375.000000
887071.000000
887769.000000
888499.000000
889226.000000
889924.000000
890626.000000
891341.000000
892044.000000
892728.000000
893414.000000
894111.000000
894803.000000
895480.000000
896169.000000
896872.000000
897593.000000
898287.000000
898980.000000
899689.000000
900407.000000
901102.000000
901796.000000
902498.000000
903223.000000
903920.000000
904608.000000
905297.000000
906001.000000
906687.000000
907376.000000
908071.000000
908768.000000
909448.000000
910131.000000
910826.000000
911539.000000
912225.000000
912916.000000
913608.000000
914314.000000
915008.000000
915696.000000
916386.000000
917095.000000
917783.000000
918471.000000
919179.000000
919905.000000
920598.000000
921290.000000
921984.000000
922686.000000
923384.000000
924095.000000
924837.000000
925605.000000
926331.000000
927055.000000
927784.000000
928513.000000
929210.000000
929894.000000
930587.000000
931297.000000
931991.000000
932686.000000
933394.000000
934134.000000
934845.000000
935546.000000
936259.000000
936982.000000
937690.000000
938375.000000
939067.000000
939776.000000
940485.000000
941189.000000
941901.000000
942625.000000
943324.000000
944029.000000
944741.000000
945460.000000
946150.000000
946841.000000
947533.000000
948243.000000
948929.000000
949616.000000
950324.000000
951047.000000
951758.000000
952464.000000
953179.000000
953901.000000
954599.000000
955293.000000
955992.000000
956716.000000
957416.000000
958109.000000
958805.000000
959501.000000
960178.000000
960844.000000
961517.000000
962214.000000
962892.000000
963579.000000
964281.000000
964989.000000
965677.000000
966375.000000
967081.000000
967802.000000
968489.000000
969165.000000
969841.000000
970531.000000
971205.000000
971882.000000
972576.000000
973289.000000
973982.000000
974683.000000
975381.000000
976068.000000
976742.000000
977414.000000
978099.000000
978785.000000
979462.000000
980148.000000
980845.000000
981524.000000
982193.000000
982860.000000
983544.000000
984207.000000
984860.000000
985505.000000
986172.000000
986894.000000
987589.000000
988256.000000
988905.000000
989549.000000
990212.000000
990912.000000
991631.000000
992356.000000
993063.000000
993731.000000
994410.000000
995089.000000
995783.000000
996495.000000
997215.000000
997937.000000
998654.000000
999372.000000
1000088.000000
1000777.000000
1001453.000000
1002132.000000
1002798.000000
1003464.000000
1004138.000000
1004836.000000
1005561.000000
1006276.000000
1006987.000000
1007705.000000
1008437.000000
1009158.000000
1009875.000000
1010601.000000
1011336.000000
1012054.000000
1012756.000000
1013471.000000
1014187.000000
1014918.000000
1015638.000000
1016330.000000
1017009.000000
1017693.000000
1018385.000000
1019084.000000
1019766.000000
1020450.000000
1021138.000000
1021853.000000
1022564.000000
1023297.000000
1024037.000000
1024787.000000
1025508.000000
1026231.000000
1026944.000000
1027669.000000
1028397.000000
1029090.000000
1029789.000000
1030494.000000
1031216.000000
1031931.000000
1032659.000000
1033398.000000
1034153.000000
1034891.000000
1035610.000000
1036337.000000
1037068.000000
1037787.000000
1038496.000000
1039212.000000
1039976.000000
1040767.000000
1041535.000000
1042326.000000
1043121.000000
1043955.000000
1044703.000000
1045439.000000
1046166.000000
1046904.000000
1047613.000000
1048328.000000
1049048.000000
1049815.000000
1050553.000000
1051292.000000
1052051.000000
1052815.000000
1053542.000000
1054268.000000
1054990.000000
1055723.000000
1056428.000000
1057127.000000
1057834.000000
1058573.000000
1059331.000000
1060060.000000
1060808.000000
1061555.000000
1062303.000000
1063023.000000
1063736.000000
1064449.000000
1065168.000000
1065865.000000
1066540.000000
1067189.000000
1067826.000000
1068461.000000
1069115.000000
1069818.000000
1070590.000000
1071382.000000
1072162.000000
1072932.000000
1073688.000000
1074446.000000
1075202.000000
1075942.000000
1076646.000000
1077342.000000
1078026.000000
1078710.000000
1079391.000000
1080085.000000
1080795.000000
1081526.000000
1082262.000000
1083026.000000
1083804.000000
1084558.000000
1085282.000000
1086015.000000
1086750.000000
1087500.000000
1088226.000000
1088957.000000
1089702.000000
1090451.000000
1091172.000000
1091895.000000
1092609.000000
1093326.000000
1094025.000000
1094728.000000
1095442.000000
1096152.000000
1096846.000000
1097522.000000
1098182.000000
1098844.000000
1099525.000000
1100239.000000
1100950.000000
1101656.000000
1102370.000000
1103098.000000
1103825.000000
1104535.000000
1105244.000000
1105953.000000
1106660.000000
1107348.000000
1108051.000000
1108758.000000
1109486.000000
1110209.000000
1110934.000000
1111663.000000
1112404.000000
1113118.000000
1113818.000000
1114525.000000
1115245.000000
1115955.000000
1116661.000000
1117376.000000
1118101.000000
1118816.000000
1119526.000000
1120248.000000
1120987.000000
1121711.000000
1122427.000000
1123146.000000
1123876.000000
1124598.000000
1125321.000000
1126052.000000
1126778.000000
1127477.000000
1128181.000000
1128882.000000
1129603.000000
1130302.000000
1130992.000000
1131690.000000
1132402.000000
1133099.000000
1133811.000000
1134538.000000
1135284.000000
1136011.000000
1136753.000000
1137512.000000
1138253.000000
1138967.000000
1139679.000000
1140384.000000
1141093.000000
1141791.000000
1142501.000000
1143214.000000
1143934.000000
1144636.000000
1145353.000000
1146078.000000
1146806.000000
1147506.000000
1148222.000000
1148948.000000
1149652.000000
1150353.000000
1151057.000000
1151773.000000
1152465.000000
1153159.000000
1153857.000000
1154570.000000
1155254.000000
1155939.000000
1156631.000000
1157328.000000
1158016.000000
1158698.000000
1159386.000000
1160091.000000
1160778.000000
1161442.000000
1162113.000000
1162821.000000
1163568.000000
1164293.000000
1165024.000000
1165770.000000
1166519.000000
1167243.000000
1167954.000000
1168684.000000
1169432.000000
1170175.000000
1170894.000000
1171627.000000
1172377.000000
1173126.000000
1173857.000000
1174591.000000
1175320.000000
1176057.000000
1176770.000000
1177471.000000
1178188.000000
1178927.000000
1179652.000000
1180376.000000
1181122.000000
1181888.000000
1182628.000000
1183362.000000
1184094.000000
1184836.000000
1185559.000000
1186274.000000
1187000.000000
1187740.000000
1188463.000000
1189180.000000
1189915.000000
1190677.000000
1191415.000000
1192140.000000
1192865.000000
1193591.000000
1194288.000000
1194971.000000
