ECG (ms)
467.000000
1194.000000
1902.000000
2572.000000
3205.000000
3816.000000
4421.000000
5067.000000
5813.000000
6580.000000
7321.000000
7999.000000
8640.000000
9284.000000
9962.000000
10647.000000
11330.000000
11994.000000
12625.000000
13281.000000
13975.000000
14723.000000
15468.000000
16152.000000
16822.000000
17516.000000
18228.000000
18943.000000
19630.000000
20341.000000
20996.000000
21629.000000
22256.000000
22908.000000
23604.000000
24357.000000
25160.000000
25938.000000
26679.000000
27394.000000
28095.000000
28780.000000
29449.000000
30089.000000
30696.000000
31282.000000
31862.000000
32425.000000
32996.000000
33638.000000
34396.000000
35149.000000
35831.000000
36518.000000
37240.000000
37981.000000
38706.000000
39393.000000
40040.000000
40667.000000
41306.000000
42008.000000
42767.000000
43522.000000
44220.000000
44927.000000
45641.000000
46375.000000
47067.000000
47722.000000
48388.000000
49122.000000
49951.000000
50723.000000
51473.000000
52265.000000
53089.000000
53880.000000
54628.000000
55361.000000
56116.000000
56878.000000
57600.000000
58298.000000
58980.000000
59696.000000
60490.000000
61325.000000
62171.000000
62979.000000
63714.000000
64406.000000
65114.000000
65857.000000
66614.000000
67343.000000
68027.000000
68725.000000
69512.000000
70332.000000
71153.000000
71913.000000
72647.000000
73403.000000
74222.000000
75051.000000
75868.000000
76612.000000
77306.000000
78025.000000
78782.000000
79591.000000
80364.000000
81069.000000
81745.000000
82443.000000
83219.000000
84060.000000
84883.000000
85655.000000
86360.000000
87065.000000
87786.000000
88555.000000
89356.000000
90148.000000
90887.000000
91611.000000
92371.000000
93138.000000
93917.000000
94664.000000
95357.000000
96032.000000
96742.000000
97541.000000
98401.000000
99248.000000
99999.000000
100688.000000
101390.000000
102065.000000
102784.000000
103607.000000
104448.000000
105203.000000
105901.000000
106601.000000
107338.000000
108085.000000
108834.000000
109541.000000
110267.000000
111042.000000
111827.000000
112577.000000
113330.000000
114115.000000
114949.000000
115779.000000
116528.000000
117252.000000
118002.000000
118791.000000
119614.000000
120413.000000
121147.000000
121830.000000
122536.000000
123327.000000
124161.000000
124977.000000
125726.000000
126470.000000
127237.000000
128035.000000
128787.000000
129529.000000
130332.000000
131181.000000
131972.000000
132699.000000
133413.000000
134148.000000
134903.000000
135660.000000
136388.000000
137126.000000
137913.000000
138681.000000
139403.000000
140131.000000
140890.000000
141641.000000
142351.000000
143050.000000
143788.000000
144567.000000
145322.000000
146045.000000
146798.000000
147570.000000
148335.000000
149040.000000
149718.000000
150415.000000
151155.000000
151901.000000
152634.000000
153405.000000
154227.000000
155047.000000
155794.000000
156536.000000
157300.000000
158047.000000
158754.000000
159479.000000
160232.000000
161005.000000
161743.000000
162444.000000
163187.000000
163998.000000
164822.000000
165586.000000
166303.000000
167046.000000
167800.000000
168554.000000
169269.000000
169980.000000
170766.000000
171625.000000
172416.000000
173234.000000
174089.000000
174907.000000
175651.000000
176380.000000
177147.000000
177962.000000
178737.000000
179467.000000
180184.000000
180937.000000
181739.000000
182563.000000
183341.000000
184049.000000
184695.000000
185331.000000
185964.000000
186585.000000
187208.000000
187889.000000
188758.000000
189662.000000
190546.000000
191417.000000
192248.000000
192987.000000
193675.000000
194365.000000
195096.000000
195871.000000
196683.000000
197523.000000
198360.000000
199173.000000
199920.000000
200607.000000
201260.000000
201907.000000
202630.000000
203597.000000
204508.000000
205414.000000
206250.000000
207010.000000
207719.000000
208427.000000
209182.000000
209999.000000
210853.000000
211693.000000
212532.000000
213348.000000
214138.000000
214910.000000
215648.000000
216338.000000
217019.000000
217704.000000
218437.000000
219248.000000
220111.000000
220998.000000
221870.000000
222716.000000
223544.000000
224291.000000
224968.000000
225616.000000
226258.000000
226930.000000
227788.000000
228721.000000
229609.000000
230474.000000
231321.000000
232067.000000
232745.000000
233398.000000
234048.000000
234698.000000
235355.000000
236091.000000
236995.000000
237853.000000
238724.000000
239601.000000
240493.000000
241351.000000
242149.000000
242832.000000
243471.000000
244082.000000
244682.000000
245332.000000
246143.000000
246992.000000
247797.000000
248565.000000
249304.000000
250017.000000
250739.000000
251506.000000
252339.000000
253177.000000
254017.000000
254860.000000
255691.000000
256485.000000
257262.000000
258025.000000
258790.000000
259545.000000
260282.000000
261004.000000
261712.000000
262434.000000
263175.000000
263964.000000
264778.000000
265639.000000
266498.000000
267348.000000
268160.000000
268934.000000
269666.000000
270373.000000
271060.000000
271766.000000
272529.000000
273363.000000
274208.000000
275072.000000
275933.000000
276769.000000
277552.000000
278283.000000
278974.000000
279653.000000
280344.000000
281097.000000
281917.000000
282784.000000
283668.000000
284554.000000
285425.000000
286271.000000
287067.000000
287785.000000
288464.000000
289136.000000
289835.000000
290632.000000
291505.000000
292373.000000
293235.000000
294062.000000
294805.000000
295495.000000
296178.000000
296899.000000
297686.000000
298441.000000
299111.000000
299782.000000
300533.000000
301350.000000
302167.000000
302939.000000
303652.000000
304330.000000
305008.000000
305752.000000
306618.000000
307502.000000
308376.000000
309234.000000
310059.000000
310811.000000
311503.000000
312162.000000
312819.000000
313511.000000
314307.000000
315174.000000
316067.000000
316983.000000
317911.000000
318808.000000
319646.000000
320428.000000
321133.000000
321796.000000
322438.000000
323098.000000
323847.000000
324710.000000
325574.000000
326471.000000
327376.000000
328280.000000
329159.000000
329992.000000
330792.000000
331517.000000
332201.000000
332867.000000
333535.000000
334234.000000
334994.000000
335803.000000
336638.000000
337514.000000
338372.000000
339226.000000
340008.000000
340775.000000
341498.000000
342180.000000
342847.000000
343534.000000
344367.000000
345259.000000
346111.000000
346947.000000
347704.000000
348392.000000
349045.000000
349685.000000
350334.000000
351008.000000
351718.000000
352482.000000
353216.000000
353967.000000
354735.000000
355526.000000
356317.000000
357077.000000
357818.000000
358547.000000
359254.000000
359940.000000
360576.000000
361190.000000
361797.000000
362395.000000
362994.000000
363616.000000
364281.000000
364994.000000
365751.000000
366540.000000
367357.000000
368203.000000
369038.000000
369845.000000
370624.000000
371370.000000
372065.000000
372729.000000
373386.000000
374050.000000
374752.000000
375521.000000
376324.000000
377150.000000
377989.000000
378799.000000
379578.000000
380327.000000
381038.000000
381723.000000
382413.000000
383154.000000
383992.000000
384842.000000
385644.000000
386442.000000
387275.000000
388090.000000
388872.000000
389604.000000
390378.000000
391193.000000
391974.000000
392730.000000
393507.000000
394310.000000
395132.000000
395881.000000
396599.000000
397325.000000
398120.000000
398963.000000
399774.000000
400519.000000
401231.000000
401974.000000
402784.000000
403642.000000
404478.000000
405245.000000
406033.000000
406849.000000
407635.000000
408440.000000
409214.000000
409955.000000
410721.000000
411513.000000
412305.000000
412987.000000
413648.000000
414337.000000
415035.000000
415729.000000
416450.000000
417234.000000
418097.000000
418962.000000
419767.000000
420505.000000
421232.000000
421995.000000
422846.000000
423708.000000
424545.000000
425360.000000
426084.000000
426769.000000
427459.000000
428209.000000
429055.000000
429938.000000
430812.000000
431594.000000
432312.000000
433020.000000
433768.000000
434567.000000
435384.000000
436181.000000
436889.000000
437578.000000
438297.000000
439062.000000
439880.000000
440668.000000
441409.000000
442103.000000
442803.000000
443538.000000
444322.000000
445141.000000
445926.000000
446654.000000
447349.000000
448056.000000
448815.000000
449619.000000
450429.000000
451164.000000
451860.000000
452540.000000
453242.000000
453962.000000
454712.000000
455472.000000
456192.000000
456895.000000
457646.000000
458460.000000
459300.000000
460111.000000
460850.000000
461542.000000
462230.000000
462934.000000
463697.000000
464512.000000
465279.000000
466074.000000
466955.000000
467867.000000
468741.000000
469522.000000
470235.000000
470921.000000
471626.000000
472371.000000
473132.000000
473801.000000
474454.000000
475164.000000
475884.000000
476587.000000
477356.000000
478179.000000
478984.000000
479725.000000
480423.000000
481138.000000
481904.000000
482728.000000
483581.000000
484417.000000
485218.000000
485980.000000
486728.000000
487444.000000
488126.000000
488788.000000
489448.000000
490111.000000
490829.000000
491647.000000
492526.000000
493418.000000
494304.000000
495135.000000
495924.000000
496653.000000
497365.000000
498089.000000
498791.000000
499467.000000
500129.000000
500772.000000
501410.000000
502069.000000
502824.000000
503610.000000
504414.000000
505267.000000
506118.000000
506959.000000
507717.000000
508419.000000
509065.000000
509700.000000
510363.000000
511029.000000
511689.000000
512362.000000
513051.000000
513794.000000
514576.000000
515411.000000
516306.000000
517194.000000
518061.000000
518902.000000
519714.000000
520507.000000
521272.000000
521996.000000
522673.000000
523330.000000
523984.000000
524655.000000
525374.000000
526203.000000
527061.000000
527932.000000
528823.000000
529697.000000
530558.000000
531395.000000
532195.000000
532923.000000
533598.000000
534266.000000
534963.000000
535731.000000
536575.000000
537458.000000
538307.000000
539081.000000
539823.000000
540572.000000
541350.000000
542147.000000
542911.000000
543685.000000
544517.000000
545356.000000
546181.000000
546941.000000
547663.000000
548396.000000
549163.000000
550019.000000
550834.000000
551680.000000
552565.000000
553430.000000
554228.000000
554988.000000
555748.000000
556524.000000
557339.000000
558106.000000
558831.000000
559583.000000
560394.000000
561257.000000
562141.000000
562961.000000
563683.000000
564349.000000
564991.000000
565644.000000
566395.000000
567333.000000
568266.000000
569185.000000
570080.000000
570904.000000
571622.000000
572274.000000
572886.000000
573471.000000
574053.000000
574692.000000
575467.000000
576347.000000
577220.000000
578081.000000
578966.000000
579797.000000
580548.000000
581240.000000
581921.000000
582605.000000
583334.000000
584126.000000
584913.000000
585715.000000
586553.000000
587352.000000
588149.000000
588950.000000
589685.000000
590384.000000
591051.000000
591732.000000
592456.000000
593232.000000
594025.000000
594837.000000
595649.000000
596442.000000
597217.000000
597990.000000
598726.000000
599437.000000
600106.000000
600759.000000
601396.000000
602034.000000
602705.000000
603542.000000
604477.000000
605360.000000
606156.000000
606898.000000
607676.000000
608537.000000
609423.000000
610224.000000
610956.000000
611695.000000
612505.000000
613341.000000
614140.000000
614918.000000
615740.000000
616598.000000
617392.000000
618193.000000
619084.000000
620022.000000
620888.000000
621749.000000
622620.000000
623410.000000
624161.000000
624941.000000
625847.000000
626798.000000
627691.000000
628554.000000
629330.000000
630044.000000
630774.000000
631597.000000
632485.000000
633404.000000
634273.000000
635072.000000
635880.000000
636701.000000
637544.000000
638319.000000
639106.000000
639915.000000
640731.000000
641520.000000
642264.000000
643030.000000
643844.000000
644702.000000
645499.000000
646260.000000
647028.000000
647823.000000
648621.000000
649379.000000
650092.000000
650807.000000
651551.000000
652351.000000
653125.000000
653867.000000
654572.000000
655326.000000
656116.000000
656962.000000
657761.000000
658468.000000
659117.000000
659767.000000
660429.000000
661084.000000
661762.000000
662538.000000
663396.000000
664235.000000
665062.000000
665803.000000
666483.000000
667127.000000
667747.000000
668375.000000
669065.000000
669860.000000
670679.000000
671541.000000
672356.000000
673058.000000
673703.000000
674313.000000
674901.000000
675477.000000
676051.000000
676700.000000
677497.000000
678337.000000
679171.000000
679972.000000
680689.000000
681392.000000
682128.000000
682898.000000
683721.000000
684553.000000
685319.000000
686077.000000
686844.000000
687673.000000
688535.000000
689318.000000
689999.000000
690640.000000
691278.000000
691918.000000
692569.000000
693326.000000
694239.000000
695129.000000
695940.000000
696718.000000
697533.000000
698392.000000
699233.000000
700020.000000
700739.000000
701460.000000
702220.000000
703051.000000
703878.000000
704676.000000
705495.000000
706357.000000
707192.000000
707983.000000
708766.000000
709549.000000
710353.000000
711114.000000
711823.000000
712559.000000
713354.000000
714185.000000
714978.000000
715784.000000
716611.000000
717467.000000
718242.000000
718983.000000
719729.000000
720528.000000
721363.000000
722176.000000
722941.000000
723723.000000
724590.000000
725504.000000
726397.000000
727290.000000
728115.000000
728869.000000
729609.000000
730390.000000
731252.000000
732144.000000
732976.000000
733748.000000
734512.000000
735342.000000
736246.000000
737136.000000
737935.000000
738732.000000
739558.000000
740424.000000
741271.000000
742045.000000
742791.000000
743565.000000
744400.000000
745295.000000
746220.000000
747103.000000
747901.000000
748696.000000
749488.000000
750271.000000
751051.000000
751806.000000
752552.000000
753327.000000
754167.000000
755034.000000
755879.000000
756666.000000
757420.000000
758237.000000
759042.000000
759828.000000
760571.000000
761260.000000
761946.000000
762680.000000
763550.000000
764441.000000
765314.000000
766074.000000
766785.000000
767528.000000
768326.000000
769205.000000
770084.000000
770889.000000
771726.000000
772629.000000
773520.000000
774387.000000
775183.000000
775952.000000
776756.000000
777601.000000
778432.000000
779212.000000
779950.000000
780691.000000
781478.000000
782331.000000
783151.000000
783919.000000
784702.000000
785543.000000
786396.000000
787165.000000
787880.000000
788577.000000
789346.000000
790283.000000
791191.000000
792070.000000
792900.000000
793653.000000
794435.000000
795237.000000
796026.000000
796765.000000
797533.000000
798207.000000
798886.000000
799681.000000
800494.000000
801275.000000
802071.000000
802926.000000
803754.000000
804558.000000
805379.000000
806232.000000
807070.000000
807840.000000
808671.000000
809567.000000
810461.000000
811273.000000
812130.000000
813006.000000
813829.000000
814646.000000
815475.000000
816346.000000
817127.000000
817924.000000
818821.000000
819736.000000
820580.000000
821459.000000
822370.000000
823278.000000
824121.000000
824896.000000
825706.000000
826585.000000
827514.000000
828366.000000
829167.000000
830007.000000
830945.000000
831810.000000
832706.000000
833619.000000
834470.000000
835269.000000
836111.000000
836994.000000
837818.000000
838688.000000
839614.000000
840492.000000
841313.000000
842208.000000
843158.000000
844036.000000
844898.000000
845785.000000
846674.000000
847510.000000
848363.000000
849288.000000
850237.000000
851126.000000
852068.000000
853012.000000
853883.000000
854760.000000
855659.000000
856520.000000
857343.000000
858274.000000
859237.000000
860155.000000
861050.000000
861967.000000
862884.000000
863730.000000
864554.000000
865414.000000
866285.000000
867084.000000
867839.000000
868655.000000
869581.000000
870470.000000
871313.000000
872180.000000
873068.000000
873899.000000
874650.000000
875413.000000
876226.000000
877131.000000
877981.000000
878789.000000
879676.000000
880573.000000
881416.000000
882187.000000
882958.000000
883757.000000
884618.000000
885406.000000
886149.000000
886936.000000
887754.000000
888605.000000
889399.000000
890146.000000
890928.000000
891750.000000
892587.000000
893386.000000
894131.000000
894896.000000
895703.000000
896554.000000
897394.000000
898165.000000
898922.000000
899709.000000
900468.000000
901219.000000
901927.000000
902651.000000
903499.000000
904394.000000
905178.000000
905923.000000
906699.000000
907455.000000
908124.000000
908755.000000
909359.000000
909959.000000
910644.000000
911432.000000
912213.000000
913017.000000
913718.000000
914372.000000
915042.000000
915699.000000
916352.000000
917014.000000
917717.000000
918470.000000
919277.000000
920081.000000
920831.000000
921536.000000
922245.000000
922941.000000
923633.000000
924342.000000
925071.000000
925780.000000
926489.000000
927229.000000
928027.000000
928861.000000
929652.000000
930372.000000
931061.000000
931758.000000
932498.000000
933318.000000
934180.000000
935031.000000
935860.000000
936626.000000
937332.000000
938024.000000
938750.000000
939549.000000
940386.000000
941185.000000
941925.000000
942627.000000
943348.000000
944146.000000
945031.000000
945881.000000
946655.000000
947448.000000
948312.000000
949176.000000
949992.000000
950769.000000
951584.000000
952427.000000
953243.000000
954010.000000
954792.000000
955656.000000
956537.000000
957400.000000
958176.000000
958936.000000
959737.000000
960581.000000
961414.000000
962185.000000
962945.000000
963715.000000
964515.000000
965297.000000
966050.000000
966826.000000
967639.000000
968502.000000
969319.000000
970093.000000
970797.000000
971467.000000
972128.000000
972811.000000
973562.000000
974430.000000
975327.000000
976226.000000
977033.000000
977771.000000
978460.000000
979108.000000
979773.000000
980539.000000
981338.000000
982092.000000
982818.000000
983577.000000
984384.000000
985245.000000
986099.000000
986894.000000
987699.000000
988520.000000
989376.000000
990192.000000
991042.000000
991962.000000
992893.000000
993739.000000
994588.000000
995454.000000
996291.000000
997123.000000
998041.000000
998970.000000
999846.000000
1000749.000000
1001682.000000
1002567.000000
1003452.000000
1004371.000000
1005263.000000
1006136.000000
1007058.000000
1008000.000000
1008884.000000
1009794.000000
1010720.000000
1011587.000000
1012420.000000
1013316.000000
1014231.000000
1015093.000000
1015985.000000
1016907.000000
1017771.000000
1018624.000000
1019526.000000
1020433.000000
1021255.000000
1022102.000000
1023015.000000
1023865.000000
1024654.000000
1025523.000000
1026445.000000
1027293.000000
1028146.000000
1029067.000000
1029979.000000
1030814.000000
1031669.000000
1032544.000000
1033428.000000
1034291.000000
1035100.000000
1035877.000000
1036691.000000
1037585.000000
1038499.000000
1039372.000000
1040160.000000
1040945.000000
1041783.000000
1042709.000000
1043612.000000
1044469.000000
1045262.000000
1046027.000000
1046864.000000
1047827.000000
1048790.000000
1049657.000000
1050504.000000
1051404.000000
1052367.000000
1053250.000000
1054056.000000
1054912.000000
1055835.000000
1056723.000000
1057638.000000
1058586.000000
1059490.000000
1060310.000000
1061124.000000
1061991.000000
1062880.000000
1063685.000000
1064461.000000
1065298.000000
1066257.000000
1067152.000000
1067995.000000
1068875.000000
1069788.000000
1070639.000000
1071432.000000
1072291.000000
1073174.000000
1074015.000000
1074794.000000
1075546.000000
1076378.000000
1077314.000000
1078230.000000
1079079.000000
1079896.000000
1080763.000000
1081683.000000
1082563.000000
1083353.000000
1084102.000000
1084900.000000
1085747.000000
1086586.000000
1087384.000000
1088134.000000
1088908.000000
1089714.000000
1090518.000000
1091288.000000
1092034.000000
1092812.000000
1093589.000000
1094314.000000
1094974.000000
1095628.000000
1096329.000000
1097049.000000
1097732.000000
1098451.000000
1099225.000000
1100061.000000
1100874.000000
1101630.000000
1102380.000000
1103183.000000
1104016.000000
1104865.000000
1105673.000000
1106401.000000
1107100.000000
1107836.000000
1108664.000000
1109521.000000
1110319.000000
1111108.000000
1111969.000000
1112858.000000
1113700.000000
1114447.000000
1115143.000000
1115845.000000
1116579.000000
1117367.000000
1118180.000000
1118949.000000
1119709.000000
1120589.000000
1121479.000000
1122329.000000
1123105.000000
1123825.000000
1124573.000000
1125377.000000
1126203.000000
1127005.000000
1127766.000000
1128477.000000
1129182.000000
1129955.000000
1130810.000000
1131627.000000
1132354.000000
1133042.000000
1133758.000000
1134502.000000
1135275.000000
1136023.000000
1136826.000000
1137695.000000
1138546.000000
1139333.000000
1140091.000000
1140865.000000
1141683.000000
1142457.000000
1143172.000000
1143900.000000
1144682.000000
1145508.000000
1146286.000000
1147008.000000
1147757.000000
1148564.000000
1149397.000000
1150172.000000
1150945.000000
1151748.000000
1152537.000000
1153278.000000
1154040.000000
1154826.000000
1155615.000000
1156359.000000
1157089.000000
1157860.000000
1158708.000000
1159560.000000
1160327.000000
1161089.000000
1161869.000000
1162643.000000
1163398.000000
1164130.000000
1164891.000000
1165736.000000
1166611.000000
1167475.000000
1168253.000000
1168958.000000
1169650.000000
1170372.000000
1171179.000000
1172057.000000
1172966.000000
1173841.000000
1174690.000000
1175483.000000
1176187.000000
1176841.000000
1177485.000000
1178143.000000
1178847.000000
1179555.000000
1180216.000000
1180916.000000
1181610.000000
1182273.000000
1182966.000000
1183728.000000
1184484.000000
1185174.000000
1185830.000000
1186507.000000
1187226.000000
1188013.000000
1188763.000000
1189504.000000
1190314.000000
1191175.000000
1192018.000000
1192758.000000
1193469.000000
1194165.000000
1194843.000000
1195512.000000
1196159.000000
1196792.000000
1197477.000000
1198347.000000
1199155.000000
1199876.000000
1200539.000000
1201211.000000
1201900.000000
1202547.000000
1203183.000000
1203823.000000
1204499.000000
1205252.000000
1205997.000000
1206708.000000
1207369.000000
1207987.000000
1208583.000000
1209168.000000
1209767.000000
1210416.000000
1211150.000000
1211946.000000
1212767.000000
