ECG (ms)
197.000000
927.000000
1679.000000
2445.000000
3192.000000
3941.000000
4703.000000
5465.000000
6212.000000
6974.000000
7740.000000
8497.000000
9231.000000
9964.000000
10702.000000
11438.000000
12165.000000
12905.000000
13639.000000
14369.000000
15108.000000
15855.000000
16612.000000
17366.000000
18092.000000
18811.000000
19529.000000
20249.000000
20973.000000
21702.000000
22442.000000
23192.000000
23931.000000
24668.000000
25415.000000
26171.000000
26925.000000
27677.000000
28437.000000
29194.000000
29934.000000
30677.000000
31403.000000
32123.000000
32822.000000
33527.000000
34230.000000
34922.000000
35622.000000
36327.000000
37019.000000
37722.000000
38425.000000
39130.000000
39838.000000
40551.000000
41267.000000
41980.000000
42700.000000
43427.000000
44148.000000
44854.000000
45574.000000
46286.000000
47000.000000
47713.000000
48409.000000
49114.000000
49838.000000
50562.000000
51292.000000
52026.000000
52767.000000
53488.000000
54205.000000
54920.000000
55640.000000
56344.000000
57054.000000
57773.000000
58491.000000
59202.000000
59927.000000
60670.000000
61408.000000
62150.000000
62909.000000
63665.000000
64409.000000
65162.000000
65919.000000
66656.000000
67386.000000
68119.000000
68855.000000
69587.000000
70307.000000
71039.000000
71769.000000
72490.000000
73211.000000
73942.000000
74679.000000
75407.000000
76143.000000
76872.000000
77584.000000
78291.000000
79000.000000
79712.000000
80415.000000
81123.000000
81838.000000
82553.000000
83259.000000
83980.000000
84708.000000
85430.000000
86144.000000
86859.000000
87569.000000
88260.000000
88953.000000
89641.000000
90327.000000
91012.000000
91698.000000
92382.000000
93075.000000
93780.000000
94502.000000
95222.000000
95941.000000
96674.000000
97411.000000
98127.000000
98841.000000
99561.000000
100284.000000
100997.000000
101728.000000
102467.000000
103197.000000
103910.000000
104628.000000
105348.000000
106065.000000
106770.000000
107488.000000
108211.000000
108936.000000
109658.000000
110401.000000
111152.000000
111899.000000
112630.000000
113365.000000
114102.000000
114817.000000
115542.000000
116276.000000
117007.000000
117732.000000
118473.000000
119228.000000
119963.000000
120701.000000
121443.000000
122184.000000
122914.000000
123637.000000
124363.000000
125092.000000
125809.000000
126534.000000
127270.000000
128009.000000
128744.000000
129493.000000
130252.000000
130997.000000
131739.000000
132488.000000
133228.000000
133950.000000
134677.000000
135406.000000
136128.000000
136839.000000
137553.000000
138257.000000
138952.000000
139643.000000
140322.000000
141005.000000
141702.000000
142397.000000
143113.000000
143842.000000
144565.000000
145290.000000
146016.000000
146733.000000
147430.000000
148128.000000
148821.000000
149501.000000
150177.000000
150849.000000
151519.000000
152186.000000
152863.000000
153548.000000
154254.000000
154949.000000
155651.000000
156362.000000
157092.000000
157808.000000
158521.000000
159241.000000
159954.000000
160653.000000
161353.000000
162052.000000
162743.000000
163428.000000
164120.000000
164823.000000
165529.000000
166226.000000
166938.000000
167658.000000
168372.000000
169096.000000
169827.000000
170557.000000
171272.000000
172004.000000
172740.000000
173465.000000
174178.000000
174897.000000
175619.000000
176334.000000
177038.000000
177752.000000
178467.000000
179178.000000
179890.000000
180615.000000
181346.000000
182062.000000
182784.000000
183511.000000
184241.000000
184958.000000
185686.000000
186413.000000
187143.000000
187865.000000
188595.000000
189331.000000
190056.000000
190773.000000
191493.000000
192222.000000
192947.000000
193663.000000
194393.000000
195134.000000
195864.000000
196589.000000
197316.000000
198041.000000
198761.000000
199491.000000
200217.000000
200932.000000
201652.000000
202372.000000
203085.000000
203788.000000
204500.000000
205218.000000
205930.000000
206647.000000
207369.000000
208104.000000
208829.000000
209552.000000
210286.000000
211023.000000
211755.000000
212482.000000
213220.000000
213960.000000
214694.000000
215439.000000
216191.000000
216931.000000
217674.000000
218429.000000
219192.000000
219941.000000
220703.000000
221474.000000
222231.000000
222979.000000
223732.000000
224497.000000
225253.000000
226006.000000
226769.000000
227536.000000
228291.000000
229060.000000
229842.000000
230624.000000
231384.000000
232157.000000
232943.000000
233718.000000
234463.000000
235202.000000
235949.000000
236706.000000
237461.000000
238203.000000
238956.000000
239716.000000
240469.000000
241216.000000
241973.000000
242728.000000
243472.000000
244219.000000
244971.000000
245717.000000
246448.000000
247182.000000
247928.000000
248661.000000
249396.000000
250137.000000
250872.000000
251596.000000
252325.000000
253057.000000
253784.000000
254501.000000
255231.000000
255956.000000
256674.000000
257399.000000
258130.000000
258865.000000
259584.000000
260318.000000
261057.000000
261796.000000
262516.000000
263247.000000
263980.000000
264706.000000
265426.000000
266160.000000
266897.000000
267625.000000
268343.000000
269071.000000
269799.000000
270519.000000
271227.000000
271944.000000
272665.000000
273386.000000
274095.000000
274813.000000
275541.000000
276272.000000
276989.000000
277722.000000
278462.000000
279195.000000
279931.000000
280676.000000
281410.000000
282128.000000
282849.000000
283569.000000
284273.000000
284983.000000
285695.000000
286395.000000
287089.000000
287780.000000
288460.000000
289133.000000
289797.000000
290471.000000
291148.000000
291842.000000
292552.000000
293277.000000
293983.000000
294698.000000
295414.000000
296122.000000
296816.000000
297514.000000
298214.000000
298910.000000
299598.000000
300296.000000
301002.000000
301713.000000
302414.000000
303129.000000
303853.000000
304566.000000
305278.000000
305994.000000
306712.000000
307419.000000
308132.000000
308843.000000
309541.000000
310239.000000
310938.000000
311635.000000
312332.000000
313048.000000
313779.000000
314508.000000
315241.000000
315981.000000
316713.000000
317431.000000
318152.000000
318870.000000
319582.000000
320283.000000
320992.000000
321702.000000
322407.000000
323107.000000
323815.000000
324527.000000
325235.000000
325947.000000
326668.000000
327393.000000
328107.000000
328829.000000
329554.000000
330274.000000
330978.000000
331691.000000
332410.000000
333129.000000
333838.000000
334562.000000
335290.000000
336018.000000
336734.000000
337465.000000
338208.000000
338952.000000
339681.000000
340419.000000
341156.000000
341891.000000
342614.000000
343341.000000
344074.000000
344801.000000
345523.000000
346250.000000
346976.000000
347691.000000
348408.000000
349131.000000
349850.000000
350561.000000
351285.000000
352004.000000
352723.000000
353431.000000
354145.000000
354865.000000
355582.000000
356289.000000
357002.000000
357724.000000
358446.000000
359159.000000
359889.000000
360625.000000
361355.000000
362088.000000
362817.000000
363547.000000
364257.000000
364952.000000
365635.000000
366322.000000
367009.000000
367709.000000
368425.000000
369155.000000
369875.000000
370588.000000
371316.000000
372051.000000
372795.000000
373524.000000
374269.000000
375024.000000
375777.000000
376519.000000
377281.000000
378056.000000
378816.000000
379569.000000
380333.000000
381105.000000
381862.000000
382625.000000
383396.000000
384172.000000
384934.000000
385701.000000
386474.000000
387250.000000
388014.000000
388788.000000
389575.000000
390349.000000
391109.000000
391874.000000
392636.000000
393378.000000
394126.000000
394869.000000
395600.000000
396325.000000
397058.000000
397793.000000
398524.000000
399269.000000
400036.000000
400792.000000
401556.000000
402327.000000
403087.000000
403827.000000
404573.000000
405314.000000
406044.000000
406765.000000
407493.000000
408221.000000
408938.000000
409648.000000
410365.000000
411083.000000
411805.000000
412517.000000
413242.000000
413976.000000
414716.000000
415456.000000
416210.000000
416973.000000
417716.000000
418456.000000
419204.000000
419954.000000
420702.000000
421430.000000
422162.000000
422890.000000
423604.000000
424327.000000
425054.000000
425781.000000
426506.000000
427247.000000
427990.000000
428721.000000
429450.000000
430186.000000
430912.000000
431629.000000
432362.000000
433097.000000
433827.000000
434549.000000
435278.000000
436011.000000
436736.000000
437455.000000
438184.000000
438911.000000
439632.000000
440366.000000
441107.000000
441854.000000
442585.000000
443326.000000
444069.000000
444797.000000
445512.000000
446236.000000
446966.000000
447684.000000
448408.000000
449138.000000
449878.000000
450598.000000
451318.000000
452043.000000
452762.000000
453468.000000
454185.000000
454905.000000
455633.000000
456347.000000
457069.000000
457800.000000
458522.000000
459232.000000
459945.000000
460650.000000
461353.000000
462059.000000
462768.000000
463473.000000
464173.000000
464882.000000
465593.000000
466302.000000
466999.000000
467710.000000
468428.000000
469147.000000
469858.000000
470573.000000
471279.000000
471978.000000
472681.000000
473386.000000
474089.000000
474801.000000
475524.000000
476265.000000
477007.000000
477756.000000
478501.000000
479245.000000
479975.000000
480704.000000
481435.000000
482159.000000
482870.000000
483585.000000
484302.000000
485024.000000
485735.000000
486457.000000
487188.000000
487920.000000
488635.000000
489367.000000
490105.000000
490836.000000
491567.000000
492310.000000
493055.000000
493788.000000
494531.000000
495290.000000
496046.000000
496793.000000
497553.000000
498322.000000
499076.000000
499823.000000
500586.000000
501360.000000
502128.000000
502895.000000
503669.000000
504438.000000
505192.000000
505958.000000
506727.000000
507479.000000
508235.000000
508995.000000
509757.000000
510513.000000
511278.000000
512052.000000
512812.000000
513569.000000
514338.000000
515111.000000
515872.000000
516631.000000
517390.000000
518147.000000
518890.000000
519647.000000
520404.000000
521142.000000
521874.000000
522610.000000
523355.000000
524090.000000
524840.000000
525607.000000
526370.000000
527122.000000
527878.000000
528640.000000
529382.000000
530119.000000
530863.000000
531614.000000
532353.000000
533086.000000
533828.000000
534578.000000
535312.000000
536048.000000
536790.000000
537541.000000
538276.000000
538997.000000
539725.000000
540458.000000
541197.000000
541922.000000
542662.000000
543402.000000
544135.000000
544862.000000
545596.000000
546329.000000
547049.000000
547762.000000
548485.000000
549210.000000
549932.000000
550639.000000
551354.000000
552063.000000
552769.000000
553461.000000
554139.000000
554802.000000
555468.000000
556143.000000
556836.000000
557540.000000
558234.000000
558948.000000
559669.000000
560385.000000
561095.000000
561815.000000
562540.000000
563253.000000
563981.000000
564719.000000
565460.000000
566187.000000
566931.000000
567685.000000
568438.000000
569184.000000
569943.000000
570713.000000
571463.000000
572227.000000
572990.000000
573743.000000
574487.000000
575237.000000
575988.000000
576726.000000
577476.000000
578229.000000
578970.000000
579706.000000
580447.000000
581185.000000
581910.000000
582642.000000
583379.000000
584109.000000
584845.000000
585591.000000
586354.000000
587109.000000
587865.000000
588634.000000
589403.000000
590148.000000
590904.000000
591662.000000
592423.000000
593171.000000
593926.000000
594696.000000
595468.000000
596227.000000
596987.000000
597749.000000
598515.000000
599270.000000
600046.000000
600828.000000
601595.000000
602344.000000
603096.000000
603855.000000
604599.000000
605330.000000
606065.000000
606804.000000
607534.000000
608253.000000
608979.000000
609710.000000
610441.000000
611164.000000
611898.000000
612636.000000
613367.000000
614092.000000
614830.000000
615572.000000
616304.000000
617029.000000
617765.000000
618511.000000
619250.000000
619979.000000
620709.000000
621434.000000
622152.000000
622876.000000
623607.000000
624348.000000
625079.000000
625822.000000
626571.000000
627309.000000
628038.000000
628774.000000
629512.000000
630253.000000
630979.000000
631717.000000
632456.000000
633186.000000
633900.000000
634623.000000
635343.000000
636055.000000
636762.000000
637481.000000
638207.000000
638940.000000
639660.000000
640386.000000
641116.000000
641853.000000
642572.000000
643295.000000
644022.000000
644750.000000
645468.000000
646192.000000
646916.000000
647631.000000
648350.000000
649074.000000
649791.000000
650499.000000
651217.000000
651941.000000
652660.000000
653398.000000
654146.000000
654892.000000
655652.000000
656426.000000
657202.000000
657958.000000
658723.000000
659496.000000
660250.000000
661011.000000
661766.000000
662507.000000
663243.000000
663983.000000
664726.000000
665451.000000
666183.000000
666924.000000
667661.000000
668399.000000
669153.000000
669909.000000
670651.000000
671391.000000
672134.000000
672856.000000
673580.000000
674308.000000
675026.000000
675745.000000
676472.000000
677209.000000
677938.000000
678643.000000
679350.000000
680064.000000
680793.000000
681550.000000
682284.000000
683018.000000
683756.000000
684503.000000
685239.000000
685974.000000
686717.000000
687461.000000
688192.000000
688913.000000
689642.000000
690377.000000
691107.000000
691850.000000
692602.000000
693361.000000
694104.000000
694857.000000
695606.000000
696338.000000
697080.000000
697822.000000
698555.000000
699277.000000
700004.000000
700734.000000
701458.000000
702189.000000
702926.000000
703655.000000
704373.000000
705101.000000
705820.000000
706530.000000
707224.000000
707910.000000
708599.000000
709290.000000
709991.000000
710707.000000
711409.000000
712121.000000
712827.000000
713525.000000
714228.000000
714930.000000
715621.000000
716315.000000
717020.000000
717742.000000
718490.000000
719237.000000
719997.000000
720775.000000
721580.000000
722367.000000
723146.000000
723931.000000
724716.000000
725491.000000
726238.000000
726989.000000
727745.000000
728508.000000
729261.000000
730025.000000
730794.000000
731552.000000
732292.000000
733031.000000
733778.000000
734522.000000
735260.000000
736011.000000
736769.000000
737513.000000
738243.000000
738982.000000
739721.000000
740444.000000
741165.000000
741893.000000
742627.000000
743356.000000
744083.000000
744829.000000
745587.000000
746346.000000
747086.000000
747833.000000
748576.000000
749308.000000
750025.000000
750746.000000
751472.000000
752194.000000
752905.000000
753625.000000
754349.000000
755072.000000
755789.000000
756515.000000
757251.000000
757977.000000
758703.000000
759432.000000
760155.000000
760875.000000
761608.000000
762354.000000
763094.000000
763807.000000
764521.000000
765228.000000
765944.000000
766661.000000
767402.000000
768146.000000
768893.000000
769666.000000
770432.000000
771166.000000
771898.000000
772646.000000
773392.000000
774155.000000
774928.000000
775718.000000
776491.000000
777258.000000
778036.000000
778821.000000
779589.000000
780342.000000
781103.000000
781875.000000
782636.000000
783386.000000
784159.000000
784945.000000
785699.000000
786467.000000
787236.000000
788006.000000
788762.000000
789535.000000
790314.000000
791094.000000
791857.000000
792637.000000
793427.000000
794210.000000
794967.000000
795733.000000
796504.000000
797277.000000
798018.000000
798752.000000
799488.000000
800225.000000
800950.000000
801696.000000
802454.000000
803218.000000
803974.000000
804742.000000
805514.000000
806261.000000
807000.000000
807736.000000
808475.000000
809200.000000
809919.000000
810644.000000
811359.000000
812072.000000
812795.000000
813537.000000
814277.000000
815021.000000
815775.000000
816522.000000
817257.000000
817997.000000
818746.000000
819484.000000
820226.000000
820983.000000
821748.000000
822494.000000
823253.000000
824024.000000
824804.000000
825558.000000
826315.000000
827070.000000
827833.000000
828589.000000
829368.000000
830169.000000
830967.000000
831790.000000
832621.000000
833445.000000
834247.000000
835055.000000
835857.000000
836631.000000
837404.000000
838177.000000
838947.000000
839699.000000
840462.000000
841233.000000
841994.000000
842754.000000
843526.000000
844308.000000
845072.000000
845835.000000
846603.000000
847366.000000
848112.000000
848866.000000
849619.000000
850359.000000
851103.000000
851862.000000
852627.000000
853383.000000
854154.000000
854935.000000
855705.000000
856446.000000
857197.000000
857941.000000
858678.000000
859402.000000
860139.000000
860878.000000
861611.000000
862341.000000
863086.000000
863827.000000
864561.000000
865303.000000
866050.000000
866794.000000
867529.000000
868273.000000
869022.000000
869757.000000
870500.000000
871241.000000
871973.000000
872692.000000
873421.000000
874153.000000
874889.000000
875611.000000
876342.000000
877081.000000
877820.000000
878544.000000
879277.000000
880010.000000
880734.000000
881454.000000
882181.000000
882909.000000
883629.000000
884363.000000
885098.000000
885821.000000
886533.000000
887248.000000
887958.000000
888658.000000
889354.000000
890057.000000
890768.000000
891489.000000
892201.000000
892923.000000
893642.000000
894347.000000
895050.000000
895740.000000
896422.000000
897106.000000
897807.000000
898509.000000
899238.000000
899982.000000
900732.000000
901471.000000
902227.000000
902988.000000
903735.000000
904481.000000
905230.000000
905992.000000
906736.000000
907485.000000
908253.000000
909028.000000
909786.000000
910569.000000
911383.000000
912187.000000
912971.000000
913772.000000
914579.000000
915370.000000
916134.000000
916903.000000
917673.000000
918434.000000
919186.000000
919957.000000
920750.000000
921533.000000
922339.000000
923190.000000
924048.000000
924877.000000
925683.000000
926459.000000
927209.000000
927955.000000
928702.000000
929444.000000
930174.000000
930913.000000
931653.000000
932388.000000
933118.000000
933875.000000
934651.000000
935418.000000
936189.000000
936972.000000
937753.000000
938513.000000
939257.000000
939998.000000
940737.000000
941463.000000
942204.000000
942943.000000
943678.000000
944413.000000
945174.000000
945959.000000
946750.000000
947545.000000
948362.000000
949172.000000
949947.000000
950724.000000
951496.000000
952252.000000
952998.000000
953756.000000
954521.000000
955275.000000
956015.000000
956762.000000
957512.000000
958260.000000
958990.000000
959731.000000
960469.000000
961207.000000
961939.000000
962678.000000
963422.000000
964163.000000
964899.000000
965644.000000
966394.000000
967133.000000
967880.000000
968626.000000
969358.000000
970095.000000
970838.000000
971572.000000
972306.000000
973052.000000
973801.000000
974539.000000
975289.000000
976046.000000
976795.000000
977534.000000
978277.000000
979014.000000
979737.000000
980467.000000
981203.000000
981946.000000
982679.000000
983424.000000
984185.000000
984949.000000
985696.000000
986451.000000
987205.000000
987957.000000
988696.000000
989445.000000
990194.000000
990941.000000
991673.000000
992401.000000
993138.000000
993883.000000
994618.000000
995357.000000
996106.000000
996865.000000
997615.000000
998372.000000
999137.000000
999901.000000
1000642.000000
1001390.000000
1002137.000000
1002885.000000
1003615.000000
1004354.000000
1005093.000000
1005828.000000
1006557.000000
1007290.000000
1008016.000000
1008724.000000
1009420.000000
1010130.000000
1010855.000000
1011602.000000
1012347.000000
1013108.000000
1013886.000000
1014654.000000
1015400.000000
1016154.000000
1016908.000000
1017649.000000
1018393.000000
1019138.000000
1019874.000000
1020597.000000
1021332.000000
1022081.000000
1022823.000000
1023569.000000
1024330.000000
1025100.000000
1025863.000000
1026639.000000
1027429.000000
1028196.000000
1028960.000000
1029722.000000
1030468.000000
1031198.000000
1031933.000000
1032669.000000
1033402.000000
1034118.000000
1034819.000000
1035524.000000
1036239.000000
1036974.000000
1037740.000000
1038534.000000
1039310.000000
1040093.000000
1040878.000000
1041664.000000
1042428.000000
1043190.000000
1043947.000000
1044715.000000
1045471.000000
1046228.000000
1046986.000000
1047737.000000
1048490.000000
1049260.000000
1050042.000000
1050807.000000
1051571.000000
1052337.000000
1053109.000000
1053862.000000
1054598.000000
1055339.000000
1056084.000000
1056829.000000
1057572.000000
1058335.000000
1059110.000000
1059873.000000
1060649.000000
1061432.000000
1062197.000000
1062939.000000
1063685.000000
1064433.000000
1065187.000000
1065939.000000
1066682.000000
1067435.000000
1068190.000000
1068939.000000
1069692.000000
1070449.000000
1071208.000000
1071955.000000
1072711.000000
1073466.000000
1074215.000000
1074949.000000
1075682.000000
1076419.000000
1077155.000000
1077882.000000
1078622.000000
1079375.000000
1080133.000000
1080885.000000
1081654.000000
1082431.000000
1083206.000000
1083963.000000
1084721.000000
1085474.000000
1086208.000000
1086932.000000
1087665.000000
1088402.000000
1089129.000000
1089876.000000
1090634.000000
1091391.000000
1092134.000000
1092896.000000
1093679.000000
1094444.000000
1095205.000000
1095970.000000
1096736.000000
1097484.000000
1098225.000000
1098974.000000
1099723.000000
1100458.000000
1101213.000000
1101974.000000
1102734.000000
1103490.000000
1104251.000000
1105016.000000
1105763.000000
1106512.000000
1107258.000000
1107989.000000
1108725.000000
1109462.000000
1110196.000000
1110924.000000
1111659.000000
1112397.000000
1113117.000000
1113843.000000
1114576.000000
1115305.000000
1116034.000000
1116777.000000
1117519.000000
1118249.000000
1118988.000000
1119729.000000
1120459.000000
1121193.000000
1121926.000000
1122657.000000
1123379.000000
1124113.000000
1124856.000000
1125595.000000
1126344.000000
1127096.000000
1127837.000000
1128557.000000
1129284.000000
1130016.000000
1130751.000000
1131472.000000
1132207.000000
1132957.000000
1133704.000000
1134440.000000
1135183.000000
1135916.000000
1136632.000000
1137335.000000
1138034.000000
1138736.000000
1139458.000000
1140201.000000
1140958.000000
1141703.000000
1142463.000000
1143233.000000
1143996.000000
1144743.000000
1145495.000000
1146244.000000
1146994.000000
1147746.000000
1148516.000000
1149302.000000
1150056.000000
1150790.000000
1151539.000000
1152306.000000
1153095.000000
1153900.000000
1154686.000000
1155459.000000
1156208.000000
1156939.000000
1157653.000000
1158367.000000
1159082.000000
1159793.000000
1160513.000000
1161237.000000
1161957.000000
1162680.000000
1163402.000000
1164136.000000
1164890.000000
1165665.000000
1166450.000000
1167234.000000
1167995.000000
1168740.000000
1169474.000000
1170204.000000
1170930.000000
1171660.000000
1172378.000000
1173112.000000
1173863.000000
1174616.000000
1175377.000000
1176159.000000
1176953.000000
1177718.000000
1178491.000000
1179270.000000
1180052.000000
1180811.000000
1181588.000000
1182378.000000
1183150.000000
1183905.000000
1184668.000000
1185435.000000
1186180.000000
1186927.000000
1187680.000000
1188435.000000
1189173.000000
1189936.000000
1190714.000000
1191475.000000
1192235.000000
1192998.000000
1193756.000000
1194496.000000
1195242.000000
1195998.000000
1196744.000000
1197483.000000
1198236.000000
1198997.000000
1199760.000000
1200520.000000
1201299.000000
1202089.000000
1202862.000000
1203635.000000
1204415.000000
1205205.000000
1205996.000000
1206757.000000
1207519.000000
1208281.000000
1209026.000000
1209767.000000
1210519.000000
1211283.000000
1212033.000000
1212784.000000
1213545.000000
1214305.000000
1215049.000000
1215808.000000
1216576.000000
1217344.000000
1218097.000000
1218866.000000
1219640.000000
1220405.000000
1221156.000000
1221924.000000
1222691.000000
1223448.000000
1224192.000000
1224953.000000
1225724.000000
1226493.000000
1227251.000000
1228030.000000
1228823.000000
1229604.000000
1230364.000000
1231142.000000
1231928.000000
1232701.000000
1233467.000000
1234248.000000
1235042.000000
1235815.000000
1236580.000000
1237354.000000
1238127.000000
1238881.000000
1239647.000000
1240424.000000
1241213.000000
1241983.000000
1242745.000000
1243517.000000
1244295.000000
1245062.000000
1245811.000000
1246574.000000
1247338.000000
1248084.000000
1248828.000000
1249575.000000
1250320.000000
1251053.000000
1251792.000000
1252545.000000
1253293.000000
1254032.000000
1254779.000000
1255531.000000
1256275.000000
1257023.000000
1257777.000000
1258524.000000
1259259.000000
1260006.000000
1260752.000000
1261485.000000
1262207.000000
1262940.000000
1263676.000000
1264407.000000
1265138.000000
1265881.000000
1266627.000000
1267353.000000
1268075.000000
1268804.000000
1269529.000000
1270239.000000
1270934.000000
1271617.000000
1272305.000000
1272996.000000
1273694.000000
1274417.000000
1275169.000000
1275927.000000
1276662.000000
1277409.000000
1278163.000000
1278915.000000
1279649.000000
1280387.000000
1281130.000000
1281858.000000
1282601.000000
1283356.000000
1284105.000000
1284853.000000
1285621.000000
1286405.000000
1287170.000000
1287935.000000
1288717.000000
1289503.000000
1290274.000000
1291043.000000
1291823.000000
1292614.000000
1293392.000000
1294167.000000
1294953.000000
1295755.000000
1296556.000000
1297334.000000
1298122.000000
1298918.000000
1299710.000000
1300482.000000
1301271.000000
1302069.000000
1302875.000000
1303663.000000
1304463.000000
1305274.000000
1306058.000000
1306849.000000
1307647.000000
1308435.000000
1309210.000000
1309996.000000
1310794.000000
1311576.000000
1312362.000000
1313153.000000
1313945.000000
1314712.000000
1315486.000000
1316264.000000
1317030.000000
1317788.000000
1318566.000000
1319354.000000
1320134.000000
1320892.000000
1321665.000000
1322440.000000
1323204.000000
1323962.000000
1324732.000000
1325516.000000
1326297.000000
1327058.000000
1327824.000000
1328594.000000
1329366.000000
1330118.000000
1330884.000000
1331648.000000
1332400.000000
1333146.000000
1333908.000000
1334672.000000
1335420.000000
1336165.000000
1336923.000000
1337686.000000
1338445.000000
1339188.000000
1339942.000000
1340705.000000
1341454.000000
1342206.000000
1342966.000000
1343726.000000
1344476.000000
1345238.000000
1346013.000000
1346784.000000
1347545.000000
1348322.000000
1349106.000000
1349876.000000
1350640.000000
1351414.000000
1352187.000000
1352937.000000
1353699.000000
1354457.000000
1355199.000000
1355944.000000
1356698.000000
1357454.000000
1358199.000000
1358967.000000
1359741.000000
1360512.000000
1361267.000000
1362032.000000
1362796.000000
1363540.000000
1364278.000000
1365025.000000
1365772.000000
1366512.000000
1367243.000000
1367990.000000
1368738.000000
1369475.000000
1370210.000000
1370956.000000
1371711.000000
1372451.000000
1373191.000000
1373943.000000
1374701.000000
1375454.000000
1376191.000000
1376934.000000
1377674.000000
1378398.000000
1379117.000000
1379836.000000
1380556.000000
1381268.000000
1381991.000000
1382726.000000
1383466.000000
1384199.000000
1384947.000000
1385701.000000
1386446.000000
1387178.000000
1387911.000000
1388642.000000
1389375.000000
1390097.000000
1390826.000000
1391560.000000
1392291.000000
1393010.000000
1393735.000000
1394459.000000
1395178.000000
1395892.000000
1396615.000000
1397348.000000
1398067.000000
1398785.000000
1399513.000000
1400241.000000
1400957.000000
1401685.000000
1402418.000000
1403149.000000
1403870.000000
1404598.000000
1405330.000000
1406063.000000
1406779.000000
1407498.000000
1408221.000000
1408947.000000
1409658.000000
1410376.000000
1411095.000000
1411817.000000
1412528.000000
1413243.000000
1413969.000000
1414700.000000
1415434.000000
1416162.000000
1416901.000000
1417653.000000
1418392.000000
1419123.000000
1419865.000000
1420617.000000
1421355.000000
1422091.000000
1422840.000000
1423585.000000
1424317.000000
1425060.000000
1425805.000000
1426541.000000
1427264.000000
1428002.000000
1428730.000000
1429439.000000
1430146.000000
1430846.000000
1431534.000000
1432213.000000
1432897.000000
1433589.000000
1434292.000000
1435024.000000
1435782.000000
1436543.000000
1437288.000000
1438044.000000
1438796.000000
1439540.000000
1440275.000000
1441019.000000
1441763.000000
1442495.000000
1443219.000000
1443951.000000
1444682.000000
1445403.000000
1446131.000000
1446872.000000
1447618.000000
1448351.000000
1449097.000000
1449849.000000
1450590.000000
1451329.000000
1452076.000000
1452828.000000
1453565.000000
1454306.000000
1455049.000000
1455789.000000
1456516.000000
1457257.000000
1457989.000000
1458722.000000
1459462.000000
1460200.000000
1460925.000000
1461658.000000
1462392.000000
1463126.000000
1463847.000000
1464571.000000
1465304.000000
1466041.000000
1466769.000000
1467509.000000
1468244.000000
1468967.000000
1469702.000000
1470442.000000
1471182.000000
1471907.000000
1472649.000000
1473397.000000
1474138.000000
1474882.000000
1475630.000000
1476374.000000
1477109.000000
1477850.000000
1478596.000000
1479334.000000
1480078.000000
1480830.000000
1481593.000000
1482351.000000
1483123.000000
1483906.000000
1484670.000000
1485425.000000
1486186.000000
1486946.000000
1487686.000000
1488439.000000
1489197.000000
1489946.000000
1490699.000000
1491464.000000
1492238.000000
1493000.000000
1493782.000000
1494580.000000
1495380.000000
1496160.000000
1496954.000000
1497756.000000
1498545.000000
1499317.000000
1500106.000000
1500903.000000
1501687.000000
1502469.000000
1503273.000000
1504073.000000
1504853.000000
1505643.000000
1506443.000000
1507218.000000
1507986.000000
1508770.000000
1509556.000000
1510327.000000
1511097.000000
1511868.000000
1512635.000000
1513373.000000
1514085.000000
1514797.000000
1515517.000000
1516252.000000
1517022.000000
1517819.000000
1518645.000000
1519464.000000
1520265.000000
1521077.000000
1521874.000000
1522653.000000
1523417.000000
1524161.000000
1524892.000000
1525605.000000
1526314.000000
1527031.000000
1527755.000000
1528486.000000
1529233.000000
1529986.000000
1530726.000000
1531455.000000
1532191.000000
1532926.000000
1533654.000000
1534372.000000
1535097.000000
1535824.000000
1536548.000000
1537269.000000
1538008.000000
1538759.000000
1539502.000000
1540263.000000
1541023.000000
1541769.000000
1542503.000000
1543243.000000
1543989.000000
1544733.000000
1545471.000000
1546220.000000
1546980.000000
1547729.000000
1548488.000000
1549254.000000
1550019.000000
1550767.000000
1551520.000000
1552271.000000
1553013.000000
1553747.000000
1554499.000000
1555258.000000
1556009.000000
1556765.000000
1557540.000000
1558335.000000
1559115.000000
1559896.000000
1560685.000000
1561460.000000
1562218.000000
1562989.000000
1563758.000000
1564508.000000
1565249.000000
1565996.000000
1566744.000000
1567474.000000
1568204.000000
1568942.000000
1569681.000000
1570415.000000
1571165.000000
1571925.000000
1572705.000000
1573465.000000
1574231.000000
1574997.000000
1575742.000000
1576485.000000
1577238.000000
1577987.000000
1578728.000000
1579476.000000
1580227.000000
1580964.000000
1581699.000000
1582442.000000
1583183.000000
1583917.000000
1584668.000000
1585424.000000
1586173.000000
1586914.000000
1587669.000000
1588423.000000
1589160.000000
1589906.000000
1590653.000000
1591393.000000
1592128.000000
1592872.000000
1593620.000000
1594355.000000
1595095.000000
1595843.000000
1596588.000000
1597328.000000
1598072.000000
1598820.000000
1599558.000000
1600284.000000
1601020.000000
1601762.000000
1602498.000000
1603231.000000
1603972.000000
1604706.000000
1605435.000000
1606178.000000
1606927.000000
1607661.000000
1608401.000000
1609138.000000
1609862.000000
1610574.000000
1611292.000000
1612016.000000
1612746.000000
1613471.000000
1614215.000000
1614978.000000
1615741.000000
1616489.000000
1617250.000000
1618011.000000
1618765.000000
1619498.000000
1620242.000000
1620987.000000
1621729.000000
1622465.000000
1623214.000000
1623976.000000
1624725.000000
1625489.000000
1626256.000000
1627017.000000
1627764.000000
1628521.000000
1629273.000000
1630007.000000
1630751.000000
1631507.000000
1632255.000000
1633004.000000
1633773.000000
1634547.000000
1635322.000000
1636088.000000
1636863.000000
1637641.000000
1638394.000000
1639135.000000
1639883.000000
1640625.000000
1641358.000000
1642100.000000
1642852.000000
1643606.000000
1644354.000000
1645112.000000
1645893.000000
1646660.000000
1647433.000000
1648213.000000
1648974.000000
1649706.000000
1650427.000000
1651139.000000
1651842.000000
1652532.000000
1653230.000000
1653925.000000
1654625.000000
1655313.000000
1656005.000000
1656696.000000
1657386.000000
1658074.000000
1658772.000000
1659475.000000
1660172.000000
1660885.000000
1661595.000000
1662309.000000
1663023.000000
1663740.000000
1664459.000000
1665160.000000
1665850.000000
1666533.000000
1667205.000000
1667875.000000
1668547.000000
1669212.000000
1669880.000000
1670559.000000
1671243.000000
1671931.000000
1672630.000000
1673342.000000
1674069.000000
1674787.000000
1675503.000000
1676224.000000
1676950.000000
1677680.000000
1678393.000000
1679100.000000
1679814.000000
1680531.000000
1681242.000000
1681941.000000
1682653.000000
1683367.000000
1684083.000000
1684791.000000
1685512.000000
1686248.000000
1687005.000000
1687751.000000
1688486.000000
1689235.000000
1689987.000000
1690724.000000
1691451.000000
1692183.000000
1692923.000000
1693656.000000
1694375.000000
1695107.000000
1695841.000000
1696579.000000
1697301.000000
1698031.000000
1698764.000000
1699488.000000
1700207.000000
1700938.000000
1701680.000000
1702418.000000
1703143.000000
1703880.000000
1704622.000000
1705363.000000
1706087.000000
1706804.000000
1707523.000000
1708243.000000
1708952.000000
1709673.000000
1710391.000000
1711108.000000
1711815.000000
1712520.000000
1713223.000000
1713917.000000
1714600.000000
1715286.000000
1715972.000000
1716672.000000
1717387.000000
1718114.000000
1718840.000000
1719590.000000
1720354.000000
1721106.000000
1721843.000000
1722597.000000
1723353.000000
1724093.000000
1724837.000000
1725583.000000
1726333.000000
1727069.000000
1727804.000000
1728542.000000
1729278.000000
1730012.000000
1730771.000000
1731546.000000
1732324.000000
1733099.000000
1733898.000000
1734701.000000
1735471.000000
1736238.000000
1736998.000000
1737754.000000
1738488.000000
1739210.000000
1739939.000000
1740675.000000
1741413.000000
1742141.000000
1742889.000000
1743646.000000
1744402.000000
1745145.000000
1745894.000000
1746650.000000
1747396.000000
1748147.000000
1748904.000000
1749664.000000
1750407.000000
1751158.000000
1751912.000000
1752657.000000
1753391.000000
1754132.000000
1754873.000000
1755614.000000
1756351.000000
1757105.000000
1757872.000000
1758624.000000
1759367.000000
1760121.000000
1760882.000000
1761635.000000
1762375.000000
1763128.000000
1763889.000000
1764645.000000
1765390.000000
1766156.000000
1766927.000000
1767680.000000
1768430.000000
1769188.000000
1769953.000000
1770704.000000
1771452.000000
1772212.000000
1772979.000000
1773729.000000
1774464.000000
1775218.000000
1775979.000000
1776743.000000
1777499.000000
1778270.000000
1779051.000000
1779813.000000
1780552.000000
1781302.000000
1782045.000000
1782779.000000
1783512.000000
1784254.000000
1785011.000000
1785767.000000
1786528.000000
1787303.000000
1788081.000000
1788839.000000
1789616.000000
1790392.000000
1791142.000000
1791883.000000
1792623.000000
1793367.000000
1794101.000000
1794822.000000
1795557.000000
1796294.000000
1797027.000000
1797753.000000
1798502.000000
1799265.000000
1800028.000000
1800773.000000
1801533.000000
1802296.000000
1803047.000000
1803786.000000
1804532.000000
1805282.000000
1806018.000000
1806748.000000
1807488.000000
1808224.000000
1808952.000000
1809687.000000
1810410.000000
1811122.000000
1811845.000000
1812582.000000
1813334.000000
1814109.000000
1814901.000000
1815675.000000
1816430.000000
1817191.000000
1817951.000000
1818695.000000
1819426.000000
1820161.000000
1820891.000000
1821612.000000
1822333.000000
1823069.000000
1823814.000000
1824558.000000
1825299.000000
1826055.000000
1826822.000000
1827588.000000
1828347.000000
1829099.000000
1829837.000000
1830559.000000
1831283.000000
1832008.000000
1832752.000000
1833510.000000
1834262.000000
1835008.000000
1835775.000000
1836558.000000
1837337.000000
1838102.000000
1838872.000000
1839646.000000
1840404.000000
1841153.000000
1841915.000000
1842683.000000
1843442.000000
1844223.000000
1845013.000000
1845801.000000
1846614.000000
1847441.000000
1848244.000000
1849015.000000
1849796.000000
1850578.000000
1851361.000000
1852129.000000
1852918.000000
1853716.000000
1854513.000000
1855295.000000
1856071.000000
1856847.000000
1857606.000000
1858356.000000
1859117.000000
1859895.000000
1860675.000000
1861447.000000
1862225.000000
1863009.000000
1863771.000000
1864535.000000
1865298.000000
1866052.000000
1866803.000000
1867565.000000
1868343.000000
1869120.000000
1869880.000000
1870662.000000
1871470.000000
1872304.000000
1873126.000000
1873918.000000
1874711.000000
1875499.000000
1876277.000000
1877038.000000
1877817.000000
1878603.000000
1879376.000000
1880137.000000
1880906.000000
1881678.000000
1882436.000000
1883188.000000
1883956.000000
1884729.000000
1885486.000000
1886229.000000
1886978.000000
1887735.000000
1888485.000000
1889232.000000
1889996.000000
1890766.000000
1891528.000000
1892287.000000
1893060.000000
1893846.000000
1894616.000000
1895381.000000
1896153.000000
1896908.000000
1897647.000000
1898390.000000
1899130.000000
1899857.000000
1900575.000000
1901298.000000
1902027.000000
1902765.000000
1903491.000000
1904231.000000
1904982.000000
1905732.000000
1906478.000000
1907241.000000
1908003.000000
1908751.000000
1909509.000000
1910283.000000
1911084.000000
1911902.000000
1912705.000000
1913478.000000
1914253.000000
1915014.000000
1915755.000000
1916503.000000
1917249.000000
1917992.000000
1918732.000000
1919489.000000
1920255.000000
1921014.000000
1921774.000000
1922544.000000
1923313.000000
1924060.000000
1924811.000000
1925567.000000
1926321.000000
1927066.000000
1927828.000000
1928600.000000
1929368.000000
1930142.000000
1930936.000000
1931745.000000
1932528.000000
1933309.000000
1934061.000000
1934822.000000
1935586.000000
1936365.000000
