ECG (ms)
312.000000
1031.000000
1743.000000
2453.000000
3157.000000
3860.000000
4566.000000
5274.000000
5987.000000
6697.000000
7406.000000
8123.000000
8841.000000
9566.000000
10290.000000
11008.000000
11727.000000
12447.000000
13164.000000
13871.000000
14557.000000
15235.000000
15925.000000
16629.000000
17345.000000
18074.000000
18803.000000
19533.000000
20268.000000
21004.000000
21748.000000
22491.000000
23235.000000
23969.000000
24711.000000
25457.000000
26207.000000
26967.000000
27728.000000
28487.000000
29238.000000
29992.000000
30755.000000
31521.000000
32289.000000
33057.000000
33831.000000
34605.000000
35382.000000
36145.000000
36913.000000
37679.000000
38449.000000
39218.000000
39989.000000
40764.000000
41548.000000
42336.000000
43115.000000
43882.000000
44645.000000
45402.000000
46171.000000
46932.000000
47678.000000
48423.000000
49169.000000
49913.000000
50661.000000
51404.000000
52160.000000
52921.000000
53685.000000
54444.000000
55192.000000
55940.000000
56694.000000
57458.000000
58216.000000
58964.000000
59701.000000
60415.000000
61109.000000
61804.000000
62514.000000
63241.000000
63981.000000
64723.000000
65467.000000
66213.000000
66965.000000
67722.000000
68474.000000
69225.000000
69972.000000
70716.000000
71449.000000
72183.000000
72912.000000
73641.000000
74373.000000
75107.000000
75845.000000
76594.000000
77348.000000
78115.000000
78867.000000
79614.000000
80357.000000
81109.000000
81854.000000
82592.000000
83335.000000
84085.000000
84834.000000
85581.000000
86321.000000
87065.000000
87806.000000
88548.000000
89283.000000
90012.000000
90751.000000
91509.000000
92280.000000
93051.000000
93822.000000
94594.000000
95364.000000
96138.000000
96919.000000
97693.000000
98467.000000
99239.000000
100013.000000
100794.000000
101575.000000
102345.000000
103109.000000
103873.000000
104632.000000
105398.000000
106170.000000
106944.000000
107714.000000
108478.000000
109231.000000
109984.000000
110726.000000
111460.000000
112197.000000
112927.000000
113657.000000
114394.000000
115139.000000
115896.000000
116659.000000
117432.000000
118219.000000
119006.000000
119783.000000
120544.000000
121294.000000
122041.000000
122784.000000
123519.000000
124250.000000
124977.000000
125698.000000
126397.000000
127082.000000
127768.000000
128470.000000
129181.000000
129902.000000
130624.000000
131348.000000
132076.000000
132802.000000
133527.000000
134248.000000
134977.000000
135712.000000
136443.000000
137175.000000
137904.000000
138628.000000
139356.000000
140091.000000
140827.000000
141552.000000
142270.000000
142984.000000
143697.000000
144408.000000
145118.000000
145826.000000
146535.000000
147244.000000
147952.000000
148657.000000
149363.000000
150076.000000
150791.000000
151503.000000
152215.000000
152925.000000
153632.000000
154337.000000
155042.000000
155743.000000
156440.000000
157135.000000
157831.000000
158525.000000
159223.000000
159925.000000
160628.000000
161344.000000
162065.000000
162786.000000
163484.000000
164168.000000
164854.000000
165544.000000
166239.000000
166935.000000
167638.000000
168350.000000
169066.000000
169788.000000
170506.000000
171227.000000
171953.000000
172698.000000
173455.000000
174212.000000
174961.000000
175711.000000
176460.000000
177214.000000
177977.000000
178745.000000
179512.000000
180271.000000
181049.000000
181841.000000
182626.000000
183397.000000
184169.000000
184949.000000
185736.000000
186518.000000
187287.000000
188061.000000
188844.000000
189645.000000
190440.000000
191235.000000
192035.000000
192823.000000
193613.000000
194395.000000
195167.000000
195930.000000
196689.000000
197450.000000
198218.000000
198989.000000
199764.000000
200541.000000
201325.000000
202111.000000
202887.000000
203667.000000
204447.000000
205224.000000
206003.000000
206781.000000
207562.000000
208332.000000
209099.000000
209874.000000
210662.000000
211444.000000
212220.000000
212980.000000
213731.000000
214484.000000
215236.000000
215989.000000
216742.000000
217484.000000
218226.000000
218972.000000
219719.000000
220461.000000
221206.000000
221947.000000
222697.000000
223454.000000
224216.000000
224982.000000
225751.000000
226507.000000
227261.000000
228024.000000
228801.000000
229575.000000
230335.000000
231096.000000
231851.000000
232617.000000
233385.000000
234150.000000
234914.000000
235676.000000
236437.000000
237189.000000
237941.000000
238693.000000
239448.000000
240196.000000
240938.000000
241675.000000
242385.000000
243082.000000
243789.000000
244514.000000
245243.000000
245971.000000
246707.000000
247439.000000
248170.000000
248889.000000
249599.000000
250306.000000
251014.000000
251723.000000
252437.000000
253147.000000
253862.000000
254574.000000
255284.000000
255992.000000
256692.000000
257387.000000
258083.000000
258777.000000
259472.000000
260171.000000
260867.000000
261568.000000
262281.000000
263010.000000
263753.000000
264508.000000
265266.000000
266026.000000
266793.000000
267554.000000
268315.000000
269068.000000
269818.000000
270572.000000
271338.000000
272114.000000
272898.000000
273679.000000
274460.000000
275235.000000
276000.000000
276753.000000
277496.000000
278228.000000
278952.000000
279676.000000
280404.000000
281131.000000
281858.000000
282577.000000
283297.000000
284026.000000
284759.000000
285505.000000
286246.000000
286986.000000
287723.000000
288456.000000
289165.000000
289856.000000
290545.000000
291239.000000
291932.000000
292632.000000
293348.000000
294066.000000
294781.000000
295489.000000
296187.000000
296880.000000
297569.000000
298251.000000
298929.000000
299604.000000
300282.000000
300960.000000
301642.000000
302326.000000
303011.000000
303697.000000
304390.000000
305088.000000
305790.000000
306492.000000
307195.000000
307901.000000
308608.000000
309314.000000
310027.000000
310740.000000
311456.000000
312176.000000
312900.000000
313630.000000
314364.000000
315095.000000
315827.000000
316569.000000
317315.000000
318057.000000
318790.000000
319516.000000
320243.000000
320967.000000
321693.000000
322419.000000
323153.000000
323883.000000
324611.000000
325326.000000
326037.000000
326740.000000
327439.000000
328144.000000
328844.000000
329544.000000
330246.000000
330948.000000
331652.000000
332349.000000
333049.000000
333751.000000
334457.000000
335171.000000
335887.000000
336600.000000
337323.000000
338051.000000
338783.000000
339517.000000
340247.000000
340976.000000
341701.000000
342430.000000
343154.000000
343873.000000
344588.000000
345304.000000
346023.000000
346740.000000
347457.000000
348171.000000
348886.000000
349601.000000
350307.000000
350993.000000
351667.000000
352341.000000
353023.000000
353718.000000
354432.000000
355154.000000
355878.000000
356613.000000
357352.000000
358104.000000
358855.000000
359605.000000
360350.000000
361078.000000
361804.000000
362536.000000
363273.000000
364013.000000
364753.000000
365497.000000
366242.000000
366979.000000
367713.000000
368444.000000
369168.000000
369896.000000
370628.000000
371363.000000
372108.000000
372858.000000
373623.000000
374423.000000
375242.000000
376074.000000
376904.000000
377734.000000
378559.000000
379367.000000
380164.000000
380944.000000
381716.000000
382493.000000
383271.000000
384059.000000
384860.000000
385670.000000
386483.000000
387297.000000
388104.000000
388915.000000
389710.000000
390498.000000
391289.000000
392089.000000
392897.000000
393693.000000
394480.000000
395243.000000
395989.000000
396730.000000
397479.000000
398222.000000
398966.000000
399707.000000
400451.000000
401194.000000
401945.000000
402691.000000
403431.000000
404170.000000
404906.000000
405640.000000
406367.000000
407099.000000
407838.000000
408581.000000
409320.000000
410062.000000
410803.000000
411540.000000
412278.000000
413011.000000
413740.000000
414464.000000
415178.000000
415883.000000
416585.000000
417280.000000
417971.000000
418661.000000
419356.000000
420055.000000
420749.000000
421439.000000
422114.000000
422783.000000
423457.000000
424144.000000
424836.000000
425539.000000
426242.000000
426944.000000
427643.000000
428338.000000
429033.000000
429726.000000
430418.000000
431108.000000
431796.000000
432485.000000
433182.000000
433881.000000
434583.000000
435290.000000
435993.000000
436699.000000
437406.000000
438119.000000
438830.000000
439540.000000
440255.000000
440973.000000
441696.000000
442426.000000
443163.000000
443900.000000
444643.000000
445384.000000
446121.000000
446849.000000
447572.000000
448290.000000
449008.000000
449729.000000
450448.000000
451166.000000
451880.000000
452593.000000
453309.000000
454027.000000
454742.000000
455455.000000
456167.000000
456879.000000
457595.000000
458313.000000
459035.000000
459759.000000
460486.000000
461221.000000
461979.000000
462742.000000
463507.000000
464262.000000
465022.000000
465774.000000
466527.000000
467286.000000
468045.000000
468804.000000
469564.000000
470330.000000
471097.000000
471848.000000
472592.000000
473332.000000
474067.000000
474807.000000
475555.000000
476306.000000
477054.000000
477801.000000
478548.000000
479304.000000
480070.000000
480835.000000
481594.000000
482340.000000
483083.000000
483825.000000
484570.000000
485311.000000
486055.000000
486799.000000
487547.000000
488307.000000
489073.000000
489854.000000
490640.000000
491425.000000
492224.000000
493017.000000
493798.000000
494567.000000
495326.000000
496082.000000
496845.000000
497609.000000
498383.000000
499157.000000
499933.000000
500709.000000
501491.000000
502280.000000
503077.000000
503877.000000
504666.000000
505451.000000
506230.000000
506996.000000
507762.000000
508530.000000
509298.000000
510072.000000
510857.000000
511645.000000
512442.000000
513236.000000
514015.000000
514777.000000
515530.000000
516273.000000
517013.000000
517738.000000
518465.000000
519187.000000
519903.000000
520616.000000
521326.000000
522033.000000
522732.000000
523422.000000
524095.000000
524763.000000
525436.000000
526116.000000
526806.000000
527505.000000
528209.000000
528916.000000
529620.000000
530321.000000
531028.000000
531738.000000
532450.000000
533164.000000
533876.000000
534582.000000
535287.000000
535987.000000
536691.000000
537393.000000
538103.000000
538824.000000
539561.000000
540306.000000
541068.000000
541843.000000
542607.000000
543363.000000
544106.000000
544852.000000
545585.000000
546315.000000
547046.000000
547779.000000
548518.000000
549252.000000
549995.000000
550735.000000
551482.000000
552229.000000
552967.000000
553707.000000
554455.000000
555210.000000
555958.000000
556698.000000
557431.000000
558166.000000
558904.000000
559635.000000
560360.000000
561082.000000
561802.000000
562523.000000
563252.000000
563981.000000
564705.000000
565425.000000
566143.000000
566863.000000
567583.000000
568302.000000
569021.000000
569745.000000
570475.000000
571214.000000
571956.000000
572697.000000
573434.000000
574169.000000
574909.000000
575649.000000
576388.000000
577124.000000
577848.000000
578557.000000
579243.000000
579922.000000
580604.000000
581301.000000
582012.000000
582738.000000
583471.000000
584220.000000
584980.000000
585747.000000
586512.000000
587269.000000
588016.000000
588764.000000
589513.000000
590259.000000
591000.000000
591731.000000
592459.000000
593186.000000
593921.000000
594655.000000
595387.000000
596116.000000
596847.000000
597586.000000
598327.000000
599073.000000
599814.000000
600553.000000
601298.000000
602038.000000
602776.000000
603506.000000
604236.000000
604969.000000
605705.000000
606446.000000
607197.000000
607956.000000
608720.000000
609487.000000
610256.000000
611017.000000
611769.000000
612514.000000
613258.000000
614005.000000
614754.000000
615507.000000
616265.000000
617024.000000
617781.000000
618537.000000
619295.000000
620052.000000
620804.000000
621554.000000
622301.000000
623045.000000
623802.000000
624562.000000
625327.000000
626086.000000
626849.000000
627626.000000
628402.000000
629170.000000
629933.000000
630683.000000
631431.000000
632186.000000
632952.000000
633709.000000
634458.000000
635195.000000
635929.000000
636663.000000
637403.000000
638142.000000
638886.000000
639623.000000
640336.000000
641035.000000
641738.000000
642451.000000
643172.000000
643902.000000
644635.000000
645372.000000
646118.000000
646865.000000
647613.000000
648362.000000
649107.000000
649853.000000
650600.000000
651350.000000
652102.000000
652850.000000
653596.000000
654338.000000
655078.000000
655818.000000
656554.000000
657298.000000
658055.000000
658818.000000
659573.000000
660312.000000
661048.000000
661781.000000
662514.000000
663248.000000
663983.000000
664709.000000
665434.000000
666160.000000
666893.000000
667626.000000
668353.000000
669077.000000
669799.000000
670517.000000
671237.000000
671950.000000
672655.000000
673357.000000
674061.000000
674765.000000
675463.000000
676154.000000
676845.000000
677533.000000
678223.000000
678912.000000
679603.000000
680293.000000
680980.000000
681668.000000
682343.000000
683009.000000
683678.000000
684355.000000
685036.000000
685721.000000
686409.000000
687096.000000
687786.000000
688479.000000
689172.000000
689864.000000
690557.000000
691246.000000
691936.000000
692628.000000
693314.000000
694005.000000
694694.000000
695381.000000
696075.000000
696774.000000
697478.000000
698189.000000
698900.000000
699620.000000
700346.000000
701081.000000
701818.000000
702553.000000
703288.000000
704031.000000
704773.000000
705502.000000
706226.000000
706945.000000
707663.000000
708382.000000
709096.000000
709811.000000
710527.000000
711249.000000
711983.000000
712717.000000
713448.000000
714178.000000
714906.000000
715628.000000
716346.000000
717045.000000
717736.000000
718433.000000
719143.000000
719863.000000
720596.000000
721328.000000
722059.000000
722788.000000
723511.000000
724223.000000
724930.000000
725634.000000
726342.000000
727068.000000
727794.000000
728512.000000
729229.000000
729943.000000
730654.000000
731362.000000
732067.000000
732774.000000
733481.000000
734191.000000
734899.000000
735600.000000
736300.000000
736994.000000
737688.000000
738383.000000
739078.000000
739770.000000
740466.000000
741163.000000
741859.000000
742553.000000
743249.000000
743947.000000
744641.000000
745335.000000
746029.000000
746725.000000
747419.000000
748116.000000
748813.000000
749513.000000
750209.000000
750906.000000
751602.000000
752297.000000
752995.000000
753690.000000
754388.000000
755085.000000
755780.000000
756473.000000
757163.000000
757851.000000
758541.000000
759235.000000
759933.000000
760634.000000
761341.000000
762050.000000
762758.000000
763464.000000
764170.000000
764874.000000
765583.000000
766297.000000
767012.000000
767735.000000
768448.000000
769154.000000
769857.000000
770555.000000
771250.000000
771942.000000
772631.000000
773321.000000
774004.000000
774675.000000
775345.000000
776018.000000
776698.000000
777381.000000
778070.000000
778770.000000
779483.000000
780208.000000
780936.000000
781673.000000
782414.000000
783161.000000
783914.000000
784659.000000
785401.000000
786139.000000
786873.000000
787604.000000
788332.000000
789056.000000
789783.000000
790508.000000
791237.000000
791972.000000
792703.000000
793431.000000
794154.000000
794875.000000
795599.000000
796332.000000
797063.000000
797798.000000
798531.000000
799266.000000
800007.000000
800748.000000
801487.000000
802228.000000
802967.000000
803704.000000
804445.000000
805183.000000
805922.000000
806660.000000
807401.000000
808134.000000
808861.000000
809589.000000
810315.000000
811036.000000
811755.000000
812470.000000
813190.000000
813905.000000
814618.000000
815331.000000
816047.000000
816762.000000
817479.000000
818194.000000
818913.000000
819634.000000
820356.000000
821085.000000
821813.000000
822545.000000
823284.000000
824028.000000
824765.000000
825493.000000
826212.000000
826920.000000
827620.000000
828315.000000
829004.000000
829690.000000
830373.000000
831054.000000
831735.000000
832415.000000
833094.000000
833771.000000
834449.000000
835123.000000
835787.000000
836451.000000
837122.000000
837800.000000
838484.000000
839177.000000
839878.000000
840588.000000
841303.000000
842016.000000
842728.000000
843430.000000
844128.000000
844822.000000
845514.000000
846206.000000
846895.000000
847582.000000
848272.000000
848968.000000
849665.000000
850368.000000
851078.000000
851794.000000
852519.000000
853244.000000
853967.000000
854683.000000
855398.000000
856113.000000
856835.000000
857557.000000
858282.000000
859006.000000
859736.000000
860468.000000
861201.000000
861931.000000
862654.000000
863370.000000
864084.000000
864796.000000
865507.000000
866219.000000
866933.000000
867644.000000
868365.000000
869087.000000
869813.000000
870544.000000
871281.000000
872021.000000
872765.000000
873518.000000
874270.000000
875016.000000
875754.000000
876492.000000
877226.000000
877950.000000
878672.000000
879394.000000
880117.000000
880843.000000
881573.000000
882303.000000
883033.000000
883762.000000
884484.000000
885197.000000
885905.000000
886613.000000
887324.000000
888034.000000
888731.000000
889418.000000
890106.000000
890805.000000
891512.000000
892225.000000
892957.000000
893709.000000
894476.000000
895253.000000
896029.000000
896806.000000
897581.000000
898352.000000
899111.000000
899856.000000
900597.000000
901332.000000
902063.000000
902784.000000
