ECG (ms)
251.000000
948.000000
1702.000000
2460.000000
3172.000000
3879.000000
4618.000000
5398.000000
6168.000000
6897.000000
7631.000000
8392.000000
9172.000000
9927.000000
10652.000000
11385.000000
12130.000000
12851.000000
13545.000000
14243.000000
14976.000000
15733.000000
16458.000000
17161.000000
17894.000000
18655.000000
19401.000000
20106.000000
20837.000000
21592.000000
22356.000000
23090.000000
23832.000000
24594.000000
25355.000000
26075.000000
26781.000000
27516.000000
28264.000000
29002.000000
29699.000000
30382.000000
31103.000000
31868.000000
32655.000000
33389.000000
34105.000000
34846.000000
35602.000000
36348.000000
37056.000000
37751.000000
38472.000000
39202.000000
39918.000000
40612.000000
41300.000000
42023.000000
42780.000000
43519.000000
44228.000000
44938.000000
45674.000000
46427.000000
47169.000000
47865.000000
48550.000000
49259.000000
49995.000000
50729.000000
51439.000000
52128.000000
52834.000000
53555.000000
54285.000000
54986.000000
55675.000000
56385.000000
57113.000000
57858.000000
58579.000000
59303.000000
60055.000000
60814.000000
61547.000000
62266.000000
63005.000000
63758.000000
64483.000000
65198.000000
65938.000000
66693.000000
67446.000000
68173.000000
68902.000000
69678.000000
70479.000000
71239.000000
71984.000000
72754.000000
73556.000000
74362.000000
75139.000000
75885.000000
76641.000000
77425.000000
78217.000000
78968.000000
79717.000000
80505.000000
81327.000000
82123.000000
82884.000000
83666.000000
84467.000000
85276.000000
86030.000000
86753.000000
87480.000000
88233.000000
88996.000000
89712.000000
90409.000000
91112.000000
91830.000000
92544.000000
93233.000000
93924.000000
94665.000000
95450.000000
96211.000000
96946.000000
97685.000000
98442.000000
99196.000000
99926.000000
100673.000000
101470.000000
102264.000000
103006.000000
103724.000000
104460.000000
105211.000000
105946.000000
106653.000000
107368.000000
108093.000000
108832.000000
109540.000000
110229.000000
110930.000000
111653.000000
112386.000000
113095.000000
113809.000000
114545.000000
115294.000000
116031.000000
116750.000000
117488.000000
118244.000000
119019.000000
119749.000000
120465.000000
121204.000000
121945.000000
122649.000000
123342.000000
124061.000000
124803.000000
125554.000000
126274.000000
127002.000000
127762.000000
128522.000000
129237.000000
129941.000000
130669.000000
131414.000000
132136.000000
132849.000000
133584.000000
134349.000000
135123.000000
135860.000000
136591.000000
137356.000000
138137.000000
138883.000000
139597.000000
140310.000000
141043.000000
141780.000000
142494.000000
143186.000000
143868.000000
144571.000000
145312.000000
146083.000000
146811.000000
147522.000000
148249.000000
149012.000000
149801.000000
150572.000000
151312.000000
152071.000000
152869.000000
153683.000000
154458.000000
155196.000000
155960.000000
156760.000000
157546.000000
158285.000000
159032.000000
159795.000000
160573.000000
161313.000000
162018.000000
162714.000000
163441.000000
164225.000000
165043.000000
165821.000000
166576.000000
167371.000000
168171.000000
168959.000000
169699.000000
170445.000000
171229.000000
172075.000000
172886.000000
173659.000000
174468.000000
175318.000000
176198.000000
177017.000000
177801.000000
178602.000000
179417.000000
180178.000000
180893.000000
181598.000000
182315.000000
183050.000000
183761.000000
184491.000000
185276.000000
186104.000000
186881.000000
187612.000000
188368.000000
189141.000000
189883.000000
190598.000000
191336.000000
192117.000000
192918.000000
193663.000000
194373.000000
195098.000000
195842.000000
196610.000000
197354.000000
198083.000000
198856.000000
199654.000000
200440.000000
201182.000000
201928.000000
202703.000000
203513.000000
204275.000000
205013.000000
205787.000000
206579.000000
207352.000000
208070.000000
208775.000000
209488.000000
210224.000000
210945.000000
211651.000000
212391.000000
213192.000000
214040.000000
214828.000000
215585.000000
216360.000000
217164.000000
217962.000000
218706.000000
219462.000000
220217.000000
220973.000000
221719.000000
222442.000000
223167.000000
223916.000000
224687.000000
225423.000000
226147.000000
226902.000000
227691.000000
228457.000000
229181.000000
229910.000000
230680.000000
231466.000000
232248.000000
232992.000000
233740.000000
234499.000000
235266.000000
236010.000000
236734.000000
237467.000000
238218.000000
238982.000000
239728.000000
240455.000000
241198.000000
241957.000000
242715.000000
243436.000000
244157.000000
244907.000000
245694.000000
246445.000000
247167.000000
247910.000000
248680.000000
249454.000000
250197.000000
250954.000000
251727.000000
252498.000000
253234.000000
253961.000000
254714.000000
255501.000000
256289.000000
257024.000000
257754.000000
258519.000000
259317.000000
260113.000000
260889.000000
261677.000000
262487.000000
263268.000000
264005.000000
264736.000000
265472.000000
266230.000000
266964.000000
267677.000000
268399.000000
269204.000000
270113.000000
270981.000000
271756.000000
272518.000000
273323.000000
274131.000000
274897.000000
275624.000000
276344.000000
277089.000000
277883.000000
278679.000000
279424.000000
280162.000000
280945.000000
281746.000000
282534.000000
283284.000000
284049.000000
284844.000000
285644.000000
286404.000000
287145.000000
287906.000000
288687.000000
289445.000000
290188.000000
290953.000000
291751.000000
292541.000000
293278.000000
294025.000000
294800.000000
295577.000000
296313.000000
297051.000000
297833.000000
298663.000000
299447.000000
300195.000000
300968.000000
301787.000000
302628.000000
303419.000000
304164.000000
304921.000000
305687.000000
306462.000000
307203.000000
307923.000000
308680.000000
309526.000000
310397.000000
311233.000000
311977.000000
312685.000000
313384.000000
314083.000000
314777.000000
315461.000000
316145.000000
316799.000000
317536.000000
318389.000000
319205.000000
319995.000000
320811.000000
321631.000000
322452.000000
323215.000000
323947.000000
324684.000000
325447.000000
326229.000000
326964.000000
327666.000000
328368.000000
329098.000000
329863.000000
330603.000000
331328.000000
332099.000000
332914.000000
333753.000000
334530.000000
335288.000000
336075.000000
336858.000000
337578.000000
338276.000000
338984.000000
339760.000000
340595.000000
341371.000000
342134.000000
342929.000000
343753.000000
344544.000000
345294.000000
346065.000000
346867.000000
347665.000000
348415.000000
349176.000000
349978.000000
350831.000000
351628.000000
352387.000000
353173.000000
353998.000000
354838.000000
355614.000000
356374.000000
357162.000000
357953.000000
358735.000000
359468.000000
360181.000000
360909.000000
361663.000000
362441.000000
363195.000000
363966.000000
364781.000000
365665.000000
366562.000000
367368.000000
368172.000000
368998.000000
369823.000000
370602.000000
371353.000000
372100.000000
372886.000000
373704.000000
374511.000000
375278.000000
376045.000000
376860.000000
377706.000000
378507.000000
379254.000000
380000.000000
380768.000000
381582.000000
382408.000000
383182.000000
383941.000000
384739.000000
385557.000000
386403.000000
387269.000000
388089.000000
388875.000000
389677.000000
390485.000000
391220.000000
391935.000000
392690.000000
393506.000000
394354.000000
395148.000000
395933.000000
396764.000000
397610.000000
398462.000000
399275.000000
400051.000000
400834.000000
401655.000000
402486.000000
403273.000000
404023.000000
404780.000000
405587.000000
406411.000000
407210.000000
407970.000000
408741.000000
409548.000000
410383.000000
411176.000000
411948.000000
412741.000000
413554.000000
414376.000000
415148.000000
415898.000000
416663.000000
417435.000000
418220.000000
418967.000000
419709.000000
420483.000000
421297.000000
422134.000000
422923.000000
423682.000000
424476.000000
425326.000000
426164.000000
426942.000000
427695.000000
428485.000000
429287.000000
430068.000000
430817.000000
431597.000000
432449.000000
433313.000000
434109.000000
434904.000000
435757.000000
436602.000000
437383.000000
438132.000000
438913.000000
439726.000000
440549.000000
441332.000000
442103.000000
442916.000000
443761.000000
444564.000000
445316.000000
446090.000000
446899.000000
447705.000000
448450.000000
449196.000000
449974.000000
450778.000000
451572.000000
452322.000000
453088.000000
453895.000000
454740.000000
455573.000000
456341.000000
457109.000000
457899.000000
458719.000000
459543.000000
460317.000000
461086.000000
461909.000000
462787.000000
463667.000000
464476.000000
465253.000000
466064.000000
466915.000000
467761.000000
468552.000000
469321.000000
470121.000000
470943.000000
471764.000000
472530.000000
473285.000000
474082.000000
474910.000000
475710.000000
476465.000000
477229.000000
478017.000000
478833.000000
479610.000000
480365.000000
481129.000000
481911.000000
482703.000000
483450.000000
484208.000000
484996.000000
485819.000000
486592.000000
487354.000000
488156.000000
488987.000000
489802.000000
490561.000000
491316.000000
492101.000000
492919.000000
493751.000000
494534.000000
495282.000000
496049.000000
496840.000000
497622.000000
498369.000000
499120.000000
499915.000000
500728.000000
501546.000000
502316.000000
503050.000000
503817.000000
504627.000000
505415.000000
506164.000000
506904.000000
507675.000000
508488.000000
509294.000000
510050.000000
510803.000000
511608.000000
512456.000000
513272.000000
514057.000000
514886.000000
515760.000000
516641.000000
517453.000000
518218.000000
518996.000000
519799.000000
520604.000000
521387.000000
522149.000000
522927.000000
523745.000000
524581.000000
525368.000000
526130.000000
526922.000000
527763.000000
528585.000000
529345.000000
530099.000000
530877.000000
531679.000000
532431.000000
533191.000000
533985.000000
534797.000000
535578.000000
536326.000000
537085.000000
537873.000000
538683.000000
539489.000000
540261.000000
541045.000000
541869.000000
542712.000000
543520.000000
544295.000000
545076.000000
545879.000000
546704.000000
547460.000000
548195.000000
548957.000000
549742.000000
550544.000000
551289.000000
552032.000000
552814.000000
553656.000000
554463.000000
555221.000000
556008.000000
556808.000000
557601.000000
558359.000000
559103.000000
559885.000000
560702.000000
561533.000000
562312.000000
563092.000000
563919.000000
564805.000000
565682.000000
566495.000000
567308.000000
568150.000000
569014.000000
569831.000000
570615.000000
571426.000000
572312.000000
573211.000000
574026.000000
574817.000000
575653.000000
576533.000000
577362.000000
578137.000000
578889.000000
579663.000000
580452.000000
581221.000000
581981.000000
582782.000000
583775.000000
584787.000000
585717.000000
586617.000000
587528.000000
588369.000000
589121.000000
589883.000000
590677.000000
591491.000000
592281.000000
593070.000000
593975.000000
594915.000000
595739.000000
596537.000000
597371.000000
598215.000000
598993.000000
599755.000000
600561.000000
601412.000000
602270.000000
603077.000000
603896.000000
604770.000000
605671.000000
606494.000000
607317.000000
608196.000000
609101.000000
609942.000000
610736.000000
611562.000000
612445.000000
613373.000000
614189.000000
614976.000000
615793.000000
616637.000000
617418.000000
618186.000000
618997.000000
619872.000000
620812.000000
621635.000000
622400.000000
623193.000000
624003.000000
624789.000000
625544.000000
626339.000000
627237.000000
628193.000000
629046.000000
629864.000000
630714.000000
631604.000000
632451.000000
633217.000000
633979.000000
634749.000000
635564.000000
636395.000000
637174.000000
637970.000000
638855.000000
639814.000000
640707.000000
641510.000000
642313.000000
643165.000000
644029.000000
644840.000000
645623.000000
646453.000000
647314.000000
648213.000000
649045.000000
649843.000000
650655.000000
651497.000000
652338.000000
653127.000000
653889.000000
654682.000000
655515.000000
656296.000000
657057.000000
657818.000000
658593.000000
659396.000000
660168.000000
660933.000000
661789.000000
662805.000000
663713.000000
664545.000000
665417.000000
666320.000000
667154.000000
667931.000000
668742.000000
669617.000000
670525.000000
671340.000000
672120.000000
672929.000000
673767.000000
674559.000000
675321.000000
676152.000000
677086.000000
678020.000000
678817.000000
679598.000000
680403.000000
681229.000000
682002.000000
682762.000000
683572.000000
684449.000000
685361.000000
686187.000000
686979.000000
687829.000000
688688.000000
689513.000000
690283.000000
691054.000000
691861.000000
692690.000000
693505.000000
694295.000000
695107.000000
695954.000000
696784.000000
697548.000000
698311.000000
699114.000000
699961.000000
700827.000000
701635.000000
702418.000000
703235.000000
704082.000000
704950.000000
705731.000000
706472.000000
707242.000000
708059.000000
708854.000000
709616.000000
710419.000000
711267.000000
712098.000000
712866.000000
713651.000000
714460.000000
715280.000000
716061.000000
716805.000000
717574.000000
718396.000000
719262.000000
720077.000000
720858.000000
721664.000000
722488.000000
723299.000000
724040.000000
724778.000000
725549.000000
726365.000000
727139.000000
727891.000000
728696.000000
729547.000000
730365.000000
731119.000000
731880.000000
732660.000000
733458.000000
734225.000000
734970.000000
735761.000000
736604.000000
737441.000000
738183.000000
738908.000000
739601.000000
740305.000000
741095.000000
741903.000000
742672.000000
743457.000000
744275.000000
745109.000000
745867.000000
746614.000000
747409.000000
748257.000000
749102.000000
749870.000000
750641.000000
751464.000000
752325.000000
753113.000000
753846.000000
754570.000000
755333.000000
756208.000000
757157.000000
758075.000000
758916.000000
759782.000000
760681.000000
761640.000000
762502.000000
763293.000000
764075.000000
764886.000000
765721.000000
766569.000000
767352.000000
768138.000000
768997.000000
769916.000000
770780.000000
771616.000000
772494.000000
773392.000000
774226.000000
775004.000000
775820.000000
776678.000000
777511.000000
778288.000000
779073.000000
779909.000000
780816.000000
781651.000000
782442.000000
783236.000000
784048.000000
784818.000000
785559.000000
786296.000000
787088.000000
787976.000000
788829.000000
789610.000000
790393.000000
791197.000000
792012.000000
792850.000000
793689.000000
794526.000000
795335.000000
796085.000000
796840.000000
797608.000000
798389.000000
799155.000000
799905.000000
800700.000000
801536.000000
802303.000000
803062.000000
803846.000000
804659.000000
805404.000000
806125.000000
806861.000000
807647.000000
808480.000000
809264.000000
810034.000000
810837.000000
811654.000000
812451.000000
813193.000000
813937.000000
814706.000000
815484.000000
816243.000000
816969.000000
817687.000000
818431.000000
819195.000000
819942.000000
820681.000000
821455.000000
822286.000000
823082.000000
823851.000000
824637.000000
825440.000000
826214.000000
826945.000000
827674.000000
828446.000000
829262.000000
830107.000000
830880.000000
831626.000000
832408.000000
833217.000000
834023.000000
834774.000000
835535.000000
836315.000000
837126.000000
837922.000000
838673.000000
839420.000000
840190.000000
840975.000000
841786.000000
842544.000000
843284.000000
844065.000000
844894.000000
845738.000000
846517.000000
847276.000000
848085.000000
848903.000000
849693.000000
850426.000000
851153.000000
851891.000000
852645.000000
853397.000000
854139.000000
854904.000000
855710.000000
856548.000000
857328.000000
858089.000000
858900.000000
859749.000000
860570.000000
861337.000000
862093.000000
862893.000000
863708.000000
864478.000000
865210.000000
865942.000000
866684.000000
867437.000000
868164.000000
868904.000000
869684.000000
870518.000000
871308.000000
872093.000000
872943.000000
873869.000000
874728.000000
875490.000000
876251.000000
877054.000000
877886.000000
878682.000000
879458.000000
880264.000000
881139.000000
882044.000000
882862.000000
883654.000000
884475.000000
885316.000000
886132.000000
886905.000000
887660.000000
888440.000000
889232.000000
889989.000000
890731.000000
891505.000000
892353.000000
893242.000000
894052.000000
894801.000000
895573.000000
896373.000000
897160.000000
897913.000000
898673.000000
899494.000000
900341.000000
901119.000000
901858.000000
902600.000000
903357.000000
904127.000000
904865.000000
905591.000000
906364.000000
907219.000000
908054.000000
908834.000000
909654.000000
910469.000000
911242.000000
911950.000000
912635.000000
913359.000000
914105.000000
914837.000000
915620.000000
916483.000000
917398.000000
918200.000000
918944.000000
919702.000000
920467.000000
921238.000000
921975.000000
922697.000000
923470.000000
924288.000000
925112.000000
925883.000000
926651.000000
927460.000000
928266.000000
929021.000000
929768.000000
930552.000000
931404.000000
932229.000000
932995.000000
933758.000000
934546.000000
935329.000000
936051.000000
936750.000000
937448.000000
938155.000000
938852.000000
939508.000000
940187.000000
940879.000000
941558.000000
942253.000000
942955.000000
943665.000000
944363.000000
945058.000000
945768.000000
946489.000000
947220.000000
947921.000000
948633.000000
949380.000000
950155.000000
950873.000000
951565.000000
952281.000000
952968.000000
953631.000000
954266.000000
954894.000000
955547.000000
956230.000000
956895.000000
957535.000000
958150.000000
958817.000000
959483.000000
960155.000000
960824.000000
961478.000000
962120.000000
962753.000000
963393.000000
964026.000000
964659.000000
965300.000000
965956.000000
966634.000000
967333.000000
968014.000000
968692.000000
969369.000000
970052.000000
970725.000000
971394.000000
972078.000000
972790.000000
973502.000000
974200.000000
974911.000000
975629.000000
976357.000000
977089.000000
977797.000000
978515.000000
979254.000000
980011.000000
980742.000000
981475.000000
982237.000000
983025.000000
983762.000000
984507.000000
985273.000000
986034.000000
986755.000000
987486.000000
988230.000000
988992.000000
989731.000000
990454.000000
991207.000000
992009.000000
992813.000000
993568.000000
994360.000000
995155.000000
995931.000000
996680.000000
997457.000000
998263.000000
999062.000000
999816.000000
1000605.000000
1001425.000000
1002250.000000
1003034.000000
1003803.000000
1004584.000000
1005394.000000
1006234.000000
1007020.000000
1007794.000000
1008602.000000
1009434.000000
1010274.000000
1011070.000000
1011877.000000
1012677.000000
1013502.000000
1014344.000000
1015131.000000
1015930.000000
1016748.000000
1017576.000000
1018363.000000
1019143.000000
1020015.000000
1020993.000000
1021783.000000
1022545.000000
1023328.000000
1024167.000000
1024982.000000
1025773.000000
1026612.000000
1027622.000000
1028616.000000
1029429.000000
1030242.000000
1031050.000000
1031807.000000
1032546.000000
1033301.000000
1034038.000000
1034756.000000
1035563.000000
1036452.000000
1037387.000000
1038215.000000
1038981.000000
1039760.000000
1040547.000000
1041366.000000
1042227.000000
1043038.000000
1043812.000000
1044632.000000
1045508.000000
1046450.000000
1047275.000000
1048070.000000
1048912.000000
1049843.000000
1050797.000000
1051680.000000
1052477.000000
1053278.000000
1054098.000000
1054951.000000
1055853.000000
1056687.000000
1057476.000000
1058318.000000
1059200.000000
1060093.000000
1060927.000000
1061700.000000
1062504.000000
1063352.000000
1064193.000000
1064970.000000
1065770.000000
1066597.000000
1067427.000000
1068247.000000
1069017.000000
1069746.000000
1070438.000000
1071108.000000
1071795.000000
1072602.000000
1073662.000000
1074698.000000
1075704.000000
1076674.000000
1077546.000000
1078293.000000
1079032.000000
1079791.000000
1080666.000000
1081649.000000
1082579.000000
1083366.000000
1084158.000000
1084953.000000
1085792.000000
1086641.000000
1087417.000000
1088163.000000
1088940.000000
1089742.000000
1090540.000000
1091274.000000
1092003.000000
1092766.000000
1093686.000000
1094520.000000
1095270.000000
1096020.000000
1096847.000000
1097681.000000
1098437.000000
1099199.000000
1100049.000000
1101003.000000
1101906.000000
1102705.000000
1103469.000000
1104282.000000
1105176.000000
1106026.000000
1106819.000000
1107672.000000
1108627.000000
1109536.000000
1110335.000000
1111132.000000
1111950.000000
1112763.000000
1113523.000000
1114271.000000
1115074.000000
1115909.000000
1116687.000000
1117445.000000
1118225.000000
1119061.000000
1119899.000000
1120655.000000
1121406.000000
1122191.000000
1123021.000000
1123822.000000
1124561.000000
1125292.000000
1126064.000000
1126889.000000
1127644.000000
1128373.000000
1129164.000000
1130133.000000
1131013.000000
1131777.000000
1132562.000000
1133408.000000
1134252.000000
1135034.000000
1135756.000000
1136509.000000
1137403.000000
1138391.000000
1139316.000000
1140126.000000
1140929.000000
1141827.000000
1142732.000000
1143551.000000
1144294.000000
1145021.000000
1145793.000000
1146797.000000
1147704.000000
1148505.000000
1149328.000000
1150257.000000
1151201.000000
1152038.000000
1152825.000000
1153654.000000
1154493.000000
1155282.000000
1156029.000000
1156799.000000
1157609.000000
1158425.000000
1159201.000000
1160007.000000
1160834.000000
1161637.000000
1162392.000000
1163172.000000
1164001.000000
1164880.000000
1165685.000000
1166494.000000
1167334.000000
1168170.000000
1168936.000000
1169681.000000
1170390.000000
1171082.000000
1171838.000000
1172627.000000
1173390.000000
1174203.000000
1175051.000000
1175897.000000
1176669.000000
1177431.000000
1178225.000000
1179078.000000
1179949.000000
1180764.000000
1181590.000000
1182525.000000
1183510.000000
1184447.000000
1185269.000000
1186084.000000
1186924.000000
1187788.000000
1188616.000000
1189422.000000
1190249.000000
1191100.000000
1191974.000000
1192788.000000
1193581.000000
1194425.000000
1195297.000000
1196101.000000
1196848.000000
1197616.000000
1198421.000000
1199301.000000
1200116.000000
