ECG (ms)
317.000000
1054.000000
1824.000000
2638.000000
3474.000000
4267.000000
5042.000000
5803.000000
6561.000000
7319.000000
8089.000000
8885.000000
9682.000000
10468.000000
11292.000000
12147.000000
12961.000000
13766.000000
14529.000000
15279.000000
16031.000000
16800.000000
17581.000000
18398.000000
19231.000000
20048.000000
20838.000000
21658.000000
22490.000000
23309.000000
24157.000000
24985.000000
25861.000000
26703.000000
27507.000000
28334.000000
29131.000000
29967.000000
30804.000000
31610.000000
32415.000000
33185.000000
33983.000000
34807.000000
35609.000000
36399.000000
37199.000000
37940.000000
38670.000000
39425.000000
40181.000000
40945.000000
41729.000000
42479.000000
43226.000000
43985.000000
44736.000000
45473.000000
46264.000000
47084.000000
47905.000000
48710.000000
49532.000000
50381.000000
51204.000000
52042.000000
52864.000000
53678.000000
54516.000000
55335.000000
56162.000000
57027.000000
57873.000000
58731.000000
59572.000000
60385.000000
61195.000000
62030.000000
62844.000000
63600.000000
64350.000000
65072.000000
65802.000000
66557.000000
67318.000000
68117.000000
68908.000000
69672.000000
70481.000000
71313.000000
72127.000000
72938.000000
73766.000000
74573.000000
75321.000000
76038.000000
76788.000000
77521.000000
78224.000000
78994.000000
79842.000000
80702.000000
81558.000000
82392.000000
83246.000000
84093.000000
84941.000000
85757.000000
86570.000000
87384.000000
88154.000000
88946.000000
89775.000000
90607.000000
91443.000000
92289.000000
93094.000000
93845.000000
94575.000000
95281.000000
95996.000000
96698.000000
97392.000000
98083.000000
98775.000000
99481.000000
100256.000000
101052.000000
101848.000000
102650.000000
103429.000000
104189.000000
104946.000000
105700.000000
106477.000000
107265.000000
108083.000000
108890.000000
109702.000000
110526.000000
111364.000000
112210.000000
113063.000000
113914.000000
114770.000000
115613.000000
116470.000000
117319.000000
118180.000000
119039.000000
119875.000000
120697.000000
121526.000000
122354.000000
123180.000000
124017.000000
124856.000000
125701.000000
126506.000000
127280.000000
128079.000000
128859.000000
129638.000000
130446.000000
131264.000000
132074.000000
132913.000000
133762.000000
134569.000000
135358.000000
136149.000000
136959.000000
137747.000000
138536.000000
139351.000000
140155.000000
140978.000000
141826.000000
142667.000000
143526.000000
144388.000000
145234.000000
146050.000000
146876.000000
147724.000000
148565.000000
149400.000000
150193.000000
150945.000000
151685.000000
152408.000000
153119.000000
153838.000000
154545.000000
155269.000000
155993.000000
156754.000000
157522.000000
158240.000000
158978.000000
159764.000000
160577.000000
161405.000000
162262.000000
163127.000000
164006.000000
164827.000000
165644.000000
166453.000000
167274.000000
168115.000000
168962.000000
169780.000000
170572.000000
171390.000000
172227.000000
173056.000000
173891.000000
174735.000000
175614.000000
176483.000000
177348.000000
178203.000000
179020.000000
179803.000000
180574.000000
181363.000000
182175.000000
182970.000000
183794.000000
184629.000000
185424.000000
186243.000000
187091.000000
187931.000000
188734.000000
189566.000000
190431.000000
191286.000000
192121.000000
192909.000000
193710.000000
194538.000000
195344.000000
196139.000000
196952.000000
197804.000000
198648.000000
199439.000000
200258.000000
201097.000000
201944.000000
202771.000000
203572.000000
204311.000000
205060.000000
205839.000000
206611.000000
207315.000000
208008.000000
208755.000000
209680.000000
210621.000000
211546.000000
212430.000000
213268.000000
214119.000000
214956.000000
215751.000000
216550.000000
217323.000000
218060.000000
218862.000000
219678.000000
220529.000000
221406.000000
222248.000000
223090.000000
223947.000000
224765.000000
225594.000000
226426.000000
227227.000000
228032.000000
228853.000000
229667.000000
230463.000000
231286.000000
232130.000000
232936.000000
233751.000000
234598.000000
235419.000000
236239.000000
237083.000000
237917.000000
238731.000000
239498.000000
240267.000000
241039.000000
241840.000000
242655.000000
243428.000000
244199.000000
244983.000000
245785.000000
246558.000000
247294.000000
248021.000000
248778.000000
249562.000000
250349.000000
251130.000000
251938.000000
252735.000000
253554.000000
254379.000000
255187.000000
256038.000000
256871.000000
257711.000000
258545.000000
259389.000000
260204.000000
260977.000000
261751.000000
262513.000000
263287.000000
264046.000000
264823.000000
265580.000000
266298.000000
267045.000000
267833.000000
268624.000000
269411.000000
270240.000000
271053.000000
271876.000000
272712.000000
273526.000000
274319.000000
275148.000000
275994.000000
276808.000000
277630.000000
278468.000000
279274.000000
280088.000000
280895.000000
281690.000000
282464.000000
283253.000000
284059.000000
284857.000000
285635.000000
286375.000000
287102.000000
287864.000000
288638.000000
289428.000000
290237.000000
291060.000000
291879.000000
292671.000000
293395.000000
294108.000000
294838.000000
295584.000000
296325.000000
297027.000000
297762.000000
298533.000000
299318.000000
300063.000000
300839.000000
301648.000000
302446.000000
303282.000000
304149.000000
304986.000000
305796.000000
306635.000000
307487.000000
308290.000000
309058.000000
309836.000000
310663.000000
311503.000000
312311.000000
313084.000000
313881.000000
314698.000000
315491.000000
316230.000000
316995.000000
317807.000000
318654.000000
319497.000000
320334.000000
321161.000000
321935.000000
322721.000000
323472.000000
324210.000000
324994.000000
325801.000000
326592.000000
327397.000000
328236.000000
329080.000000
329906.000000
330698.000000
331484.000000
332272.000000
333058.000000
333861.000000
334677.000000
335489.000000
336231.000000
336998.000000
337829.000000
338696.000000
339532.000000
340400.000000
341296.000000
342154.000000
342991.000000
343831.000000
344655.000000
345488.000000
346352.000000
347176.000000
348040.000000
348897.000000
349742.000000
350551.000000
351378.000000
352187.000000
352974.000000
353782.000000
354609.000000
355424.000000
356268.000000
357121.000000
357939.000000
358738.000000
359549.000000
360351.000000
361130.000000
361938.000000
362729.000000
363488.000000
364239.000000
364944.000000
365661.000000
366439.000000
367257.000000
368070.000000
368876.000000
369667.000000
370434.000000
371149.000000
371874.000000
372637.000000
373400.000000
374187.000000
375010.000000
375844.000000
376665.000000
377525.000000
378377.000000
379193.000000
380047.000000
380904.000000
381728.000000
382545.000000
383383.000000
384202.000000
384773.000000
385943.000000
386787.000000
387594.000000
388361.000000
389112.000000
389866.000000
390608.000000
391391.000000
392222.000000
393046.000000
393830.000000
394629.000000
395463.000000
396310.000000
397161.000000
398034.000000
398873.000000
399749.000000
400638.000000
401490.000000
402354.000000
403253.000000
404110.000000
404974.000000
405836.000000
406647.000000
407433.000000
408241.000000
409051.000000
409834.000000
410603.000000
411395.000000
412174.000000
412959.000000
413764.000000
414583.000000
415379.000000
416222.000000
417104.000000
417958.000000
418753.000000
419549.000000
420326.000000
421042.000000
421742.000000
422442.000000
423214.000000
424074.000000
424889.000000
425711.000000
426574.000000
427447.000000
428282.000000
429177.000000
430078.000000
430943.000000
431857.000000
432753.000000
433617.000000
434511.000000
435413.000000
436288.000000
437202.000000
438113.000000
438991.000000
439871.000000
440765.000000
441633.000000
442471.000000
443341.000000
444214.000000
445057.000000
445912.000000
446771.000000
447636.000000
448482.000000
449330.000000
450119.000000
450906.000000
451703.000000
452436.000000
453164.000000
453926.000000
454724.000000
455546.000000
456339.000000
457171.000000
458030.000000
458872.000000
459715.000000
460582.000000
461429.000000
462277.000000
463127.000000
463959.000000
464783.000000
465633.000000
466500.000000
467346.000000
468209.000000
469045.000000
469858.000000
470706.000000
471569.000000
472416.000000
473278.000000
474151.000000
474985.000000
475821.000000
476676.000000
477507.000000
478337.000000
479169.000000
479983.000000
480791.000000
481627.000000
482452.000000
483248.000000
484050.000000
484874.000000
485666.000000
486429.000000
487210.000000
488012.000000
488792.000000
489580.000000
490387.000000
491181.000000
491938.000000
492739.000000
493551.000000
494338.000000
495149.000000
495979.000000
496793.000000
497589.000000
498406.000000
499220.000000
500015.000000
500827.000000
501646.000000
502439.000000
503271.000000
504120.000000
504949.000000
505796.000000
506650.000000
507457.000000
508286.000000
509120.000000
509935.000000
510773.000000
511615.000000
512429.000000
513269.000000
514112.000000
514927.000000
515758.000000
516621.000000
517437.000000
518272.000000
519112.000000
519915.000000
520722.000000
521557.000000
522379.000000
523198.000000
524052.000000
524899.000000
525719.000000
526543.000000
527389.000000
528208.000000
529053.000000
529915.000000
530743.000000
531587.000000
532446.000000
533285.000000
534107.000000
534908.000000
535688.000000
536407.000000
537131.000000
537897.000000
538701.000000
539508.000000
540302.000000
541125.000000
541963.000000
542774.000000
543587.000000
544412.000000
545188.000000
545905.000000
546587.000000
547278.000000
548043.000000
548858.000000
549705.000000
550520.000000
551348.000000
552201.000000
553072.000000
553898.000000
554756.000000
555635.000000
556496.000000
557341.000000
558188.000000
559031.000000
559880.000000
560738.000000
561580.000000
562428.000000
563276.000000
564104.000000
564941.000000
565792.000000
566617.000000
567489.000000
568383.000000
569222.000000
570066.000000
570903.000000
571711.000000
572522.000000
573368.000000
574175.000000
574994.000000
575823.000000
576633.000000
577448.000000
578279.000000
579089.000000
579920.000000
580761.000000
581572.000000
582392.000000
583218.000000
584030.000000
584840.000000
585661.000000
586496.000000
587299.000000
588120.000000
588950.000000
589742.000000
590552.000000
591405.000000
592239.000000
593077.000000
593921.000000
594733.000000
595507.000000
596315.000000
597136.000000
597872.000000
598612.000000
599379.000000
600197.000000
601028.000000
601830.000000
602650.000000
603516.000000
604366.000000
605223.000000
606095.000000
606934.000000
607713.000000
608471.000000
609287.000000
610129.000000
610941.000000
611727.000000
612538.000000
613397.000000
614277.000000
615128.000000
615999.000000
616878.000000
617728.000000
618589.000000
619471.000000
620331.000000
621192.000000
622053.000000
622874.000000
623683.000000
624442.000000
625204.000000
626031.000000
626854.000000
627669.000000
628510.000000
629353.000000
630189.000000
631048.000000
631893.000000
632694.000000
633500.000000
634312.000000
635104.000000
635892.000000
636710.000000
637549.000000
638374.000000
639263.000000
640178.000000
641069.000000
641982.000000
642870.000000
643728.000000
644593.000000
645480.000000
646336.000000
647197.000000
648060.000000
648860.000000
649661.000000
650490.000000
651298.000000
652107.000000
652955.000000
653809.000000
654641.000000
655499.000000
656369.000000
657203.000000
658036.000000
658891.000000
659716.000000
660578.000000
661426.000000
662226.000000
663055.000000
663895.000000
664771.000000
665658.000000
666519.000000
667393.000000
668261.000000
669094.000000
669939.000000
670789.000000
671612.000000
672448.000000
673291.000000
674107.000000
674943.000000
675794.000000
676629.000000
677479.000000
678326.000000
679132.000000
679923.000000
680734.000000
681544.000000
682282.000000
683001.000000
683753.000000
684548.000000
685392.000000
686187.000000
687016.000000
687878.000000
688707.000000
689550.000000
690405.000000
691231.000000
692001.000000
692774.000000
693608.000000
694478.000000
695320.000000
696167.000000
697072.000000
697945.000000
698797.000000
699670.000000
700547.000000
701377.000000
702199.000000
703036.000000
703851.000000
704646.000000
705474.000000
706316.000000
707113.000000
707949.000000
708814.000000
709682.000000
710549.000000
711437.000000
712321.000000
713177.000000
714061.000000
714943.000000
715802.000000
716697.000000
717596.000000
718469.000000
719375.000000
720269.000000
721127.000000
722001.000000
722891.000000
723754.000000
724612.000000
725494.000000
726361.000000
727200.000000
728047.000000
728915.000000
729756.000000
730603.000000
731506.000000
732391.000000
733226.000000
734072.000000
734913.000000
735723.000000
736557.000000
737412.000000
738231.000000
739069.000000
739930.000000
740779.000000
741597.000000
742434.000000
743262.000000
744044.000000
744831.000000
745635.000000
746415.000000
747182.000000
747982.000000
748801.000000
749593.000000
750401.000000
751222.000000
752035.000000
752856.000000
753707.000000
754551.000000
755376.000000
756236.000000
757097.000000
757912.000000
758736.000000
759578.000000
760394.000000
761234.000000
762098.000000
762935.000000
763794.000000
764676.000000
765506.000000
766341.000000
767181.000000
767991.000000
768741.000000
769462.000000
770238.000000
771107.000000
771989.000000
772820.000000
773664.000000
774499.000000
775308.000000
776134.000000
776880.000000
777651.000000
778505.000000
779339.000000
780201.000000
781081.000000
781916.000000
782788.000000
783692.000000
784561.000000
785348.000000
786178.000000
787062.000000
787907.000000
788768.000000
789635.000000
790475.000000
791315.000000
792160.000000
793013.000000
793856.000000
794747.000000
795638.000000
796500.000000
797387.000000
798276.000000
799140.000000
799976.000000
800850.000000
801731.000000
802570.000000
803405.000000
804273.000000
805120.000000
805916.000000
806717.000000
807548.000000
808393.000000
809198.000000
810064.000000
810971.000000
811839.000000
812692.000000
813593.000000
814477.000000
815311.000000
816157.000000
817032.000000
817879.000000
818737.000000
819631.000000
820482.000000
821310.000000
822152.000000
823015.000000
823851.000000
824688.000000
825537.000000
826355.000000
827172.000000
828038.000000
828871.000000
829642.000000
830379.000000
831210.000000
832029.000000
832808.000000
833629.000000
834500.000000
835334.000000
836132.000000
836881.000000
837611.000000
838375.000000
839227.000000
840153.000000
841062.000000
841993.000000
842921.000000
843799.000000
844663.000000
845550.000000
846438.000000
847277.000000
848115.000000
848997.000000
849891.000000
850747.000000
851612.000000
852486.000000
853335.000000
854161.000000
855006.000000
855882.000000
856730.000000
857587.000000
858436.000000
859250.000000
860040.000000
860859.000000
861733.000000
862502.000000
863269.000000
864110.000000
864995.000000
865866.000000
866738.000000
867631.000000
868516.000000
869307.000000
870108.000000
870983.000000
871878.000000
872727.000000
873548.000000
874311.000000
875102.000000
875940.000000
876787.000000
877575.000000
878341.000000
879108.000000
879861.000000
880667.000000
881539.000000
882435.000000
883301.000000
884110.000000
884934.000000
885781.000000
886603.000000
887425.000000
888264.000000
889096.000000
889936.000000
890818.000000
891663.000000
892520.000000
893379.000000
894246.000000
895081.000000
895928.000000
896741.000000
897496.000000
898240.000000
899002.000000
899753.000000
900458.000000
901176.000000
901951.000000
902757.000000
903541.000000
904300.000000
905103.000000
905967.000000
906836.000000
907689.000000
908517.000000
909349.000000
910187.000000
910990.000000
911785.000000
912606.000000
913453.000000
914278.000000
915141.000000
916004.000000
916851.000000
917650.000000
918409.000000
919204.000000
920042.000000
920865.000000
921698.000000
922544.000000
923396.000000
924246.000000
925131.000000
926030.000000
926891.000000
927733.000000
928570.000000
929383.000000
930219.000000
931051.000000
931846.000000
932587.000000
933311.000000
934112.000000
934989.000000
935862.000000
936766.000000
937663.000000
938518.000000
939391.000000
940287.000000
941181.000000
942047.000000
942925.000000
943811.000000
944673.000000
945536.000000
946409.000000
947262.000000
948117.000000
948999.000000
949889.000000
950733.000000
951599.000000
952469.000000
953313.000000
954149.000000
954994.000000
955859.000000
956691.000000
957531.000000
958370.000000
959199.000000
959980.000000
960717.000000
961468.000000
962226.000000
962996.000000
963788.000000
964607.000000
965399.000000
966199.000000
967053.000000
967912.000000
968741.000000
969588.000000
970448.000000
971277.000000
972112.000000
972958.000000
973782.000000
974606.000000
975436.000000
976264.000000
977094.000000
977942.000000
978773.000000
979564.000000
980389.000000
981240.000000
982053.000000
982866.000000
983715.000000
984570.000000
985375.000000
986181.000000
987017.000000
987845.000000
988648.000000
989490.000000
990335.000000
991131.000000
991936.000000
992747.000000
993540.000000
994339.000000
995161.000000
995989.000000
996797.000000
997648.000000
998491.000000
999307.000000
1000143.000000
1001001.000000
1001809.000000
1002642.000000
1003490.000000
1004326.000000
1005170.000000
1006040.000000
1006887.000000
1007761.000000
1008658.000000
1009529.000000
1010416.000000
1011309.000000
1012169.000000
1013033.000000
1013900.000000
1014733.000000
1015578.000000
1016446.000000
1017302.000000
1018149.000000
1019024.000000
1019885.000000
1020742.000000
1021617.000000
1022475.000000
1023240.000000
1023977.000000
1024746.000000
1025569.000000
1026402.000000
1027208.000000
1028024.000000
1028874.000000
1029695.000000
1030480.000000
1031318.000000
1032161.000000
1032955.000000
1033753.000000
1034592.000000
1035445.000000
1036262.000000
1037106.000000
1037976.000000
1038812.000000
1039666.000000
1040521.000000
1041371.000000
1042243.000000
1043142.000000
1044001.000000
1044839.000000
1045686.000000
1046531.000000
1047344.000000
1048188.000000
1049053.000000
1049890.000000
1050712.000000
1051560.000000
1052396.000000
1053227.000000
1054068.000000
1054910.000000
1055736.000000
1056599.000000
1057481.000000
1058333.000000
1059195.000000
1060058.000000
1060887.000000
1061718.000000
1062578.000000
1063405.000000
1064156.000000
1064891.000000
1065699.000000
1066624.000000
1067539.000000
1068419.000000
1069262.000000
1070120.000000
1071001.000000
1071862.000000
1072727.000000
1073581.000000
1074352.000000
1075129.000000
1075951.000000
1076812.000000
1077657.000000
1078490.000000
1079329.000000
1080142.000000
1080939.000000
1081751.000000
1082574.000000
1083386.000000
1084209.000000
1085045.000000
1085855.000000
1086673.000000
1087496.000000
1088323.000000
1089129.000000
1089942.000000
1090773.000000
1091570.000000
1092369.000000
1093182.000000
1093962.000000
1094739.000000
1095541.000000
1096334.000000
1097142.000000
1097967.000000
1098771.000000
1099564.000000
1100385.000000
1101188.000000
1101975.000000
1102821.000000
1103659.000000
1104463.000000
1105300.000000
1106154.000000
1106978.000000
1107814.000000
1108686.000000
1109533.000000
1110392.000000
1111273.000000
1112119.000000
1112967.000000
1113838.000000
1114708.000000
1115583.000000
1116457.000000
1117296.000000
1118157.000000
1119040.000000
1119905.000000
1120762.000000
1121640.000000
1122520.000000
1123385.000000
1124272.000000
1125179.000000
1126041.000000
1126921.000000
1127822.000000
1128687.000000
1129561.000000
1130439.000000
1131299.000000
1132183.000000
1133107.000000
1134017.000000
1134904.000000
1135766.000000
1136629.000000
1137528.000000
1138412.000000
1139284.000000
1140158.000000
1141028.000000
1141870.000000
1142732.000000
1143612.000000
1144464.000000
1145326.000000
1146186.000000
1147034.000000
1147908.000000
1148789.000000
1149640.000000
1150461.000000
1151263.000000
1152090.000000
1152907.000000
1153737.000000
1154583.000000
1155400.000000
1156245.000000
1157122.000000
1157961.000000
1158773.000000
1159553.000000
1160311.000000
1161129.000000
1161937.000000
1162751.000000
1163631.000000
1164514.000000
1165353.000000
1166125.000000
1166919.000000
1167785.000000
1168686.000000
1169604.000000
1170486.000000
1171335.000000
1172162.000000
1173011.000000
1173902.000000
1174823.000000
1175749.000000
1176634.000000
1177486.000000
1178316.000000
1179151.000000
1180020.000000
1180912.000000
1181794.000000
1182690.000000
1183599.000000
1184483.000000
1185370.000000
1186284.000000
1187169.000000
1188047.000000
1188930.000000
1189776.000000
1190630.000000
1191503.000000
1192337.000000
1193179.000000
1194035.000000
1194880.000000
1195725.000000
1196593.000000
1197444.000000
1198303.000000
1199190.000000
1200066.000000
1200965.000000
1201828.000000
1202657.000000
1203535.000000
1204425.000000
1205253.000000
1206013.000000
1206775.000000
1207606.000000
1208463.000000
1209294.000000
1210083.000000
1210919.000000
1211800.000000
1212650.000000
1213514.000000
1214399.000000
1215252.000000
1216089.000000
1216938.000000
1217779.000000
1218616.000000
1219480.000000
1220316.000000
1221094.000000
1221889.000000
1222738.000000
1223641.000000
1224530.000000
1225362.000000
1226217.000000
1227080.000000
1227932.000000
1228775.000000
1229644.000000
1230500.000000
1231303.000000
1232139.000000
1232997.000000
1233866.000000
1234703.000000
1235494.000000
1236319.000000
1237216.000000
1238126.000000
1239022.000000
1239891.000000
1240759.000000
1241628.000000
1242501.000000
1243367.000000
1244234.000000
1245093.000000
1245938.000000
1246792.000000
1247653.000000
1248502.000000
1249353.000000
1250143.000000
1250877.000000
1251641.000000
1252456.000000
1253338.000000
1254186.000000
1254999.000000
1255806.000000
1256591.000000
1257316.000000
1258037.000000
1258757.000000
1259528.000000
1260362.000000
1261220.000000
1262034.000000
1262813.000000
1263652.000000
1264532.000000
1265370.000000
1266159.000000
1266995.000000
1267862.000000
1268716.000000
1269520.000000
1270332.000000
1271192.000000
1272034.000000
1272828.000000
1273673.000000
1274536.000000
1275375.000000
1276205.000000
1277069.000000
1277931.000000
1278755.000000
1279612.000000
1280491.000000
1281332.000000
1282152.000000
1282962.000000
1283753.000000
1284511.000000
1285286.000000
1286044.000000
1286756.000000
1287487.000000
1288241.000000
1289048.000000
1289881.000000
1290682.000000
1291473.000000
1292305.000000
1293153.000000
1293978.000000
1294829.000000
1295697.000000
1296530.000000
1297347.000000
1298200.000000
1299037.000000
1299850.000000
1300692.000000
1301567.000000
1302409.000000
1303254.000000
1304109.000000
1304933.000000
1305789.000000
1306671.000000
1307526.000000
1308389.000000
1309276.000000
1310160.000000
1311020.000000
1311904.000000
1312769.000000
1313612.000000
1314461.000000
1315342.000000
1316222.000000
1317074.000000
1317938.000000
1318802.000000
1319614.000000
1320424.000000
1321258.000000
1322084.000000
1322857.000000
1323625.000000
1324353.000000
1325114.000000
1325932.000000
1326731.000000
1327539.000000
1328398.000000
1329277.000000
1330106.000000
1330931.000000
1331805.000000
1332670.000000
1333491.000000
1334300.000000
1335126.000000
1335990.000000
1336819.000000
1337637.000000
1338494.000000
1339355.000000
1340187.000000
1341031.000000
1341890.000000
1342729.000000
1343566.000000
1344397.000000
1345221.000000
1346017.000000
1346839.000000
1347693.000000
1348544.000000
1349377.000000
1350246.000000
1351116.000000
1351938.000000
1352731.000000
1353554.000000
1354405.000000
1355219.000000
1356021.000000
1356865.000000
1357712.000000
1358529.000000
1359380.000000
1360227.000000
1361030.000000
1361852.000000
1362710.000000
1363537.000000
1364338.000000
1365171.000000
1365992.000000
1366792.000000
1367556.000000
1368341.000000
1369157.000000
1370007.000000
1370831.000000
1371629.000000
1372458.000000
1373302.000000
1374141.000000
1374993.000000
1375858.000000
1376699.000000
1377559.000000
1378428.000000
1379267.000000
1380117.000000
1380990.000000
1381849.000000
1382682.000000
1383558.000000
1384439.000000
1385286.000000
1386150.000000
1387029.000000
1387870.000000
1388662.000000
1389465.000000
1390300.000000
1391106.000000
1391888.000000
1392709.000000
1393588.000000
1394453.000000
1395257.000000
1396066.000000
1396916.000000
1397753.000000
1398580.000000
1399439.000000
1400294.000000
1401102.000000
1401913.000000
1402753.000000
1403562.000000
1404344.000000
1405170.000000
1406023.000000
1406828.000000
1407629.000000
1408461.000000
1409277.000000
1410086.000000
1410926.000000
1411777.000000
1412587.000000
1413392.000000
1414172.000000
1414902.000000
1415693.000000
1416487.000000
1417303.000000
1418155.000000
1418987.000000
1419808.000000
1420654.000000
1421501.000000
1422310.000000
1423140.000000
1423973.000000
1424776.000000
1425605.000000
1426455.000000
1427283.000000
1428128.000000
1429005.000000
1429862.000000
1430729.000000
1431614.000000
1432474.000000
1433325.000000
1434206.000000
1435062.000000
1435934.000000
1436823.000000
1437677.000000
1438502.000000
1439342.000000
1440186.000000
1440991.000000
1441810.000000
1442662.000000
1443500.000000
1444323.000000
1445192.000000
1446062.000000
1446910.000000
1447786.000000
1448704.000000
1449576.000000
1450412.000000
1451263.000000
1452107.000000
1452933.000000
1453761.000000
1454597.000000
1455439.000000
1456245.000000
1457073.000000
1457908.000000
1458754.000000
1459544.000000
1460359.000000
1461210.000000
1462040.000000
1462838.000000
1463648.000000
1464461.000000
1465246.000000
1466033.000000
1466852.000000
1467649.000000
1468440.000000
1469257.000000
1470082.000000
1470884.000000
1471714.000000
1472560.000000
1473369.000000
1474157.000000
1474976.000000
1475787.000000
1476562.000000
1477371.000000
1478210.000000
1479039.000000
1479848.000000
1480685.000000
1481511.000000
1482300.000000
1483108.000000
1483956.000000
1484797.000000
1485623.000000
1486474.000000
1487338.000000
1488168.000000
1488937.000000
1489712.000000
1490500.000000
1491279.000000
1492020.000000
1492731.000000
1493451.000000
1494212.000000
1495026.000000
1495808.000000
1496579.000000
1497392.000000
1498233.000000
1499010.000000
1499739.000000
1500444.000000
1501192.000000
1502033.000000
1502915.000000
1503813.000000
1504670.000000
1505494.000000
1506337.000000
1507199.000000
1508037.000000
1508895.000000
1509755.000000
1510600.000000
1511415.000000
1512238.000000
1513067.000000
1513881.000000
1514683.000000
1515496.000000
1516312.000000
1517113.000000
1517910.000000
1518718.000000
1519541.000000
1520354.000000
1521161.000000
1521991.000000
1522806.000000
1523603.000000
1524416.000000
1525218.000000
1526012.000000
1526816.000000
1527634.000000
1528437.000000
1529240.000000
1530047.000000
1530839.000000
1531621.000000
1532363.000000
1533102.000000
1533875.000000
1534630.000000
1535410.000000
1536221.000000
1537056.000000
1537896.000000
1538768.000000
1539656.000000
1540516.000000
1541377.000000
1542243.000000
1543081.000000
1543893.000000
1544696.000000
1545501.000000
1546290.000000
1547081.000000
1547903.000000
1548678.000000
1549432.000000
1550236.000000
1551010.000000
1551744.000000
1552510.000000
1553295.000000
1554052.000000
1554756.000000
1555462.000000
1556188.000000
1556967.000000
1557790.000000
1558570.000000
1559345.000000
1560157.000000
1560963.000000
1561730.000000
1562524.000000
1563340.000000
1564117.000000
1564901.000000
1565695.000000
1566479.000000
1567229.000000
1567979.000000
1568771.000000
1569553.000000
1570344.000000
1571152.000000
1571960.000000
1572749.000000
1573561.000000
1574376.000000
1575164.000000
1575958.000000
1576776.000000
1577602.000000
1578418.000000
1579264.000000
1580098.000000
1580913.000000
1581740.000000
1582547.000000
1583306.000000
1584062.000000
1584827.000000
1585588.000000
1586385.000000
1587193.000000
1587978.000000
1588761.000000
1589562.000000
1590374.000000
1591158.000000
1591932.000000
1592698.000000
1593445.000000
1594203.000000
1594964.000000
1595707.000000
1596439.000000
1597186.000000
1597904.000000
1598617.000000
1599377.000000
1600145.000000
1600943.000000
1601749.000000
1602557.000000
1603387.000000
1604216.000000
1605022.000000
1605779.000000
1606507.000000
1607260.000000
1608009.000000
1608737.000000
1609486.000000
1610260.000000
1611023.000000
1611756.000000
1612501.000000
1613289.000000
1614053.000000
1614788.000000
1615516.000000
1616279.000000
1617041.000000
1617754.000000
1618475.000000
1619234.000000
1620047.000000
1620881.000000
1621719.000000
1622572.000000
1623423.000000
1624253.000000
1625086.000000
1625928.000000
1626749.000000
1627582.000000
1628437.000000
1629266.000000
1630068.000000
1630822.000000
1631578.000000
1632354.000000
1633117.000000
1633855.000000
1634565.000000
1635294.000000
1636068.000000
1636852.000000
1637671.000000
1638478.000000
1639226.000000
1640011.000000
1640825.000000
1641588.000000
1642290.000000
1643001.000000
1643772.000000
1644550.000000
1645334.000000
1646116.000000
1646870.000000
1647597.000000
1648331.000000
1649068.000000
1649801.000000
1650522.000000
1651241.000000
1651955.000000
1652644.000000
1653319.000000
1653991.000000
1654654.000000
1655303.000000
1655948.000000
1656634.000000
1657372.000000
1658144.000000
1658910.000000
1659689.000000
1660497.000000
1661323.000000
1662155.000000
1662939.000000
1663740.000000
1664539.000000
1665344.000000
1666168.000000
1666985.000000
1667739.000000
1668497.000000
1669289.000000
1670087.000000
1670863.000000
1671644.000000
1672427.000000
1673200.000000
1673986.000000
1674788.000000
1675572.000000
1676352.000000
1677145.000000
1677907.000000
1678652.000000
1679406.000000
1680195.000000
1680974.000000
1681753.000000
1682555.000000
1683350.000000
1684106.000000
1684858.000000
1685592.000000
1686284.000000
1686994.000000
1687698.000000
1688436.000000
1689201.000000
1689965.000000
1690761.000000
1691572.000000
1692381.000000
1693182.000000
1694009.000000
1694852.000000
1695655.000000
1696467.000000
1697290.000000
1698104.000000
1698916.000000
1699740.000000
1700524.000000
1701273.000000
1702033.000000
1702836.000000
1703681.000000
1704497.000000
1705311.000000
1706110.000000
1706872.000000
1707628.000000
1708398.000000
1709168.000000
1709921.000000
1710663.000000
1711410.000000
1712165.000000
1712907.000000
1713692.000000
1714488.000000
1715277.000000
1716085.000000
1716914.000000
1717712.000000
1718505.000000
1719329.000000
1720139.000000
1720927.000000
1721739.000000
1722584.000000
1723399.000000
1724207.000000
1725029.000000
1725832.000000
1726564.000000
1727284.000000
1728037.000000
1728828.000000
1729619.000000
1730389.000000
1731184.000000
1731986.000000
1732776.000000
1733584.000000
1734394.000000
1735186.000000
1735997.000000
1736801.000000
1737604.000000
1738420.000000
1739226.000000
1740001.000000
1740779.000000
1741575.000000
1742397.000000
1743229.000000
1744044.000000
1744832.000000
1745631.000000
1746460.000000
1747268.000000
1748079.000000
1748912.000000
1749742.000000
1750558.000000
1751389.000000
1752231.000000
1753047.000000
1753878.000000
1754718.000000
1755556.000000
1756353.000000
1757163.000000
1757990.000000
1758807.000000
1759643.000000
1760497.000000
1761355.000000
1762209.000000
1763078.000000
1763933.000000
1764768.000000
1765626.000000
1766475.000000
1767311.000000
1768128.000000
1768928.000000
1769730.000000
1770537.000000
1771353.000000
1772168.000000
1772976.000000
1773753.000000
1774486.000000
1775226.000000
1776024.000000
1776848.000000
1777683.000000
1778455.000000
1779197.000000
1779948.000000
1780693.000000
1781453.000000
1782258.000000
1783068.000000
1783851.000000
1784634.000000
1785433.000000
1786238.000000
1787031.000000
1787837.000000
1788636.000000
1789400.000000
1790125.000000
1790872.000000
1791618.000000
1792357.000000
1793079.000000
1793801.000000
1794498.000000
1795185.000000
1795909.000000
1796659.000000
1797412.000000
1798187.000000
1798978.000000
1799766.000000
