ECG (ms)
665.000000
1397.000000
2147.000000
2912.000000
3670.000000
4423.000000
5175.000000
5931.000000
6693.000000
7466.000000
8248.000000
9031.000000
9783.000000
10536.000000
11286.000000
12036.000000
12796.000000
13535.000000
14284.000000
15054.000000
15841.000000
16642.000000
17427.000000
18207.000000
18989.000000
19773.000000
20554.000000
21335.000000
22110.000000
22882.000000
23641.000000
24372.000000
25098.000000
25831.000000
26568.000000
27338.000000
28129.000000
28915.000000
29714.000000
30526.000000
31336.000000
32144.000000
32943.000000
33729.000000
34498.000000
35254.000000
36003.000000
36736.000000
37465.000000
38197.000000
38950.000000
39725.000000
40529.000000
41346.000000
42145.000000
42918.000000
43674.000000
44426.000000
45170.000000
45917.000000
46671.000000
47402.000000
48141.000000
48891.000000
49646.000000
50411.000000
51189.000000
51950.000000
52706.000000
53467.000000
54235.000000
55009.000000
55790.000000
56558.000000
57317.000000
58088.000000
58872.000000
59667.000000
60476.000000
61282.000000
62085.000000
62881.000000
63655.000000
64408.000000
65157.000000
65921.000000
66695.000000
67484.000000
68282.000000
69083.000000
69861.000000
70629.000000
71400.000000
72176.000000
72960.000000
73744.000000
74496.000000
75245.000000
75997.000000
76762.000000
77548.000000
78352.000000
79139.000000
79921.000000
80705.000000
81488.000000
82276.000000
83076.000000
83858.000000
84634.000000
85416.000000
86193.000000
86982.000000
87767.000000
88554.000000
89347.000000
90159.000000
90983.000000
91806.000000
92615.000000
93408.000000
94191.000000
94977.000000
95765.000000
96558.000000
97355.000000
98141.000000
98928.000000
99726.000000
100531.000000
101335.000000
102128.000000
102898.000000
103659.000000
104423.000000
105189.000000
105954.000000
106724.000000
107477.000000
108230.000000
108984.000000
109738.000000
110497.000000
111255.000000
112004.000000
112748.000000
113488.000000
114234.000000
114985.000000
115740.000000
116487.000000
117226.000000
117963.000000
118705.000000
119448.000000
120198.000000
120943.000000
121673.000000
122404.000000
123136.000000
123863.000000
124587.000000
125313.000000
126026.000000
126743.000000
127466.000000
128194.000000
128927.000000
129672.000000
130422.000000
131163.000000
131908.000000
132663.000000
133419.000000
134180.000000
134942.000000
135688.000000
136426.000000
137162.000000
137902.000000
138647.000000
139401.000000
140147.000000
140893.000000
141643.000000
142393.000000
143143.000000
143896.000000
144642.000000
145384.000000
146135.000000
146900.000000
147679.000000
148468.000000
149264.000000
150054.000000
150838.000000
151619.000000
152406.000000
153190.000000
153976.000000
154758.000000
155515.000000
156266.000000
157009.000000
157753.000000
158502.000000
159262.000000
160029.000000
160787.000000
161555.000000
162328.000000
163117.000000
163920.000000
164735.000000
165550.000000
166339.000000
167115.000000
167886.000000
168657.000000
169430.000000
170204.000000
170979.000000
171747.000000
172494.000000
173234.000000
173968.000000
174707.000000
175451.000000
176207.000000
176972.000000
177745.000000
178509.000000
179282.000000
180060.000000
180854.000000
181658.000000
182465.000000
183251.000000
184021.000000
184782.000000
185548.000000
186316.000000
187092.000000
187878.000000
188645.000000
189408.000000
190167.000000
190928.000000
191691.000000
192461.000000
193242.000000
194010.000000
194780.000000
195550.000000
196330.000000
197115.000000
197907.000000
198685.000000
199451.000000
200214.000000
200977.000000
201751.000000
202541.000000
203349.000000
204163.000000
204975.000000
205762.000000
206535.000000
207307.000000
208083.000000
208862.000000
209642.000000
210412.000000
211170.000000
211926.000000
212683.000000
213448.000000
214212.000000
214980.000000
215754.000000
216522.000000
217276.000000
218022.000000
218759.000000
219500.000000
220250.000000
221008.000000
221775.000000
222538.000000
223287.000000
224018.000000
224751.000000
225483.000000
226222.000000
226976.000000
227739.000000
228511.000000
229268.000000
230025.000000
230783.000000
231544.000000
232308.000000
233072.000000
233838.000000
234585.000000
235328.000000
236069.000000
236821.000000
237579.000000
238348.000000
239118.000000
239872.000000
240619.000000
241361.000000
242104.000000
242849.000000
243602.000000
244361.000000
245124.000000
245888.000000
246629.000000
247368.000000
248106.000000
248847.000000
249599.000000
250362.000000
251118.000000
251873.000000
252625.000000
253383.000000
254144.000000
254907.000000
255672.000000
256445.000000
257197.000000
257947.000000
258696.000000
259448.000000
260207.000000
260980.000000
261738.000000
262497.000000
263262.000000
264025.000000
264783.000000
265544.000000
266305.000000
267072.000000
267836.000000
268599.000000
269367.000000
270130.000000
270884.000000
271646.000000
272410.000000
273175.000000
273938.000000
274705.000000
275455.000000
276201.000000
276949.000000
277701.000000
278469.000000
279251.000000
280028.000000
280793.000000
281550.000000
282305.000000
283052.000000
283797.000000
284541.000000
285278.000000
286021.000000
286767.000000
287524.000000
288293.000000
289073.000000
289870.000000
290666.000000
291461.000000
292255.000000
293056.000000
293872.000000
294701.000000
295529.000000
296353.000000
297165.000000
297955.000000
298731.000000
299500.000000
300277.000000
301063.000000
301872.000000
302694.000000
303498.000000
304296.000000
305084.000000
305872.000000
306667.000000
307473.000000
308293.000000
309119.000000
309934.000000
310740.000000
311551.000000
312377.000000
313206.000000
314025.000000
314824.000000
315618.000000
316411.000000
317208.000000
318006.000000
318809.000000
319602.000000
320387.000000
321171.000000
321956.000000
322745.000000
323533.000000
324326.000000
325099.000000
325867.000000
326632.000000
327402.000000
328172.000000
328943.000000
329716.000000
330477.000000
331228.000000
331980.000000
332746.000000
333530.000000
334330.000000
335139.000000
335938.000000
336722.000000
337497.000000
338278.000000
339060.000000
339844.000000
340609.000000
341365.000000
342115.000000
342866.000000
343616.000000
344372.000000
345130.000000
345878.000000
346630.000000
347384.000000
348151.000000
348926.000000
349710.000000
350481.000000
351242.000000
351995.000000
352750.000000
353501.000000
354257.000000
355009.000000
355760.000000
356510.000000
357269.000000
358033.000000
358797.000000
359564.000000
360315.000000
361057.000000
361794.000000
362535.000000
363280.000000
364036.000000
364806.000000
365579.000000
366344.000000
367108.000000
367873.000000
368635.000000
369400.000000
370171.000000
370942.000000
371709.000000
372478.000000
373258.000000
374038.000000
374832.000000
375636.000000
376429.000000
377216.000000
378004.000000
378805.000000
379613.000000
380427.000000
381234.000000
382010.000000
382770.000000
383517.000000
384261.000000
385006.000000
385762.000000
386525.000000
387292.000000
388046.000000
388783.000000
389514.000000
390247.000000
390982.000000
391725.000000
392481.000000
393229.000000
393976.000000
394720.000000
395455.000000
396170.000000
396898.000000
397626.000000
398330.000000
399021.000000
399694.000000
400372.000000
401066.000000
401780.000000
402546.000000
403291.000000
404037.000000
404781.000000
405507.000000
406214.000000
406919.000000
407667.000000
408399.000000
409140.000000
409892.000000
410641.000000
411377.000000
412112.000000
412842.000000
413570.000000
414304.000000
415047.000000
415780.000000
416514.000000
417248.000000
417986.000000
418727.000000
419477.000000
420230.000000
420975.000000
421724.000000
422477.000000
423230.000000
423985.000000
424743.000000
425497.000000
426251.000000
427005.000000
427767.000000
428531.000000
429298.000000
430070.000000
430830.000000
431592.000000
432360.000000
433128.000000
433897.000000
434661.000000
435408.000000
436153.000000
436900.000000
437648.000000
438401.000000
439159.000000
439913.000000
440663.000000
441412.000000
442166.000000
442917.000000
443671.000000
444428.000000
445174.000000
445925.000000
446676.000000
447435.000000
448196.000000
448962.000000
449732.000000
450492.000000
451253.000000
452011.000000
452774.000000
453540.000000
454312.000000
455082.000000
455851.000000
456625.000000
457412.000000
458211.000000
459020.000000
459831.000000
460625.000000
461409.000000
462198.000000
462990.000000
463783.000000
464576.000000
465350.000000
466121.000000
466891.000000
467669.000000
468464.000000
469278.000000
470097.000000
470901.000000
471699.000000
472493.000000
473295.000000
474101.000000
474913.000000
475729.000000
476543.000000
477338.000000
478124.000000
478915.000000
479716.000000
480528.000000
481348.000000
482170.000000
482975.000000
483762.000000
484540.000000
485318.000000
486096.000000
486878.000000
487659.000000
488425.000000
489191.000000
489962.000000
490738.000000
491525.000000
492321.000000
493109.000000
493891.000000
494667.000000
495447.000000
496231.000000
497017.000000
497803.000000
498584.000000
499344.000000
500094.000000
500834.000000
501571.000000
502306.000000
503050.000000
503802.000000
504543.000000
505256.000000
505953.000000
506695.000000
507437.000000
508190.000000
508946.000000
509703.000000
510440.000000
511178.000000
511915.000000
512654.000000
513402.000000
514164.000000
514923.000000
515678.000000
516432.000000
517191.000000
517952.000000
518718.000000
519491.000000
520249.000000
521004.000000
521754.000000
522504.000000
523261.000000
524029.000000
524804.000000
525569.000000
526334.000000
527105.000000
527880.000000
528661.000000
529449.000000
530223.000000
530998.000000
531768.000000
532545.000000
533323.000000
534103.000000
534871.000000
535627.000000
536379.000000
537133.000000
537890.000000
538658.000000
539429.000000
540200.000000
540970.000000
541744.000000
542517.000000
543284.000000
544048.000000
544799.000000
545544.000000
546292.000000
547052.000000
547821.000000
548600.000000
549380.000000
550150.000000
550918.000000
551689.000000
552462.000000
553237.000000
554011.000000
554767.000000
555521.000000
556280.000000
557042.000000
557814.000000
558587.000000
559354.000000
560124.000000
560900.000000
561685.000000
562480.000000
563277.000000
564060.000000
564843.000000
565636.000000
566423.000000
567211.000000
568003.000000
568771.000000
569534.000000
570296.000000
571061.000000
571831.000000
572613.000000
573392.000000
574162.000000
574925.000000
575687.000000
576447.000000
577196.000000
577924.000000
578597.000000
579275.000000
579972.000000
580738.000000
581487.000000
582249.000000
583019.000000
583779.000000
584545.000000
585320.000000
586104.000000
586897.000000
587699.000000
588487.000000
589276.000000
590074.000000
590883.000000
591708.000000
592538.000000
593364.000000
594167.000000
594962.000000
595759.000000
596558.000000
597364.000000
598176.000000
598984.000000
599777.000000
600567.000000
601370.000000
602186.000000
603022.000000
603862.000000
604689.000000
605510.000000
606332.000000
607162.000000
607996.000000
608836.000000
609678.000000
610502.000000
611302.000000
612090.000000
612879.000000
613669.000000
614464.000000
615241.000000
616018.000000
616792.000000
617571.000000
618354.000000
619140.000000
619921.000000
620676.000000
621425.000000
622166.000000
622908.000000
623661.000000
624430.000000
625215.000000
626013.000000
626798.000000
627575.000000
628348.000000
629123.000000
629906.000000
630697.000000
631496.000000
632289.000000
633068.000000
633843.000000
634619.000000
635399.000000
636190.000000
636971.000000
637749.000000
638531.000000
639312.000000
640096.000000
640884.000000
641670.000000
642440.000000
643205.000000
643972.000000
644740.000000
645521.000000
646311.000000
647090.000000
647867.000000
648644.000000
649430.000000
650223.000000
651021.000000
651805.000000
652589.000000
653381.000000
654177.000000
654972.000000
655759.000000
656529.000000
657295.000000
658064.000000
658836.000000
659612.000000
660397.000000
661171.000000
661939.000000
662702.000000
663467.000000
664232.000000
665000.000000
665775.000000
666548.000000
667311.000000
668074.000000
668843.000000
669619.000000
670405.000000
671193.000000
671968.000000
672738.000000
673511.000000
674279.000000
675044.000000
675815.000000
676587.000000
677345.000000
678094.000000
678836.000000
679570.000000
680303.000000
681044.000000
681798.000000
682558.000000
683321.000000
684075.000000
684814.000000
685555.000000
686298.000000
687050.000000
687815.000000
688595.000000
689372.000000
690135.000000
690901.000000
691673.000000
692461.000000
693264.000000
694077.000000
694896.000000
695710.000000
696496.000000
697268.000000
698034.000000
698803.000000
699576.000000
700365.000000
701155.000000
701945.000000
702734.000000
703529.000000
704325.000000
705120.000000
705913.000000
706691.000000
707464.000000
708239.000000
709016.000000
709795.000000
710574.000000
711353.000000
712114.000000
712868.000000
713620.000000
714375.000000
715134.000000
715900.000000
716672.000000
717444.000000
718197.000000
718946.000000
719694.000000
720449.000000
721208.000000
721978.000000
722745.000000
723516.000000
724295.000000
725088.000000
725881.000000
726679.000000
727473.000000
728246.000000
729011.000000
729777.000000
730545.000000
731312.000000
732086.000000
732863.000000
733638.000000
734418.000000
735183.000000
735946.000000
736716.000000
737490.000000
738270.000000
739056.000000
739847.000000
740638.000000
741410.000000
742168.000000
742920.000000
743675.000000
744421.000000
745167.000000
745927.000000
746698.000000
747465.000000
748228.000000
748983.000000
749743.000000
750498.000000
751251.000000
752001.000000
752733.000000
753468.000000
754205.000000
754944.000000
755696.000000
756465.000000
757241.000000
758007.000000
758775.000000
759547.000000
760316.000000
761084.000000
761852.000000
762615.000000
763368.000000
764121.000000
764876.000000
765633.000000
766396.000000
767167.000000
767943.000000
768710.000000
769470.000000
770228.000000
770988.000000
771737.000000
772472.000000
773191.000000
773862.000000
774551.000000
775292.000000
776037.000000
776800.000000
777583.000000
778378.000000
779162.000000
779937.000000
780708.000000
781483.000000
782271.000000
783074.000000
783888.000000
784704.000000
785511.000000
786293.000000
787064.000000
787828.000000
788599.000000
789389.000000
790199.000000
791016.000000
791836.000000
792633.000000
793412.000000
794177.000000
794941.000000
795709.000000
796484.000000
797272.000000
798057.000000
798825.000000
799583.000000
800335.000000
801087.000000
801840.000000
802603.000000
803375.000000
804148.000000
804911.000000
805671.000000
806417.000000
807158.000000
807898.000000
808641.000000
809392.000000
810145.000000
810881.000000
811621.000000
812360.000000
813095.000000
813824.000000
814550.000000
815290.000000
816038.000000
816798.000000
817553.000000
818309.000000
819071.000000
819847.000000
820628.000000
821413.000000
822188.000000
822952.000000
823714.000000
824488.000000
825265.000000
826049.000000
826836.000000
827610.000000
828371.000000
829126.000000
829886.000000
830649.000000
831426.000000
832214.000000
833009.000000
833793.000000
834568.000000
835344.000000
836125.000000
836909.000000
837695.000000
838474.000000
839230.000000
839979.000000
840720.000000
841468.000000
842220.000000
842982.000000
843749.000000
844519.000000
845272.000000
846017.000000
846756.000000
847498.000000
848242.000000
848993.000000
849754.000000
850517.000000
851268.000000
852020.000000
852777.000000
853538.000000
854303.000000
855075.000000
855832.000000
856587.000000
857341.000000
858098.000000
858854.000000
859618.000000
860390.000000
861144.000000
861898.000000
862657.000000
863418.000000
864187.000000
864966.000000
865735.000000
866499.000000
867258.000000
868020.000000
868787.000000
869568.000000
870362.000000
871141.000000
871918.000000
872697.000000
873481.000000
874268.000000
875056.000000
875833.000000
876606.000000
877380.000000
878165.000000
878958.000000
879761.000000
880568.000000
881362.000000
882144.000000
882925.000000
883711.000000
884500.000000
885289.000000
886068.000000
886825.000000
887577.000000
888334.000000
889094.000000
889868.000000
890655.000000
891426.000000
892198.000000
892976.000000
893754.000000
894532.000000
895307.000000
896064.000000
896820.000000
897578.000000
898340.000000
899110.000000
899879.000000
900658.000000
901441.000000
902244.000000
903054.000000
903868.000000
904672.000000
905448.000000
906210.000000
906967.000000
907723.000000
908489.000000
909269.000000
910050.000000
910831.000000
911617.000000
912415.000000
913213.000000
914014.000000
914792.000000
915560.000000
916319.000000
917079.000000
917838.000000
918604.000000
919373.000000
920125.000000
920875.000000
921627.000000
922390.000000
923157.000000
923932.000000
924713.000000
925480.000000
926245.000000
927016.000000
927791.000000
928572.000000
929367.000000
930158.000000
930949.000000
931745.000000
932551.000000
933361.000000
