ECG (ms)
192.000000
861.000000
1531.000000
2194.000000
2848.000000
3511.000000
4180.000000
4861.000000
5538.000000
6218.000000
6921.000000
7627.000000
8328.000000
9009.000000
9696.000000
10382.000000
11064.000000
11745.000000
12413.000000
13078.000000
13740.000000
14416.000000
15073.000000
15736.000000
16398.000000
17060.000000
17725.000000
18396.000000
19065.000000
19739.000000
20420.000000
21100.000000
21770.000000
22437.000000
23116.000000
23794.000000
24473.000000
25150.000000
25814.000000
26496.000000
27184.000000
27881.000000
28571.000000
29249.000000
29930.000000
30614.000000
31295.000000
31978.000000
32641.000000
33306.000000
33977.000000
34650.000000
35328.000000
36015.000000
36685.000000
37358.000000
38043.000000
38744.000000
39453.000000
40142.000000
40811.000000
41491.000000
42170.000000
42842.000000
43514.000000
44172.000000
44832.000000
45508.000000
46201.000000
46916.000000
47615.000000
48319.000000
49055.000000
49806.000000
50533.000000
51226.000000
51931.000000
52630.000000
53322.000000
54003.000000
54669.000000
55343.000000
56018.000000
56707.000000
57388.000000
58073.000000
58772.000000
59477.000000
60191.000000
60884.000000
61574.000000
62279.000000
62984.000000
63673.000000
64341.000000
65010.000000
65681.000000
66360.000000
67046.000000
67724.000000
68401.000000
69095.000000
69798.000000
70504.000000
71191.000000
71883.000000
72577.000000
73267.000000
73949.000000
74629.000000
75317.000000
76011.000000
76707.000000
77394.000000
78078.000000
78777.000000
79479.000000
80189.000000
80882.000000
81569.000000
82264.000000
82961.000000
83658.000000
84335.000000
85013.000000
85702.000000
86396.000000
87104.000000
87795.000000
88485.000000
89179.000000
89875.000000
90580.000000
91280.000000
91965.000000
92649.000000
93332.000000
94014.000000
94703.000000
95379.000000
96049.000000
96726.000000
97408.000000
98103.000000
98790.000000
99476.000000
100174.000000
100895.000000
101615.000000
102316.000000
103000.000000
103685.000000
104369.000000
105049.000000
105733.000000
106404.000000
107092.000000
107803.000000
108527.000000
109261.000000
109964.000000
110677.000000
111399.000000
112122.000000
112853.000000
113564.000000
114270.000000
114988.000000
115705.000000
116417.000000
117110.000000
117795.000000
118492.000000
119191.000000
119898.000000
120604.000000
121288.000000
121974.000000
122678.000000
123386.000000
124088.000000
124775.000000
125483.000000
126194.000000
126898.000000
127577.000000
128263.000000
128956.000000
129655.000000
130356.000000
131038.000000
131722.000000
132414.000000
133105.000000
133797.000000
134474.000000
135151.000000
135842.000000
136530.000000
137224.000000
137900.000000
138583.000000
139274.000000
139964.000000
140656.000000
141332.000000
142014.000000
142704.000000
143389.000000
144071.000000
144738.000000
145419.000000
146112.000000
146814.000000
147522.000000
148215.000000
148907.000000
149614.000000
150333.000000
151044.000000
151735.000000
152423.000000
153115.000000
153804.000000
154502.000000
155180.000000
155863.000000
156550.000000
157248.000000
157935.000000
158619.000000
159319.000000
160023.000000
160730.000000
161418.000000
162119.000000
162823.000000
163523.000000
164204.000000
164890.000000
165587.000000
166284.000000
166991.000000
167681.000000
168369.000000
169064.000000
169762.000000
170467.000000
171157.000000
171845.000000
172548.000000
173253.000000
173958.000000
174646.000000
175331.000000
176033.000000
176744.000000
177453.000000
178146.000000
178831.000000
179534.000000
180237.000000
180935.000000
181613.000000
182297.000000
182980.000000
183659.000000
184337.000000
185009.000000
185690.000000
186376.000000
187069.000000
187755.000000
188437.000000
189116.000000
189782.000000
190438.000000
191091.000000
191736.000000
192389.000000
193057.000000
193746.000000
194457.000000
195154.000000
195856.000000
196570.000000
197289.000000
197988.000000
198669.000000
199356.000000
200046.000000
200734.000000
201402.000000
202069.000000
202749.000000
203438.000000
204144.000000
204837.000000
205530.000000
206233.000000
206940.000000
207644.000000
208332.000000
209038.000000
209744.000000
210444.000000
211128.000000
211809.000000
212495.000000
213183.000000
213875.000000
214545.000000
215222.000000
215895.000000
216578.000000
217271.000000
217946.000000
218632.000000
219328.000000
220023.000000
220703.000000
221375.000000
222051.000000
222726.000000
223408.000000
224077.000000
224748.000000
225427.000000
226117.000000
226813.000000
227495.000000
228179.000000
228875.000000
229578.000000
230279.000000
230958.000000
231653.000000
232343.000000
233030.000000
233705.000000
234372.000000
235051.000000
235747.000000
236447.000000
237137.000000
237822.000000
238518.000000
239215.000000
239911.000000
240590.000000
241270.000000
241959.000000
242651.000000
243347.000000
244032.000000
244736.000000
245439.000000
246147.000000
246839.000000
247529.000000
248229.000000
248930.000000
249636.000000
250316.000000
251003.000000
251704.000000
252413.000000
253137.000000
253847.000000
254549.000000
255262.000000
255975.000000
256684.000000
257371.000000
258047.000000
258736.000000
259437.000000
260145.000000
260842.000000
261557.000000
262278.000000
262994.000000
263699.000000
264385.000000
265075.000000
265765.000000
266454.000000
267141.000000
267816.000000
268486.000000
269167.000000
269856.000000
270562.000000
271259.000000
271955.000000
272667.000000
273387.000000
274099.000000
274785.000000
275464.000000
276151.000000
276840.000000
277530.000000
278200.000000
278871.000000
279554.000000
280242.000000
280937.000000
281618.000000
282297.000000
282980.000000
283669.000000
284372.000000
285074.000000
285766.000000
286456.000000
287150.000000
287837.000000
288526.000000
289206.000000
289880.000000
290564.000000
291262.000000
291971.000000
292670.000000
293360.000000
294050.000000
294744.000000
295442.000000
296146.000000
296829.000000
297507.000000
298183.000000
298862.000000
299546.000000
300229.000000
300913.000000
301589.000000
302263.000000
302934.000000
303609.000000
304279.000000
304938.000000
305591.000000
306249.000000
306912.000000
307573.000000
308223.000000
308869.000000
309500.000000
310122.000000
310736.000000
311370.000000
312032.000000
312683.000000
313331.000000
313992.000000
314671.000000
315364.000000
316048.000000
316722.000000
317382.000000
318039.000000
318708.000000
319403.000000
320092.000000
320772.000000
321459.000000
322162.000000
322906.000000
323643.000000
324351.000000
325034.000000
325714.000000
326408.000000
327109.000000
327813.000000
328486.000000
329156.000000
329837.000000
330523.000000
331212.000000
331886.000000
332571.000000
333273.000000
333978.000000
334680.000000
335359.000000
336039.000000
336723.000000
337408.000000
338095.000000
338763.000000
339433.000000
340141.000000
340848.000000
341557.000000
342265.000000
342972.000000
343676.000000
344394.000000
345094.000000
345794.000000
346489.000000
347209.000000
347908.000000
348619.000000
349329.000000
350047.000000
350780.000000
351537.000000
352271.000000
352970.000000
353663.000000
354354.000000
355045.000000
355732.000000
356397.000000
357059.000000
357738.000000
358443.000000
359170.000000
359880.000000
360606.000000
361351.000000
362107.000000
362830.000000
363528.000000
364223.000000
364923.000000
365623.000000
366297.000000
366967.000000
367643.000000
368332.000000
369017.000000
369735.000000
370446.000000
371145.000000
371858.000000
372571.000000
373288.000000
373987.000000
374666.000000
375345.000000
376028.000000
376717.000000
377424.000000
378127.000000
378812.000000
379501.000000
380197.000000
380895.000000
381601.000000
382283.000000
382966.000000
383658.000000
384350.000000
385046.000000
385740.000000
386415.000000
387086.000000
387753.000000
388415.000000
389085.000000
389771.000000
390465.000000
391172.000000
391878.000000
392585.000000
393273.000000
393955.000000
394638.000000
395314.000000
395988.000000
396667.000000
397340.000000
398012.000000
398696.000000
399393.000000
400113.000000
400851.000000
401569.000000
402277.000000
403007.000000
403734.000000
404458.000000
405150.000000
405830.000000
406513.000000
407200.000000
407899.000000
408597.000000
409292.000000
409995.000000
410709.000000
411435.000000
412143.000000
412834.000000
413536.000000
414240.000000
414941.000000
415633.000000
416312.000000
416991.000000
417679.000000
418374.000000
419079.000000
419774.000000
420462.000000
421157.000000
421854.000000
422552.000000
423239.000000
423918.000000
424596.000000
425280.000000
425975.000000
426674.000000
427359.000000
428036.000000
428706.000000
429375.000000
430048.000000
430727.000000
431416.000000
432115.000000
432820.000000
433532.000000
434225.000000
434906.000000
435601.000000
436313.000000
437021.000000
437727.000000
438422.000000
439112.000000
439816.000000
440529.000000
441245.000000
441961.000000
442658.000000
443354.000000
444065.000000
444783.000000
445493.000000
446178.000000
446861.000000
447552.000000
448253.000000
448957.000000
449666.000000
450355.000000
451046.000000
451743.000000
452440.000000
453140.000000
453823.000000
454500.000000
455181.000000
455862.000000
456551.000000
457245.000000
457922.000000
458596.000000
459278.000000
459971.000000
460672.000000
461376.000000
462062.000000
462740.000000
463427.000000
464114.000000
464812.000000
465504.000000
466178.000000
466853.000000
467540.000000
468228.000000
468921.000000
469610.000000
470294.000000
470987.000000
471683.000000
472381.000000
473057.000000
473730.000000
474413.000000
475098.000000
475785.000000
476457.000000
477128.000000
477814.000000
478508.000000
479215.000000
479902.000000
480596.000000
481294.000000
482004.000000
482708.000000
483397.000000
484081.000000
484774.000000
485464.000000
486164.000000
486840.000000
487521.000000
488218.000000
488923.000000
489642.000000
490337.000000
491029.000000
491727.000000
492423.000000
493118.000000
493803.000000
494473.000000
495143.000000
495818.000000
496494.000000
497199.000000
497885.000000
498567.000000
499256.000000
499965.000000
500675.000000
501381.000000
502070.000000
502759.000000
503453.000000
504141.000000
504819.000000
505488.000000
506157.000000
506830.000000
507512.000000
508206.000000
508897.000000
509583.000000
510285.000000
511004.000000
511728.000000
512436.000000
513129.000000
513816.000000
514502.000000
515190.000000
515877.000000
516566.000000
517241.000000
517918.000000
518601.000000
519291.000000
519990.000000
520690.000000
521395.000000
522087.000000
522782.000000
523475.000000
524169.000000
524845.000000
525514.000000
526187.000000
526864.000000
527555.000000
528277.000000
528999.000000
529697.000000
530390.000000
531086.000000
531776.000000
532450.000000
533111.000000
533780.000000
534451.000000
535115.000000
535777.000000
536434.000000
537102.000000
537793.000000
538493.000000
539178.000000
539861.000000
540548.000000
541248.000000
541951.000000
542665.000000
543366.000000
544050.000000
544731.000000
545412.000000
546092.000000
546785.000000
547471.000000
548154.000000
548850.000000
549565.000000
550282.000000
551000.000000
551695.000000
552385.000000
553081.000000
553776.000000
554467.000000
555156.000000
555829.000000
556507.000000
557186.000000
557877.000000
558561.000000
559234.000000
559903.000000
560604.000000
561336.000000
562045.000000
562735.000000
563427.000000
564110.000000
564801.000000
565471.000000
566130.000000
566792.000000
567480.000000
568204.000000
568976.000000
569678.000000
570379.000000
571089.000000
571805.000000
572522.000000
573237.000000
573934.000000
574619.000000
575299.000000
575982.000000
576668.000000
577359.000000
578044.000000
578726.000000
579415.000000
580114.000000
580817.000000
581523.000000
582209.000000
582893.000000
583572.000000
584257.000000
584944.000000
585639.000000
586323.000000
587014.000000
587714.000000
588421.000000
589138.000000
589830.000000
590507.000000
591186.000000
591868.000000
592557.000000
593248.000000
593926.000000
594613.000000
595315.000000
596022.000000
596737.000000
597430.000000
598115.000000
598813.000000
599511.000000
600211.000000
600896.000000
601569.000000
602248.000000
602935.000000
603637.000000
604352.000000
605045.000000
605721.000000
606398.000000
607076.000000
607756.000000
608437.000000
609105.000000
609770.000000
610440.000000
611112.000000
611797.000000
612476.000000
613152.000000
613850.000000
614558.000000
615274.000000
615984.000000
616679.000000
617387.000000
618087.000000
618794.000000
619481.000000
620158.000000
620838.000000
621523.000000
622212.000000
622889.000000
623566.000000
624237.000000
624908.000000
625589.000000
626283.000000
626994.000000
627728.000000
628467.000000
629198.000000
629897.000000
630586.000000
631273.000000
631955.000000
632641.000000
633325.000000
633999.000000
634678.000000
635379.000000
636104.000000
636834.000000
637558.000000
638272.000000
639002.000000
639730.000000
640457.000000
641161.000000
641852.000000
642559.000000
643276.000000
643993.000000
644699.000000
645393.000000
646099.000000
646811.000000
647517.000000
648218.000000
648904.000000
649588.000000
650276.000000
650969.000000
651671.000000
652355.000000
653039.000000
653738.000000
654447.000000
655160.000000
655855.000000
656538.000000
657230.000000
657923.000000
658613.000000
659285.000000
659950.000000
660612.000000
661266.000000
661886.000000
662497.000000
663125.000000
663777.000000
664480.000000
665209.000000
665934.000000
666657.000000
667386.000000
668113.000000
668821.000000
669517.000000
670188.000000
670836.000000
671476.000000
672119.000000
672779.000000
673462.000000
674155.000000
674850.000000
675525.000000
676189.000000
676859.000000
677528.000000
678200.000000
678885.000000
679567.000000
680232.000000
680902.000000
681588.000000
682285.000000
682986.000000
683674.000000
684349.000000
685023.000000
685706.000000
686409.000000
687114.000000
687788.000000
688445.000000
689094.000000
689741.000000
690377.000000
690997.000000
691625.000000
692276.000000
692932.000000
693593.000000
694284.000000
695022.000000
695781.000000
696511.000000
697202.000000
697891.000000
698574.000000
699252.000000
699931.000000
700605.000000
701275.000000
701972.000000
702724.000000
703513.000000
704281.000000
705003.000000
705726.000000
706455.000000
707171.000000
707881.000000
708581.000000
709283.000000
710005.000000
710743.000000
711453.000000
712154.000000
712873.000000
713615.000000
714369.000000
715081.000000
715797.000000
716509.000000
717217.000000
717908.000000
718593.000000
719291.000000
719996.000000
720712.000000
721413.000000
722106.000000
722804.000000
723510.000000
724231.000000
724957.000000
725661.000000
726360.000000
727066.000000
727765.000000
728461.000000
729137.000000
729814.000000
730498.000000
731214.000000
731949.000000
732650.000000
733358.000000
734076.000000
734798.000000
735513.000000
736204.000000
736902.000000
737604.000000
738305.000000
739009.000000
739698.000000
740385.000000
741081.000000
741788.000000
742498.000000
743193.000000
743883.000000
744571.000000
745267.000000
745965.000000
746653.000000
747325.000000
747991.000000
748659.000000
749333.000000
750007.000000
750683.000000
751365.000000
752050.000000
752747.000000
753464.000000
754194.000000
754908.000000
755600.000000
756292.000000
756987.000000
757676.000000
758363.000000
759032.000000
759699.000000
760350.000000
761007.000000
761697.000000
762406.000000
763094.000000
763774.000000
764464.000000
765163.000000
765870.000000
766559.000000
767231.000000
767910.000000
768585.000000
769263.000000
769935.000000
770589.000000
771241.000000
771895.000000
772554.000000
773221.000000
773885.000000
774541.000000
775202.000000
775875.000000
776561.000000
777238.000000
777899.000000
778544.000000
779180.000000
779820.000000
780476.000000
781167.000000
781879.000000
782604.000000
783302.000000
783977.000000
784649.000000
785319.000000
785996.000000
786675.000000
787350.000000
788013.000000
788665.000000
789332.000000
790018.000000
790722.000000
791410.000000
792084.000000
792751.000000
793417.000000
794087.000000
794757.000000
795413.000000
796063.000000
796715.000000
797385.000000
798069.000000
798761.000000
799436.000000
800102.000000
800765.000000
801440.000000
802128.000000
802800.000000
803453.000000
804116.000000
804793.000000
805491.000000
806172.000000
806839.000000
807512.000000
808197.000000
808894.000000
809584.000000
810260.000000
810923.000000
811591.000000
812273.000000
812960.000000
813630.000000
814291.000000
814963.000000
815652.000000
816371.000000
817097.000000
817798.000000
818479.000000
819162.000000
819848.000000
820544.000000
821245.000000
821933.000000
822624.000000
823317.000000
824017.000000
824718.000000
825404.000000
826104.000000
826834.000000
827569.000000
828281.000000
828965.000000
829648.000000
830330.000000
831021.000000
831691.000000
832347.000000
833002.000000
833662.000000
834330.000000
835008.000000
835684.000000
836369.000000
837096.000000
837819.000000
838520.000000
839195.000000
839868.000000
840542.000000
841209.000000
841867.000000
842513.000000
843162.000000
843828.000000
844518.000000
845234.000000
845936.000000
846619.000000
847298.000000
847975.000000
848661.000000
849348.000000
850023.000000
850679.000000
851327.000000
851968.000000
852608.000000
853257.000000
853906.000000
854540.000000
855182.000000
855847.000000
856498.000000
857147.000000
857796.000000
858455.000000
859124.000000
859790.000000
860445.000000
861100.000000
861769.000000
862452.000000
863129.000000
863797.000000
864456.000000
865124.000000
865807.000000
866503.000000
867200.000000
867875.000000
868546.000000
869223.000000
869925.000000
870625.000000
871312.000000
871980.000000
872649.000000
873336.000000
874022.000000
874694.000000
875352.000000
876022.000000
876719.000000
877427.000000
878110.000000
878787.000000
879478.000000
880164.000000
880853.000000
881526.000000
882207.000000
882903.000000
883622.000000
884318.000000
885008.000000
885708.000000
886404.000000
887103.000000
887781.000000
888455.000000
889136.000000
889824.000000
890520.000000
891206.000000
891890.000000
892589.000000
893290.000000
893998.000000
894690.000000
895385.000000
896084.000000
896781.000000
897475.000000
898155.000000
898833.000000
899505.000000
900177.000000
900855.000000
901522.000000
902203.000000
902890.000000
903608.000000
904347.000000
905086.000000
905794.000000
906482.000000
907174.000000
907867.000000
908553.000000
909222.000000
909877.000000
910524.000000
911191.000000
911891.000000
912610.000000
913313.000000
914022.000000
914744.000000
915462.000000
916149.000000
916824.000000
917505.000000
918185.000000
918866.000000
919535.000000
920201.000000
920871.000000
921545.000000
922233.000000
922909.000000
923564.000000
924200.000000
924832.000000
925471.000000
926117.000000
926764.000000
927431.000000
928147.000000
928890.000000
929614.000000
930320.000000
931047.000000
931779.000000
932513.000000
933219.000000
933911.000000
934604.000000
935316.000000
936038.000000
936736.000000
937430.000000
938148.000000
938899.000000
939637.000000
940349.000000
941051.000000
941771.000000
942495.000000
943188.000000
943858.000000
944530.000000
945205.000000
945894.000000
946575.000000
947252.000000
947935.000000
948642.000000
949353.000000
950041.000000
950716.000000
951398.000000
952076.000000
952756.000000
953428.000000
954090.000000
954756.000000
955430.000000
956126.000000
956818.000000
957497.000000
958175.000000
958860.000000
959552.000000
960229.000000
960897.000000
961571.000000
962254.000000
962946.000000
963602.000000
964255.000000
964912.000000
965574.000000
966245.000000
966923.000000
967603.000000
968303.000000
969018.000000
969748.000000
970439.000000
971153.000000
971868.000000
972589.000000
973279.000000
973963.000000
974652.000000
975336.000000
976011.000000
976678.000000
977361.000000
978057.000000
978761.000000
979451.000000
980147.000000
980853.000000
981560.000000
982267.000000
982953.000000
983638.000000
984336.000000
985035.000000
985734.000000
986416.000000
987105.000000
987808.000000
988507.000000
989222.000000
989919.000000
990607.000000
991301.000000
992008.000000
992713.000000
993421.000000
994113.000000
994809.000000
995508.000000
996216.000000
996923.000000
997622.000000
998331.000000
999049.000000
999768.000000
1000480.000000
1001171.000000
1001865.000000
1002562.000000
1003252.000000
1003931.000000
1004601.000000
1005276.000000
1005960.000000
1006664.000000
1007356.000000
1008050.000000
1008760.000000
1009478.000000
1010193.000000
1010884.000000
1011569.000000
1012259.000000
1012947.000000
1013632.000000
1014300.000000
1014972.000000
1015665.000000
1016372.000000
1017087.000000
1017788.000000
1018493.000000
1019218.000000
1019940.000000
1020659.000000
1021356.000000
1022054.000000
1022762.000000
1023469.000000
1024169.000000
1024851.000000
1025535.000000
1026230.000000
1026930.000000
1027632.000000
1028320.000000
1029023.000000
1029733.000000
1030444.000000
1031158.000000
1031850.000000
1032543.000000
1033240.000000
1033933.000000
1034631.000000
1035314.000000
1035996.000000
1036687.000000
1037391.000000
1038100.000000
1038790.000000
1039482.000000
1040183.000000
1040887.000000
1041590.000000
1042282.000000
1042962.000000
1043646.000000
1044331.000000
1045021.000000
1045714.000000
1046395.000000
1047076.000000
1047771.000000
1048471.000000
1049167.000000
1049856.000000
1050558.000000
1051265.000000
1051971.000000
1052658.000000
1053332.000000
1054014.000000
1054699.000000
1055386.000000
1056064.000000
1056740.000000
1057428.000000
1058143.000000
1058877.000000
1059585.000000
1060283.000000
1060997.000000
1061715.000000
1062418.000000
1063102.000000
1063783.000000
1064463.000000
1065142.000000
1065809.000000
1066471.000000
1067143.000000
1067835.000000
1068566.000000
1069280.000000
1069994.000000
1070742.000000
1071492.000000
1072255.000000
1072974.000000
1073692.000000
1074418.000000
1075129.000000
1075821.000000
1076495.000000
1077175.000000
1077868.000000
1078572.000000
1079260.000000
1079953.000000
1080663.000000
1081387.000000
1082116.000000
1082818.000000
1083509.000000
1084190.000000
1084871.000000
1085531.000000
1086190.000000
1086851.000000
1087530.000000
1088241.000000
1088975.000000
1089689.000000
1090384.000000
1091097.000000
1091827.000000
1092566.000000
1093294.000000
1093981.000000
1094641.000000
1095299.000000
1095954.000000
1096634.000000
1097323.000000
1098001.000000
1098673.000000
1099365.000000
1100086.000000
1100811.000000
1101507.000000
1102186.000000
1102870.000000
1103565.000000
1104272.000000
1104968.000000
1105644.000000
1106305.000000
1106968.000000
1107635.000000
1108332.000000
1109023.000000
1109702.000000
1110392.000000
1111107.000000
1111847.000000
1112565.000000
1113261.000000
1113965.000000
1114665.000000
1115357.000000
1116054.000000
1116723.000000
1117388.000000
1118071.000000
1118766.000000
1119489.000000
1120190.000000
1120871.000000
1121564.000000
1122267.000000
1122998.000000
1123700.000000
1124381.000000
1125063.000000
1125751.000000
1126430.000000
1127092.000000
1127756.000000
1128429.000000
1129110.000000
1129803.000000
1130482.000000
1131156.000000
1131839.000000
1132524.000000
1133211.000000
1133883.000000
1134548.000000
1135218.000000
1135889.000000
1136565.000000
1137228.000000
1137891.000000
1138566.000000
1139260.000000
1139969.000000
1140657.000000
1141348.000000
1142053.000000
1142754.000000
1143452.000000
1144126.000000
1144806.000000
1145487.000000
1146166.000000
1146833.000000
1147496.000000
1148167.000000
1148846.000000
1149532.000000
1150215.000000
1150889.000000
1151572.000000
1152269.000000
1152969.000000
1153655.000000
1154330.000000
1155015.000000
1155703.000000
1156400.000000
1157099.000000
1157790.000000
1158492.000000
1159216.000000
1159953.000000
1160659.000000
1161355.000000
1162063.000000
1162766.000000
1163465.000000
1164143.000000
1164828.000000
1165523.000000
1166223.000000
1166905.000000
1167589.000000
1168291.000000
1169005.000000
1169723.000000
1170418.000000
1171119.000000
1171821.000000
1172523.000000
1173204.000000
1173877.000000
1174559.000000
1175256.000000
1175987.000000
1176712.000000
1177429.000000
1178161.000000
1178896.000000
1179622.000000
1180319.000000
1181012.000000
1181704.000000
1182394.000000
1183084.000000
1183765.000000
1184453.000000
1185155.000000
1185870.000000
1186588.000000
1187288.000000
1187999.000000
1188726.000000
1189454.000000
1190164.000000
1190853.000000
1191549.000000
1192242.000000
1192934.000000
1193608.000000
1194275.000000
1194956.000000
1195672.000000
1196415.000000
1197126.000000
1197820.000000
1198522.000000
1199231.000000
1199940.000000
1200639.000000
1201328.000000
1202019.000000
1202696.000000
1203391.000000
1204092.000000
1204777.000000
1205454.000000
1206141.000000
1206837.000000
1207541.000000
1208219.000000
1208888.000000
1209560.000000
1210238.000000
1210931.000000
1211616.000000
1212290.000000
1212983.000000
1213697.000000
1214427.000000
1215132.000000
1215816.000000
1216508.000000
1217216.000000
1217912.000000
1218585.000000
1219248.000000
1219915.000000
1220588.000000
1221276.000000
1221976.000000
1222658.000000
1223329.000000
1223988.000000
1224640.000000
1225290.000000
1225928.000000
1226552.000000
1227177.000000
1227816.000000
1228472.000000
1229123.000000
1229759.000000
1230399.000000
1231048.000000
1231700.000000
1232353.000000
1232999.000000
1233643.000000
1234302.000000
1234980.000000
1235697.000000
1236384.000000
1237059.000000
1237738.000000
1238430.000000
1239123.000000
1239808.000000
1240483.000000
1241160.000000
1241836.000000
1242514.000000
1243187.000000
1243844.000000
1244498.000000
1245169.000000
1245857.000000
1246564.000000
1247252.000000
1247927.000000
1248606.000000
1249300.000000
1249988.000000
1250652.000000
1251316.000000
1251981.000000
1252647.000000
1253321.000000
1253979.000000
1254631.000000
1255290.000000
1255946.000000
1256605.000000
1257259.000000
1257917.000000
1258584.000000
1259251.000000
1259915.000000
1260563.000000
1261216.000000
1261874.000000
1262529.000000
1263181.000000
1263830.000000
1264488.000000
1265149.000000
1265816.000000
1266484.000000
1267140.000000
1267808.000000
1268479.000000
1269154.000000
