ECG (ms)
568.000000
1449.000000
2342.000000
3198.000000
4022.000000
4889.000000
5771.000000
6642.000000
7481.000000
8327.000000
9195.000000
10082.000000
10928.000000
11778.000000
12667.000000
13558.000000
14418.000000
15338.000000
16290.000000
17186.000000
18047.000000
18925.000000
19793.000000
20612.000000
21440.000000
22303.000000
23190.000000
24048.000000
24924.000000
25816.000000
26686.000000
27525.000000
28393.000000
29267.000000
30112.000000
30955.000000
31828.000000
32723.000000
33588.000000
34440.000000
35337.000000
36281.000000
37149.000000
37982.000000
38825.000000
39675.000000
40534.000000
41354.000000
42163.000000
42991.000000
43812.000000
44614.000000
45395.000000
46211.000000
47028.000000
47837.000000
48639.000000
49462.000000
50300.000000
51156.000000
51984.000000
52826.000000
53686.000000
54555.000000
55383.000000
56225.000000
57086.000000
57955.000000
58794.000000
59633.000000
60486.000000
61349.000000
62179.000000
63014.000000
63851.000000
64684.000000
65494.000000
66296.000000
67131.000000
67987.000000
68825.000000
69656.000000
70506.000000
71371.000000
72202.000000
73016.000000
73854.000000
74679.000000
75479.000000
76270.000000
77077.000000
77904.000000
78716.000000
79519.000000
80350.000000
81210.000000
82035.000000
82833.000000
83652.000000
84481.000000
85300.000000
86087.000000
86892.000000
87683.000000
88472.000000
89245.000000
90028.000000
90834.000000
91666.000000
92487.000000
93306.000000
94170.000000
95110.000000
96055.000000
96957.000000
97824.000000
98713.000000
99601.000000
100459.000000
101315.000000
102223.000000
103154.000000
104078.000000
104963.000000
105862.000000
106761.000000
107610.000000
108435.000000
109274.000000
110150.000000
111029.000000
111906.000000
112833.000000
113775.000000
114671.000000
115548.000000
116442.000000
117283.000000
118105.000000
118938.000000
119799.000000
120631.000000
121476.000000
122352.000000
123250.000000
124125.000000
125027.000000
125943.000000
126833.000000
127693.000000
128579.000000
129501.000000
130433.000000
131324.000000
132243.000000
133181.000000
134092.000000
134963.000000
135851.000000
136756.000000
137656.000000
138508.000000
139390.000000
140297.000000
141157.000000
141970.000000
142763.000000
143576.000000
144465.000000
145412.000000
146409.000000
147362.000000
148234.000000
149069.000000
149879.000000
150662.000000
151407.000000
152117.000000
152825.000000
153571.000000
154352.000000
155142.000000
156003.000000
156906.000000
157811.000000
158666.000000
159502.000000
160331.000000
161165.000000
162017.000000
162835.000000
163675.000000
164524.000000
165369.000000
166201.000000
167040.000000
167893.000000
168747.000000
169582.000000
170398.000000
171237.000000
172080.000000
172921.000000
173738.000000
174549.000000
175368.000000
176193.000000
176990.000000
177791.000000
178613.000000
179464.000000
180283.000000
181111.000000
181987.000000
182889.000000
183743.000000
184569.000000
185405.000000
186256.000000
187112.000000
187943.000000
188817.000000
189720.000000
190601.000000
191463.000000
192358.000000
193263.000000
194121.000000
194955.000000
195799.000000
196652.000000
197491.000000
198350.000000
199267.000000
200210.000000
201113.000000
202015.000000
202938.000000
203853.000000
204714.000000
205550.000000
206403.000000
207275.000000
208116.000000
208927.000000
209724.000000
210542.000000
211444.000000
212405.000000
213359.000000
214275.000000
215135.000000
216007.000000
216889.000000
217766.000000
218624.000000
219492.000000
220366.000000
221246.000000
222107.000000
222960.000000
223857.000000
224777.000000
225651.000000
226531.000000
227423.000000
228321.000000
229205.000000
230067.000000
230953.000000
231850.000000
232700.000000
233511.000000
234297.000000
235105.000000
235971.000000
236903.000000
237895.000000
238867.000000
239772.000000
240664.000000
241576.000000
242454.000000
243299.000000
244124.000000
244955.000000
245795.000000
246649.000000
247492.000000
248355.000000
249236.000000
250141.000000
251025.000000
251894.000000
252769.000000
253627.000000
254467.000000
255291.000000
256142.000000
256987.000000
257825.000000
258635.000000
259464.000000
260305.000000
261171.000000
262010.000000
262851.000000
263712.000000
264557.000000
265408.000000
266283.000000
267132.000000
267965.000000
268810.000000
269713.000000
270636.000000
271516.000000
272398.000000
273296.000000
274193.000000
275085.000000
275974.000000
276859.000000
277748.000000
278615.000000
279468.000000
280358.000000
281246.000000
282115.000000
282943.000000
283789.000000
284636.000000
285457.000000
286287.000000
287122.000000
287984.000000
288829.000000
289664.000000
290518.000000
291367.000000
292207.000000
293048.000000
293915.000000
294806.000000
295673.000000
296509.000000
297367.000000
298227.000000
299066.000000
299886.000000
300727.000000
301595.000000
302481.000000
303347.000000
304230.000000
305123.000000
306000.000000
306866.000000
307715.000000
308562.000000
309381.000000
310169.000000
310980.000000
311801.000000
312628.000000
313449.000000
314295.000000
315177.000000
316037.000000
316884.000000
317751.000000
318640.000000
319515.000000
320379.000000
321259.000000
322132.000000
322933.000000
323698.000000
324454.000000
325237.000000
326037.000000
326831.000000
327614.000000
328442.000000
329290.000000
330104.000000
330908.000000
331726.000000
332557.000000
333366.000000
334148.000000
334942.000000
335748.000000
336545.000000
337325.000000
338111.000000
338907.000000
339706.000000
340499.000000
341317.000000
342186.000000
343054.000000
343911.000000
344762.000000
345621.000000
346485.000000
347325.000000
348182.000000
349055.000000
349891.000000
350713.000000
351577.000000
352457.000000
353347.000000
354208.000000
355055.000000
355924.000000
356810.000000
357678.000000
358550.000000
359457.000000
360354.000000
361256.000000
362185.000000
363083.000000
363951.000000
364839.000000
365700.000000
366503.000000
367287.000000
368094.000000
369024.000000
369980.000000
370942.000000
371886.000000
372766.000000
373641.000000
374541.000000
375441.000000
376325.000000
377176.000000
378059.000000
378955.000000
379867.000000
380769.000000
381695.000000
382638.000000
383578.000000
384490.000000
385401.000000
386313.000000
387178.000000
388004.000000
388821.000000
389637.000000
390463.000000
391284.000000
392113.000000
392990.000000
393910.000000
394833.000000
395729.000000
396629.000000
397544.000000
398424.000000
399275.000000
400136.000000
401016.000000
401873.000000
402714.000000
403590.000000
404481.000000
405369.000000
406233.000000
407099.000000
407966.000000
408840.000000
409685.000000
410536.000000
411444.000000
412384.000000
413259.000000
414138.000000
415064.000000
415965.000000
416819.000000
417694.000000
418554.000000
419373.000000
420179.000000
421029.000000
421885.000000
422719.000000
423587.000000
424514.000000
425436.000000
426352.000000
427290.000000
428219.000000
429107.000000
430001.000000
430921.000000
431822.000000
432702.000000
433633.000000
434580.000000
435514.000000
436397.000000
437297.000000
438144.000000
438954.000000
439808.000000
440678.000000
441540.000000
442367.000000
443239.000000
444166.000000
445059.000000
445914.000000
446785.000000
447696.000000
448633.000000
449542.000000
450427.000000
451334.000000
452241.000000
453110.000000
453954.000000
454818.000000
455686.000000
456517.000000
457303.000000
458083.000000
458902.000000
459767.000000
460663.000000
461513.000000
462363.000000
463273.000000
464187.000000
465071.000000
465942.000000
466835.000000
467723.000000
468575.000000
469436.000000
470322.000000
471230.000000
472114.000000
472919.000000
473694.000000
474480.000000
475320.000000
476190.000000
477089.000000
478004.000000
478867.000000
479664.000000
480461.000000
481283.000000
482123.000000
482923.000000
483700.000000
484519.000000
485376.000000
486228.000000
487051.000000
487934.000000
488804.000000
489668.000000
490544.000000
491399.000000
492251.000000
493133.000000
493991.000000
494894.000000
495762.000000
496618.000000
497471.000000
498331.000000
499185.000000
500042.000000
500934.000000
501830.000000
502710.000000
503603.000000
504515.000000
505447.000000
506351.000000
507214.000000
508088.000000
508983.000000
509868.000000
510721.000000
511572.000000
512412.000000
513241.000000
514063.000000
514925.000000
515801.000000
516669.000000
517526.000000
518410.000000
519278.000000
520076.000000
520847.000000
521638.000000
522465.000000
523309.000000
524157.000000
525013.000000
525922.000000
526864.000000
527814.000000
528711.000000
529569.000000
530401.000000
531212.000000
531994.000000
532768.000000
533564.000000
534397.000000
535292.000000
536163.000000
537043.000000
537947.000000
538831.000000
539651.000000
540466.000000
541309.000000
542196.000000
543053.000000
543896.000000
544766.000000
545620.000000
546456.000000
547318.000000
548190.000000
549041.000000
549881.000000
550752.000000
551655.000000
552538.000000
553435.000000
554351.000000
555305.000000
556199.000000
557092.000000
557986.000000
558861.000000
559682.000000
560511.000000
561315.000000
562106.000000
562896.000000
563695.000000
564458.000000
565205.000000
565979.000000
566777.000000
567583.000000
568426.000000
569307.000000
570193.000000
571056.000000
571924.000000
572811.000000
573665.000000
574493.000000
575315.000000
576156.000000
576985.000000
577779.000000
578551.000000
579353.000000
580212.000000
581101.000000
581951.000000
582812.000000
583709.000000
584602.000000
585472.000000
586359.000000
587265.000000
588184.000000
589095.000000
590007.000000
590948.000000
591848.000000
592747.000000
593696.000000
594660.000000
595557.000000
596417.000000
597276.000000
598141.000000
598994.000000
599863.000000
600776.000000
601718.000000
602628.000000
603516.000000
604395.000000
605231.000000
606035.000000
606850.000000
607651.000000
608465.000000
609324.000000
610228.000000
611104.000000
611998.000000
612921.000000
613819.000000
614659.000000
615513.000000
616348.000000
617159.000000
617981.000000
618857.000000
619741.000000
620603.000000
621475.000000
622385.000000
623274.000000
624083.000000
624855.000000
625650.000000
626495.000000
627406.000000
628292.000000
629118.000000
629935.000000
630750.000000
631566.000000
632370.000000
633166.000000
633995.000000
634857.000000
635724.000000
636558.000000
637383.000000
638196.000000
639019.000000
639819.000000
640607.000000
641449.000000
642344.000000
643263.000000
644159.000000
645070.000000
646011.000000
646927.000000
647782.000000
648608.000000
649461.000000
650338.000000
651207.000000
652080.000000
652979.000000
653916.000000
654864.000000
655768.000000
656637.000000
657512.000000
658394.000000
659253.000000
660124.000000
661051.000000
661998.000000
662920.000000
663851.000000
664804.000000
665697.000000
666541.000000
667391.000000
668303.000000
669233.000000
670165.000000
671047.000000
671926.000000
672762.000000
673580.000000
674426.000000
675271.000000
676092.000000
676879.000000
677676.000000
678498.000000
679328.000000
680130.000000
680913.000000
681723.000000
682548.000000
683345.000000
684150.000000
684979.000000
685806.000000
686625.000000
687427.000000
688249.000000
689074.000000
689897.000000
690720.000000
691566.000000
692434.000000
693291.000000
694129.000000
694975.000000
695824.000000
696672.000000
697536.000000
698419.000000
699288.000000
700147.000000
701042.000000
701926.000000
702778.000000
703640.000000
704528.000000
705423.000000
706293.000000
707164.000000
708031.000000
708894.000000
709736.000000
710594.000000
711510.000000
712351.000000
713138.000000
713901.000000
714680.000000
715523.000000
716437.000000
717337.000000
718177.000000
718991.000000
719822.000000
720668.000000
721509.000000
722348.000000
723237.000000
724172.000000
725126.000000
726074.000000
726988.000000
727921.000000
728852.000000
729755.000000
730630.000000
731542.000000
732458.000000
733362.000000
734262.000000
735193.000000
736142.000000
737090.000000
738054.000000
739036.000000
739977.000000
740852.000000
741678.000000
742525.000000
743374.000000
744213.000000
745024.000000
745874.000000
746744.000000
747590.000000
748407.000000
749225.000000
750062.000000
750894.000000
751708.000000
752517.000000
753307.000000
754102.000000
754859.000000
755579.000000
756303.000000
757086.000000
757956.000000
758876.000000
759755.000000
760635.000000
761552.000000
762488.000000
763427.000000
764275.000000
765080.000000
765891.000000
766724.000000
767567.000000
768434.000000
769339.000000
770275.000000
771199.000000
772126.000000
773097.000000
774045.000000
774911.000000
775779.000000
776663.000000
777548.000000
778426.000000
779318.000000
780249.000000
781160.000000
782026.000000
782909.000000
783846.000000
784805.000000
785765.000000
786743.000000
787748.000000
788668.000000
789531.000000
790371.000000
791215.000000
792083.000000
792948.000000
793843.000000
794828.000000
795837.000000
796792.000000
797677.000000
798565.000000
799470.000000
800381.000000
801279.000000
802183.000000
803083.000000
803958.000000
804824.000000
805720.000000
806635.000000
807549.000000
808490.000000
809424.000000
810250.000000
811037.000000
811827.000000
812644.000000
813476.000000
814314.000000
815120.000000
815913.000000
816752.000000
817623.000000
818473.000000
819346.000000
820265.000000
821231.000000
822193.000000
823145.000000
824135.000000
825143.000000
826146.000000
827117.000000
828026.000000
828878.000000
829738.000000
830636.000000
831538.000000
832397.000000
833309.000000
834241.000000
835135.000000
836066.000000
837018.000000
837995.000000
838943.000000
839899.000000
840823.000000
841695.000000
842499.000000
843307.000000
844122.000000
844987.000000
845845.000000
846694.000000
847570.000000
848447.000000
849312.000000
850193.000000
851094.000000
851974.000000
852852.000000
853774.000000
854730.000000
855710.000000
856599.000000
857469.000000
858354.000000
859231.000000
860111.000000
861042.000000
861997.000000
862911.000000
863778.000000
864647.000000
865558.000000
866472.000000
867347.000000
868261.000000
869211.000000
870132.000000
871043.000000
871984.000000
872883.000000
873771.000000
874714.000000
875687.000000
876621.000000
877566.000000
878512.000000
879433.000000
880367.000000
881311.000000
882216.000000
883112.000000
884020.000000
884941.000000
885837.000000
886673.000000
887506.000000
888368.000000
889219.000000
890024.000000
890857.000000
891698.000000
892509.000000
893337.000000
894205.000000
895068.000000
895903.000000
896763.000000
897627.000000
898490.000000
899359.000000
900282.000000
901231.000000
902133.000000
903016.000000
903885.000000
904721.000000
905545.000000
906395.000000
907258.000000
908131.000000
909026.000000
909976.000000
910934.000000
911836.000000
912728.000000
913674.000000
914595.000000
915467.000000
916356.000000
917245.000000
918066.000000
918886.000000
919754.000000
920620.000000
921466.000000
922368.000000
923328.000000
924262.000000
925164.000000
926102.000000
927026.000000
927905.000000
928772.000000
929645.000000
930548.000000
931448.000000
932318.000000
933229.000000
934147.000000
935043.000000
935956.000000
936876.000000
937764.000000
938628.000000
939512.000000
940420.000000
941325.000000
942206.000000
943131.000000
944079.000000
945009.000000
945967.000000
946919.000000
947777.000000
948586.000000
949419.000000
950270.000000
951134.000000
952044.000000
953033.000000
954053.000000
955038.000000
956021.000000
956951.000000
957801.000000
958622.000000
959464.000000
960302.000000
961140.000000
962048.000000
962994.000000
963928.000000
964932.000000
965964.000000
966917.000000
967851.000000
968836.000000
969831.000000
970806.000000
971757.000000
972704.000000
973621.000000
974480.000000
975350.000000
976226.000000
977064.000000
977900.000000
978780.000000
979637.000000
980475.000000
981349.000000
982225.000000
983070.000000
983918.000000
984776.000000
985616.000000
986430.000000
987276.000000
988114.000000
988938.000000
989813.000000
990701.000000
991536.000000
992368.000000
993203.000000
994062.000000
994919.000000
995752.000000
996603.000000
997466.000000
998307.000000
999133.000000
999985.000000
1000807.000000
1001614.000000
1002438.000000
1003275.000000
1004116.000000
1004955.000000
1005847.000000
1006791.000000
1007697.000000
1008540.000000
1009372.000000
1010228.000000
1011135.000000
1012046.000000
1012959.000000
1013900.000000
1014906.000000
1015904.000000
1016865.000000
1017753.000000
1018620.000000
1019469.000000
1020309.000000
1021169.000000
1022082.000000
1022992.000000
1023870.000000
1024792.000000
1025701.000000
1026575.000000
1027467.000000
1028342.000000
1029166.000000
1029947.000000
1030718.000000
1031510.000000
1032419.000000
1033358.000000
1034245.000000
1035092.000000
1035891.000000
1036680.000000
1037453.000000
1038218.000000
1038941.000000
1039645.000000
1040370.000000
1041140.000000
1041910.000000
1042732.000000
1043560.000000
1044409.000000
1045226.000000
1046051.000000
1046872.000000
1047669.000000
1048442.000000
1049233.000000
1050022.000000
1050832.000000
1051653.000000
1052507.000000
1053369.000000
1054214.000000
1055064.000000
1055948.000000
1056843.000000
1057690.000000
1058497.000000
1059324.000000
1060162.000000
1061012.000000
1061846.000000
1062703.000000
1063585.000000
1064453.000000
1065296.000000
1066158.000000
1067033.000000
1067880.000000
1068702.000000
1069546.000000
1070425.000000
1071294.000000
1072133.000000
1072989.000000
1073879.000000
1074823.000000
1075754.000000
1076726.000000
1077748.000000
1078757.000000
1079760.000000
1080750.000000
1081663.000000
1082491.000000
1083302.000000
1084166.000000
1085084.000000
1086080.000000
1087035.000000
1088026.000000
1089004.000000
1089936.000000
1090870.000000
1091802.000000
1092638.000000
1093406.000000
1094173.000000
1094956.000000
1095751.000000
1096551.000000
1097408.000000
1098282.000000
1099113.000000
1099965.000000
1100870.000000
1101753.000000
1102582.000000
1103466.000000
1104387.000000
1105264.000000
1106221.000000
1107250.000000
1108251.000000
1109301.000000
1110348.000000
1111323.000000
1112213.000000
1113091.000000
1113979.000000
1114849.000000
1115708.000000
1116591.000000
1117442.000000
1118239.000000
1119029.000000
1119901.000000
1120868.000000
1121879.000000
1122844.000000
1123737.000000
1124661.000000
1125589.000000
1126468.000000
1127309.000000
1128141.000000
1128987.000000
1129875.000000
1130841.000000
1131829.000000
1132829.000000
1133747.000000
1134583.000000
1135403.000000
1136235.000000
1137121.000000
1138055.000000
1138983.000000
1139887.000000
1140748.000000
1141580.000000
1142449.000000
1143331.000000
1144202.000000
1145088.000000
1146023.000000
1147010.000000
1148024.000000
1148999.000000
1149852.000000
1150688.000000
1151523.000000
1152394.000000
1153296.000000
1154185.000000
1155078.000000
1155978.000000
1156830.000000
1157664.000000
1158502.000000
1159339.000000
1160124.000000
1160889.000000
1161684.000000
1162466.000000
1163233.000000
1164031.000000
1164902.000000
1165782.000000
1166633.000000
1167453.000000
1168303.000000
1169147.000000
1169967.000000
1170768.000000
1171603.000000
1172463.000000
1173332.000000
1174191.000000
1175106.000000
1176044.000000
1176982.000000
1177890.000000
1178765.000000
1179646.000000
1180537.000000
1181415.000000
1182284.000000
1183203.000000
1184128.000000
1185025.000000
1185927.000000
1186869.000000
1187770.000000
1188636.000000
1189531.000000
1190452.000000
1191342.000000
1192205.000000
1193091.000000
1193994.000000
1194872.000000
