ECG (ms)
394.000000
1344.000000
2213.000000
2980.000000
3796.000000
4639.000000
5407.000000
6114.000000
6822.000000
7623.000000
8587.000000
9532.000000
10460.000000
11297.000000
12138.000000
13000.000000
13855.000000
14658.000000
15432.000000
16254.000000
17111.000000
18001.000000
18827.000000
19663.000000
20528.000000
21441.000000
22335.000000
23206.000000
24100.000000
24986.000000
25845.000000
26650.000000
27477.000000
28318.000000
29179.000000
30034.000000
30840.000000
31619.000000
32449.000000
33312.000000
34199.000000
35084.000000
35924.000000
36693.000000
37484.000000
38305.000000
39159.000000
40012.000000
40815.000000
41577.000000
42393.000000
43219.000000
44058.000000
44846.000000
45605.000000
46405.000000
47231.000000
48102.000000
48921.000000
49706.000000
50536.000000
51414.000000
52296.000000
53140.000000
53914.000000
54707.000000
55523.000000
56350.000000
57163.000000
57929.000000
58740.000000
59605.000000
60469.000000
61292.000000
62050.000000
62845.000000
63699.000000
64580.000000
65417.000000
66203.000000
67034.000000
67887.000000
68778.000000
69615.000000
70420.000000
71271.000000
72148.000000
73003.000000
73811.000000
74574.000000
75357.000000
76206.000000
77072.000000
77866.000000
78576.000000
79304.000000
80028.000000
80769.000000
81726.000000
82682.000000
83620.000000
84473.000000
85228.000000
86019.000000
86836.000000
87674.000000
88483.000000
89231.000000
89947.000000
90756.000000
91653.000000
92555.000000
93463.000000
94322.000000
95068.000000
95813.000000
96648.000000
97522.000000
98391.000000
99261.000000
100025.000000
100718.000000
101380.000000
102110.000000
103065.000000
104008.000000
104951.000000
105828.000000
106608.000000
107373.000000
108192.000000
109036.000000
109837.000000
110592.000000
111449.000000
112379.000000
113304.000000
114120.000000
114869.000000
115688.000000
116544.000000
117436.000000
118273.000000
119047.000000
119894.000000
120810.000000
121702.000000
122504.000000
123258.000000
124082.000000
124926.000000
125799.000000
126594.000000
127360.000000
128218.000000
129087.000000
129923.000000
130700.000000
131428.000000
132198.000000
133003.000000
133807.000000
134561.000000
135293.000000
136101.000000
136924.000000
137707.000000
138430.000000
139173.000000
139958.000000
140764.000000
141572.000000
142321.000000
143022.000000
143754.000000
144542.000000
145358.000000
146185.000000
146943.000000
147662.000000
148454.000000
149266.000000
150087.000000
150846.000000
151561.000000
152324.000000
153137.000000
154026.000000
154816.000000
155550.000000
156353.000000
157231.000000
158156.000000
158997.000000
159757.000000
160659.000000
161531.000000
162414.000000
163224.000000
163983.000000
164818.000000
165689.000000
166538.000000
167307.000000
168104.000000
169034.000000
169928.000000
170797.000000
171576.000000
172398.000000
173284.000000
174194.000000
175018.000000
175771.000000
176600.000000
177474.000000
178325.000000
179134.000000
179869.000000
180604.000000
181401.000000
182252.000000
183105.000000
183861.000000
184611.000000
185427.000000
186253.000000
187044.000000
187791.000000
188543.000000
189339.000000
190182.000000
190970.000000
191712.000000
192514.000000
193342.000000
194162.000000
194913.000000
195626.000000
196391.000000
197206.000000
198054.000000
198842.000000
199584.000000
200351.000000
201215.000000
202042.000000
202823.000000
203537.000000
204298.000000
205111.000000
205931.000000
206698.000000
207430.000000
208276.000000
209139.000000
209986.000000
210735.000000
211505.000000
212332.000000
213169.000000
213935.000000
214698.000000
215565.000000
216472.000000
217314.000000
218069.000000
218883.000000
219823.000000
220692.000000
221479.000000
222245.000000
223151.000000
224058.000000
224927.000000
225715.000000
226541.000000
227401.000000
228279.000000
229107.000000
229880.000000
230844.000000
231780.000000
232724.000000
233575.000000
234345.000000
235217.000000
236130.000000
236995.000000
237794.000000
238568.000000
239452.000000
240338.000000
241219.000000
241995.000000
242792.000000
243644.000000
244499.000000
245312.000000
246071.000000
246909.000000
247883.000000
248789.000000
249618.000000
250427.000000
251410.000000
252339.000000
253207.000000
253993.000000
254758.000000
255596.000000
256455.000000
257292.000000
258082.000000
258838.000000
259701.000000
260614.000000
261493.000000
262296.000000
263086.000000
263988.000000
264857.000000
265758.000000
266566.000000
267322.000000
268195.000000
269089.000000
269963.000000
270770.000000
271554.000000
272480.000000
273424.000000
274331.000000
275107.000000
275858.000000
276675.000000
277497.000000
278304.000000
279053.000000
279856.000000
280727.000000
281624.000000
282431.000000
283208.000000
284062.000000
284940.000000
285777.000000
286544.000000
287317.000000
288152.000000
289030.000000
289839.000000
290602.000000
291422.000000
292284.000000
293146.000000
293950.000000
294693.000000
295535.000000
296370.000000
297205.000000
297959.000000
298696.000000
299491.000000
300336.000000
301183.000000
301963.000000
302729.000000
303574.000000
304395.000000
305195.000000
305943.000000
306729.000000
307556.000000
308443.000000
309264.000000
310030.000000
310871.000000
311755.000000
312638.000000
313485.000000
314242.000000
315006.000000
315837.000000
316662.000000
317434.000000
318166.000000
318960.000000
319802.000000
320664.000000
321446.000000
322203.000000
323040.000000
323917.000000
324763.000000
325532.000000
326254.000000
327070.000000
327973.000000
328849.000000
329655.000000
330423.000000
331243.000000
332080.000000
332921.000000
333707.000000
334468.000000
335299.000000
336199.000000
337100.000000
337903.000000
338690.000000
339569.000000
340431.000000
341231.000000
341993.000000
342812.000000
343733.000000
344664.000000
345512.000000
346301.000000
347171.000000
348046.000000
348901.000000
349657.000000
350442.000000
351276.000000
352150.000000
353003.000000
353803.000000
354635.000000
355509.000000
356379.000000
357189.000000
357943.000000
358738.000000
359604.000000
360443.000000
361223.000000
361957.000000
362759.000000
363631.000000
364433.000000
365179.000000
365933.000000
366779.000000
367599.000000
368445.000000
369164.000000
369918.000000
370714.000000
371492.000000
372222.000000
372954.000000
373749.000000
374626.000000
375436.000000
376185.000000
376999.000000
377889.000000
378749.000000
379547.000000
380294.000000
381115.000000
382023.000000
383004.000000
383855.000000
384626.000000
385432.000000
386328.000000
387232.000000
388048.000000
388808.000000
389722.000000
390606.000000
391494.000000
392310.000000
393071.000000
393930.000000
394842.000000
395713.000000
396530.000000
397282.000000
398052.000000
398957.000000
399924.000000
400850.000000
401655.000000
402415.000000
403239.000000
404106.000000
404933.000000
405694.000000
406498.000000
407427.000000
408377.000000
409211.000000
409825.000000
410860.000000
411708.000000
412536.000000
413305.000000
414055.000000
414831.000000
415659.000000
416493.000000
417285.000000
418077.000000
418908.000000
419739.000000
420547.000000
421306.000000
422072.000000
422851.000000
423655.000000
424438.000000
425188.000000
425959.000000
426754.000000
427554.000000
428342.000000
429120.000000
429914.000000
430720.000000
431512.000000
432263.000000
432997.000000
433752.000000
434538.000000
435321.000000
436076.000000
436863.000000
437687.000000
438509.000000
439304.000000
440055.000000
440810.000000
441584.000000
442375.000000
443146.000000
443883.000000
444655.000000
445474.000000
446312.000000
447095.000000
447848.000000
448625.000000
449440.000000
450259.000000
451028.000000
451794.000000
452586.000000
453405.000000
454183.000000
454967.000000
455787.000000
456643.000000
457508.000000
458317.000000
459102.000000
459921.000000
460750.000000
461591.000000
462405.000000
463188.000000
464014.000000
464879.000000
465737.000000
466549.000000
467386.000000
468247.000000
469105.000000
469910.000000
470700.000000
471519.000000
472353.000000
473196.000000
474005.000000
474851.000000
475721.000000
476589.000000
477411.000000
478250.000000
479114.000000
479944.000000
480752.000000
481592.000000
482439.000000
483305.000000
484121.000000
484907.000000
485720.000000
486565.000000
487392.000000
488176.000000
488996.000000
489865.000000
490783.000000
491670.000000
492502.000000
493304.000000
494131.000000
494962.000000
495788.000000
496574.000000
497348.000000
498173.000000
499026.000000
499892.000000
500721.000000
501480.000000
502175.000000
502825.000000
503481.000000
504266.000000
505089.000000
505919.000000
506773.000000
507645.000000
508466.000000
509308.000000
510159.000000
511013.000000
511867.000000
512722.000000
513550.000000
514358.000000
515197.000000
516030.000000
516874.000000
517681.000000
518464.000000
519269.000000
520079.000000
520891.000000
521677.000000
522449.000000
523234.000000
524028.000000
524824.000000
525607.000000
526349.000000
527121.000000
527919.000000
528730.000000
529526.000000
530291.000000
531070.000000
531857.000000
532657.000000
533427.000000
534189.000000
534974.000000
535785.000000
536623.000000
537421.000000
538215.000000
539040.000000
539875.000000
540694.000000
541485.000000
542291.000000
543116.000000
543923.000000
544696.000000
545492.000000
546313.000000
547157.000000
547990.000000
548784.000000
549566.000000
550367.000000
551190.000000
552009.000000
552779.000000
553566.000000
554382.000000
555229.000000
556048.000000
556837.000000
557683.000000
558522.000000
559370.000000
560178.000000
560963.000000
561784.000000
562630.000000
563493.000000
564313.000000
565106.000000
565926.000000
566755.000000
567554.000000
568331.000000
569142.000000
569989.000000
570835.000000
571661.000000
572447.000000
573228.000000
574040.000000
574882.000000
575746.000000
576586.000000
577374.000000
578160.000000
578968.000000
579796.000000
580613.000000
581393.000000
582152.000000
582939.000000
583760.000000
584599.000000
585466.000000
586343.000000
587221.000000
588099.000000
588970.000000
589780.000000
590563.000000
591378.000000
592210.000000
593027.000000
593808.000000
594625.000000
595475.000000
596334.000000
597152.000000
597952.000000
598789.000000
599634.000000
600455.000000
601229.000000
602007.000000
602793.000000
603602.000000
604380.000000
605090.000000
605762.000000
606417.000000
607041.000000
607666.000000
608319.000000
608997.000000
609810.000000
610677.000000
611553.000000
612337.000000
613026.000000
613695.000000
614391.000000
615143.000000
615955.000000
616769.000000
617498.000000
618215.000000
619027.000000
619894.000000
620762.000000
621572.000000
622303.000000
623096.000000
623953.000000
624835.000000
625637.000000
626404.000000
627276.000000
628145.000000
628942.000000
629718.000000
630616.000000
631489.000000
632299.000000
633062.000000
633897.000000
634736.000000
635539.000000
636282.000000
637015.000000
637828.000000
638702.000000
639587.000000
640367.000000
641135.000000
641958.000000
642822.000000
643582.000000
644323.000000
645142.000000
645985.000000
646798.000000
647557.000000
648427.000000
649364.000000
650191.000000
650937.000000
651723.000000
652551.000000
653381.000000
654134.000000
654908.000000
655759.000000
656629.000000
657495.000000
658282.000000
659113.000000
660026.000000
660937.000000
661783.000000
662550.000000
663310.000000
664192.000000
665097.000000
665914.000000
666660.000000
667455.000000
668287.000000
669101.000000
669842.000000
670683.000000
671551.000000
672412.000000
673182.000000
673920.000000
674704.000000
675563.000000
676369.000000
677116.000000
677888.000000
678740.000000
679667.000000
680484.000000
681239.000000
682059.000000
682898.000000
683716.000000
684508.000000
685410.000000
686338.000000
687188.000000
687952.000000
688732.000000
689538.000000
690352.000000
691126.000000
691878.000000
692736.000000
693619.000000
694417.000000
695169.000000
695983.000000
696806.000000
697587.000000
698308.000000
699039.000000
699828.000000
700652.000000
701441.000000
702160.000000
702930.000000
703758.000000
704570.000000
705330.000000
706057.000000
706858.000000
707692.000000
708493.000000
709221.000000
709960.000000
710743.000000
711538.000000
712316.000000
713052.000000
713794.000000
714597.000000
715423.000000
716176.000000
716884.000000
717642.000000
718438.000000
719241.000000
719956.000000
720671.000000
721460.000000
722316.000000
723128.000000
723876.000000
724670.000000
725547.000000
726387.000000
727153.000000
727895.000000
728712.000000
729561.000000
730355.000000
731129.000000
731977.000000
732825.000000
733705.000000
734561.000000
735378.000000
736228.000000
737093.000000
737948.000000
738784.000000
739583.000000
740392.000000
741224.000000
742058.000000
742880.000000
743673.000000
744501.000000
745340.000000
746176.000000
746969.000000
747740.000000
748530.000000
749330.000000
750147.000000
750922.000000
751699.000000
752502.000000
753336.000000
754128.000000
754908.000000
755721.000000
756542.000000
757318.000000
758111.000000
758924.000000
759759.000000
760538.000000
761287.000000
762062.000000
762881.000000
763718.000000
764531.000000
765326.000000
766146.000000
766997.000000
767868.000000
768695.000000
769499.000000
770342.000000
771194.000000
772057.000000
772871.000000
773658.000000
774472.000000
775301.000000
776142.000000
776954.000000
777753.000000
778576.000000
779410.000000
780239.000000
781019.000000
781815.000000
782627.000000
783427.000000
784207.000000
784985.000000
785814.000000
786665.000000
787514.000000
788329.000000
789154.000000
790011.000000
790869.000000
791685.000000
792471.000000
793276.000000
794082.000000
794892.000000
795669.000000
796449.000000
797305.000000
798198.000000
799058.000000
799856.000000
800676.000000
801496.000000
802321.000000
803116.000000
803878.000000
804665.000000
805407.000000
806123.000000
806857.000000
807641.000000
808462.000000
809233.000000
809975.000000
810736.000000
811521.000000
812328.000000
813137.000000
813907.000000
814679.000000
815486.000000
816323.000000
817188.000000
818041.000000
818867.000000
819687.000000
820546.000000
821423.000000
822286.000000
823107.000000
823920.000000
824758.000000
825611.000000
826463.000000
827268.000000
828078.000000
828917.000000
829765.000000
830607.000000
831398.000000
832210.000000
833048.000000
833896.000000
834716.000000
835509.000000
836333.000000
837163.000000
837990.000000
838800.000000
839604.000000
840488.000000
841385.000000
842250.000000
843062.000000
843870.000000
844705.000000
845563.000000
846389.000000
847196.000000
848041.000000
848930.000000
849779.000000
850620.000000
851498.000000
852364.000000
853189.000000
853972.000000
854747.000000
855530.000000
856333.000000
857115.000000
857878.000000
858652.000000
859451.000000
860267.000000
861043.000000
861801.000000
862573.000000
863370.000000
864180.000000
865000.000000
865787.000000
866604.000000
867421.000000
868236.000000
869021.000000
869779.000000
870559.000000
871369.000000
872180.000000
872974.000000
873743.000000
874529.000000
875332.000000
876150.000000
876936.000000
877709.000000
878501.000000
879302.000000
880090.000000
880843.000000
881561.000000
882311.000000
883132.000000
883975.000000
884815.000000
885652.000000
886459.000000
887203.000000
887882.000000
888526.000000
889197.000000
890063.000000
890890.000000
891744.000000
892620.000000
893478.000000
894274.000000
895079.000000
895922.000000
896795.000000
897686.000000
898567.000000
899420.000000
900305.000000
901179.000000
902048.000000
902869.000000
903671.000000
904481.000000
905298.000000
906100.000000
906880.000000
907671.000000
908496.000000
909339.000000
910142.000000
910932.000000
911750.000000
912575.000000
913405.000000
914199.000000
914993.000000
915792.000000
916593.000000
917400.000000
918173.000000
918961.000000
919773.000000
