ECG (ms)
838.000000
1647.000000
2401.000000
3118.000000
3814.000000
4502.000000
5191.000000
5908.000000
6734.000000
7828.000000
8901.000000
9952.000000
10954.000000
11889.000000
12700.000000
13430.000000
14116.000000
14786.000000
15500.000000
16322.000000
17124.000000
17902.000000
18724.000000
19781.000000
20853.000000
21883.000000
22870.000000
23817.000000
24712.000000
25551.000000
26332.000000
27109.000000
27996.000000
29057.000000
30137.000000
31194.000000
32233.000000
33235.000000
34164.000000
35000.000000
35759.000000
36488.000000
37228.000000
38047.000000
39150.000000
40254.000000
41310.000000
42328.000000
43335.000000
44292.000000
45179.000000
45988.000000
46774.000000
47628.000000
48655.000000
49694.000000
50701.000000
51669.000000
52578.000000
53422.000000
54201.000000
54947.000000
55695.000000
56494.000000
57522.000000
58626.000000
59704.000000
60762.000000
61779.000000
62763.000000
63676.000000
64534.000000
65324.000000
66092.000000
66893.000000
67924.000000
68991.000000
70059.000000
71075.000000
72047.000000
72957.000000
73799.000000
74602.000000
75371.000000
76116.000000
76860.000000
77632.000000
78596.000000
79636.000000
80673.000000
81682.000000
82579.000000
83387.000000
84123.000000
84828.000000
85524.000000
86222.000000
86917.000000
87654.000000
88446.000000
89481.000000
90521.000000
91549.000000
92512.000000
93435.000000
94253.000000
95018.000000
95746.000000
96446.000000
97140.000000
97856.000000
98710.000000
99762.000000
100766.000000
101707.000000
102585.000000
103397.000000
104149.000000
104860.000000
105556.000000
106247.000000
106973.000000
107932.000000
108977.000000
109984.000000
110957.000000
111889.000000
112738.000000
113516.000000
114248.000000
114961.000000
115667.000000
116377.000000
117105.000000
117912.000000
118841.000000
119764.000000
120628.000000
121462.000000
122260.000000
123018.000000
123753.000000
124468.000000
125169.000000
125868.000000
126585.000000
127360.000000
128192.000000
129018.000000
129830.000000
130625.000000
131393.000000
132126.000000
132837.000000
133533.000000
134220.000000
134906.000000
135621.000000
136419.000000
137283.000000
138178.000000
139038.000000
139821.000000
140573.000000
141302.000000
142020.000000
142722.000000
143408.000000
144082.000000
144742.000000
145412.000000
146127.000000
146898.000000
147770.000000
148690.000000
149532.000000
150286.000000
150999.000000
151726.000000
152491.000000
153294.000000
154096.000000
154849.000000
155578.000000
156296.000000
157019.000000
157775.000000
158639.000000
159608.000000
160600.000000
161576.000000
162512.000000
163424.000000
164305.000000
165125.000000
165887.000000
166629.000000
167395.000000
168284.000000
169290.000000
170273.000000
171220.000000
172135.000000
172993.000000
173792.000000
174558.000000
175311.000000
176057.000000
176866.000000
177892.000000
178956.000000
179982.000000
180975.000000
181913.000000
182792.000000
183580.000000
184339.000000
185114.000000
186027.000000
187066.000000
188113.000000
189109.000000
190055.000000
190943.000000
191763.000000
192555.000000
193345.000000
194228.000000
195320.000000
196388.000000
197402.000000
198398.000000
199348.000000
200264.000000
201141.000000
201952.000000
202762.000000
203621.000000
204686.000000
205766.000000
206784.000000
207768.000000
208727.000000
209629.000000
210461.000000
211244.000000
211996.000000
212734.000000
213511.000000
214415.000000
215227.000000
216017.000000
217106.000000
218176.000000
219154.000000
220048.000000
220855.000000
221603.000000
222319.000000
223026.000000
223766.000000
224908.000000
226019.000000
227090.000000
228126.000000
229149.000000
230176.000000
231150.000000
232108.000000
232960.000000
233733.000000
234480.000000
235230.000000
236027.000000
237119.000000
238217.000000
239277.000000
240296.000000
241284.000000
242246.000000
243182.000000
244063.000000
244852.000000
245604.000000
246335.000000
247051.000000
247749.000000
248441.000000
249301.000000
250369.000000
251401.000000
252393.000000
253328.000000
254149.000000
254915.000000
255657.000000
256400.000000
257177.000000
258069.000000
259080.000000
260050.000000
261002.000000
261891.000000
262732.000000
263521.000000
264272.000000
264990.000000
265693.000000
266395.000000
267116.000000
267873.000000
268728.000000
269745.000000
270769.000000
271738.000000
272639.000000
273470.000000
274243.000000
274977.000000
275688.000000
276390.000000
277095.000000
277818.000000
278601.000000
279607.000000
280639.000000
281679.000000
282693.000000
283623.000000
284465.000000
285275.000000
286093.000000
286905.000000
287679.000000
288418.000000
289149.000000
289891.000000
290664.000000
291540.000000
292555.000000
293572.000000
294496.000000
295359.000000
296172.000000
296951.000000
297800.000000
298807.000000
299838.000000
300829.000000
301726.000000
302520.000000
303270.000000
304017.000000
304772.000000
305580.000000
306609.000000
307615.000000
308571.000000
309508.000000
310441.000000
311362.000000
312216.000000
312971.000000
313689.000000
314404.000000
315121.000000
315855.000000
316589.000000
317388.000000
318430.000000
319516.000000
320612.000000
321687.000000
322723.000000
323724.000000
324665.000000
325505.000000
326280.000000
327029.000000
327785.000000
328611.000000
329713.000000
330822.000000
331872.000000
332891.000000
333872.000000
334785.000000
335630.000000
336410.000000
337169.000000
337977.000000
338953.000000
339996.000000
341047.000000
342044.000000
342987.000000
343848.000000
344653.000000
345427.000000
346197.000000
347004.000000
348097.000000
349245.000000
350356.000000
351419.000000
352444.000000
353415.000000
354322.000000
355189.000000
356019.000000
356819.000000
357620.000000
358458.000000
359533.000000
360670.000000
361798.000000
362898.000000
363938.000000
364928.000000
365842.000000
366681.000000
367462.000000
368226.000000
369023.000000
370157.000000
371284.000000
372362.000000
373399.000000
374393.000000
375356.000000
376270.000000
377126.000000
377931.000000
378721.000000
379502.000000
380285.000000
381139.000000
382166.000000
383229.000000
384276.000000
385289.000000
386264.000000
387239.000000
388143.000000
388959.000000
389708.000000
390440.000000
391193.000000
392185.000000
393294.000000
394367.000000
395290.000000
396070.000000
396821.000000
397607.000000
398504.000000
399407.000000
400265.000000
401051.000000
401821.000000
402627.000000
403541.000000
404546.000000
405520.000000
406475.000000
407404.000000
408306.000000
409209.000000
410037.000000
410808.000000
411543.000000
412264.000000
413007.000000
413852.000000
414920.000000
415964.000000
416930.000000
417855.000000
418702.000000
419485.000000
420238.000000
420978.000000
421744.000000
422630.000000
423694.000000
424720.000000
425703.000000
426652.000000
427527.000000
428320.000000
429069.000000
429797.000000
430521.000000
431290.000000
432308.000000
433341.000000
434349.000000
435292.000000
436173.000000
436999.000000
437774.000000
438526.000000
439253.000000
439973.000000
440695.000000
441435.000000
442237.000000
443127.000000
444083.000000
444990.000000
445837.000000
446641.000000
447405.000000
448149.000000
448875.000000
449580.000000
450273.000000
450986.000000
451759.000000
452662.000000
453635.000000
454589.000000
455462.000000
456280.000000
457049.000000
457791.000000
458535.000000
459343.000000
460097.000000
460811.000000
461509.000000
462286.000000
463140.000000
464063.000000
464994.000000
465843.000000
466605.000000
467341.000000
468081.000000
468880.000000
469795.000000
470786.000000
471738.000000
472664.000000
473559.000000
474444.000000
475308.000000
476127.000000
476896.000000
477672.000000
478494.000000
479443.000000
480458.000000
481457.000000
482435.000000
483357.000000
484191.000000
484955.000000
485707.000000
486501.000000
487541.000000
488578.000000
489624.000000
490614.000000
491560.000000
492502.000000
493434.000000
494366.000000
495230.000000
496061.000000
496825.000000
497557.000000
498271.000000
498973.000000
499722.000000
500739.000000
501824.000000
502898.000000
503960.000000
505006.000000
506000.000000
506937.000000
507835.000000
508645.000000
509407.000000
510154.000000
510898.000000
511672.000000
512607.000000
513635.000000
514640.000000
515622.000000
516603.000000
517527.000000
518403.000000
519266.000000
520100.000000
520901.000000
521701.000000
522599.000000
523629.000000
524683.000000
525721.000000
526707.000000
527659.000000
528558.000000
529413.000000
530269.000000
531132.000000
532070.000000
533099.000000
534184.000000
535245.000000
536310.000000
537345.000000
538326.000000
539280.000000
540248.000000
541242.000000
542257.000000
543242.000000
544229.000000
545236.000000
546245.000000
547226.000000
548201.000000
549140.000000
550046.000000
550933.000000
551792.000000
552600.000000
553382.000000
554180.000000
555173.000000
556238.000000
557302.000000
558295.000000
559248.000000
560100.000000
560881.000000
561680.000000
562636.000000
563710.000000
564735.000000
565721.000000
566650.000000
567587.000000
568609.000000
569605.000000
570594.000000
571436.000000
572177.000000
572905.000000
573635.000000
574381.000000
575105.000000
575815.000000
576520.000000
577270.000000
578259.000000
579272.000000
580276.000000
581222.000000
582067.000000
582888.000000
583707.000000
584555.000000
585412.000000
586314.000000
587205.000000
588134.000000
589118.000000
590103.000000
591008.000000
591824.000000
592636.000000
593517.000000
594439.000000
595436.000000
596411.000000
597354.000000
598305.000000
599259.000000
600229.000000
601179.000000
602070.000000
602876.000000
603650.000000
604499.000000
605566.000000
606659.000000
607713.000000
608662.000000
609512.000000
610294.000000
611030.000000
611736.000000
612490.000000
613601.000000
614578.000000
615433.000000
616319.000000
617398.000000
618487.000000
619536.000000
620492.000000
621318.000000
622077.000000
622813.000000
623557.000000
624449.000000
625618.000000
626747.000000
627843.000000
628881.000000
629805.000000
630617.000000
631386.000000
632170.000000
633246.000000
634384.000000
635465.000000
636534.000000
637526.000000
638454.000000
639301.000000
640097.000000
640909.000000
641713.000000
642483.000000
643238.000000
644002.000000
644904.000000
645978.000000
647036.000000
648082.000000
649071.000000
650012.000000
650933.000000
651811.000000
652687.000000
653587.000000
654533.000000
655499.000000
656436.000000
657337.000000
658216.000000
659055.000000
659849.000000
660615.000000
661357.000000
662113.000000
663063.000000
664131.000000
665181.000000
666207.000000
667187.000000
668151.000000
669101.000000
670041.000000
670963.000000
671931.000000
672928.000000
673930.000000
674902.000000
675933.000000
676982.000000
677976.000000
678955.000000
679893.000000
680843.000000
681756.000000
682724.000000
683812.000000
684963.000000
686107.000000
687191.000000
688190.000000
689101.000000
689959.000000
690937.000000
691966.000000
692970.000000
693894.000000
694764.000000
695667.000000
696787.000000
697852.000000
698913.000000
699912.000000
700835.000000
701678.000000
702497.000000
703390.000000
704513.000000
705605.000000
706670.000000
707709.000000
708743.000000
709555.000000
710271.000000
710952.000000
711617.000000
712387.000000
713480.000000
714542.000000
715602.000000
716623.000000
717635.000000
718544.000000
719313.000000
720036.000000
720722.000000
721397.000000
722105.000000
723048.000000
724080.000000
725094.000000
726078.000000
727011.000000
727891.000000
728671.000000
729403.000000
730108.000000
730775.000000
731437.000000
732119.000000
732883.000000
733755.000000
734654.000000
735536.000000
736368.000000
737166.000000
737958.000000
738703.000000
739416.000000
740109.000000
740773.000000
741430.000000
742105.000000
742841.000000
743725.000000
744661.000000
745588.000000
746469.000000
747304.000000
748092.000000
748832.000000
749541.000000
750227.000000
750889.000000
751556.000000
752254.000000
753041.000000
753990.000000
754984.000000
755952.000000
756872.000000
757744.000000
758530.000000
759260.000000
759961.000000
760632.000000
761289.000000
761963.000000
762742.000000
763700.000000
764738.000000
765764.000000
766727.000000
767646.000000
768461.000000
769204.000000
769914.000000
770600.000000
771272.000000
771968.000000
772773.000000
773675.000000
774622.000000
775562.000000
776460.000000
777299.000000
778098.000000
778837.000000
779543.000000
780229.000000
780891.000000
781554.000000
782266.000000
783074.000000
784017.000000
785008.000000
785961.000000
786866.000000
787709.000000
788461.000000
789173.000000
789861.000000
790521.000000
791163.000000
791809.000000
792499.000000
793348.000000
794321.000000
795308.000000
796313.000000
797287.000000
798213.000000
798987.000000
799706.000000
800389.000000
801057.000000
801738.000000
802520.000000
803513.000000
804546.000000
805552.000000
806532.000000
807502.000000
808338.000000
809085.000000
809802.000000
810492.000000
811164.000000
811856.000000
812640.000000
813603.000000
814638.000000
815651.000000
816652.000000
817623.000000
818457.000000
819205.000000
819920.000000
820606.000000
821288.000000
822033.000000
823070.000000
824112.000000
825132.000000
826135.000000
827139.000000
828011.000000
828775.000000
829497.000000
830192.000000
830870.000000
831561.000000
832368.000000
833371.000000
834379.000000
835363.000000
836331.000000
837293.000000
838164.000000
838930.000000
839657.000000
840364.000000
841048.000000
841749.000000
842555.000000
843542.000000
844558.000000
845554.000000
846526.000000
847426.000000
848206.000000
848934.000000
849633.000000
850310.000000
850984.000000
851700.000000
852529.000000
853497.000000
854501.000000
855504.000000
856518.000000
857495.000000
858312.000000
859043.000000
859733.000000
860391.000000
861050.000000
861780.000000
862882.000000
863927.000000
864953.000000
865965.000000
866986.000000
867934.000000
868742.000000
869479.000000
870186.000000
870871.000000
871586.000000
872456.000000
873485.000000
874543.000000
875572.000000
876581.000000
877552.000000
878420.000000
879182.000000
879905.000000
880606.000000
881294.000000
882038.000000
883062.000000
884086.000000
885090.000000
886046.000000
886977.000000
887874.000000
888667.000000
889412.000000
890136.000000
890856.000000
891608.000000
892536.000000
893590.000000
894611.000000
895612.000000
896602.000000
897567.000000
898420.000000
899176.000000
899896.000000
900592.000000
901305.000000
902295.000000
903405.000000
904519.000000
905596.000000
906627.000000
907624.000000
908483.000000
909237.000000
909964.000000
910669.000000
911376.000000
912160.000000
913098.000000
914092.000000
915068.000000
916020.000000
916945.000000
917861.000000
918760.000000
919664.000000
920514.000000
921287.000000
922035.000000
922811.000000
923728.000000
924730.000000
925683.000000
926491.000000
927232.000000
927953.000000
928678.000000
929399.000000
930119.000000
930830.000000
931560.000000
932419.000000
933395.000000
