ECG (ms)
738.000000
1582.000000
2381.000000
3151.000000
3903.000000
4654.000000
5410.000000
6178.000000
6944.000000
7701.000000
8451.000000
9226.000000
10016.000000
10787.000000
11542.000000
12292.000000
13064.000000
13845.000000
14633.000000
15419.000000
16199.000000
16984.000000
17784.000000
18597.000000
19407.000000
20197.000000
20979.000000
21746.000000
22522.000000
23297.000000
24067.000000
24841.000000
25599.000000
26368.000000
27170.000000
27984.000000
28789.000000
29569.000000
30353.000000
31158.000000
31974.000000
32781.000000
33582.000000
34377.000000
35169.000000
35994.000000
36841.000000
37631.000000
38415.000000
39200.000000
39987.000000
40783.000000
41563.000000
42353.000000
43166.000000
44019.000000
44845.000000
45647.000000
46445.000000
47263.000000
48089.000000
48868.000000
49647.000000
50412.000000
51198.000000
51991.000000
52794.000000
53577.000000
54348.000000
55112.000000
55895.000000
56721.000000
57558.000000
58392.000000
59224.000000
60040.000000
60836.000000
61602.000000
62359.000000
63138.000000
63978.000000
64830.000000
65684.000000
66523.000000
67365.000000
68247.000000
69085.000000
69891.000000
70681.000000
71464.000000
72235.000000
72987.000000
73740.000000
74495.000000
75294.000000
76116.000000
76935.000000
77738.000000
78573.000000
79395.000000
80207.000000
81005.000000
81823.000000
82657.000000
83503.000000
84333.000000
85166.000000
85968.000000
86754.000000
87553.000000
88365.000000
89184.000000
90003.000000
90842.000000
91709.000000
92574.000000
93391.000000
94218.000000
95039.000000
95863.000000
96673.000000
97483.000000
98322.000000
99159.000000
99982.000000
100800.000000
101642.000000
102485.000000
103301.000000
104113.000000
104945.000000
105796.000000
106621.000000
107419.000000
108217.000000
109025.000000
109837.000000
110653.000000
111458.000000
112258.000000
113092.000000
113914.000000
114725.000000
115519.000000
116343.000000
117168.000000
117986.000000
118793.000000
119604.000000
120449.000000
121281.000000
122107.000000
122913.000000
123700.000000
124507.000000
125328.000000
126165.000000
126973.000000
127782.000000
128598.000000
129427.000000
130254.000000
131062.000000
131865.000000
132671.000000
133457.000000
134233.000000
135018.000000
135839.000000
136688.000000
137523.000000
138326.000000
139136.000000
139972.000000
140823.000000
141659.000000
142477.000000
143283.000000
144105.000000
144919.000000
145723.000000
146534.000000
147333.000000
148139.000000
148955.000000
149783.000000
150590.000000
151375.000000
152163.000000
152988.000000
153835.000000
154664.000000
155499.000000
156322.000000
157143.000000
157965.000000
158761.000000
159561.000000
160347.000000
161134.000000
161913.000000
162708.000000
163512.000000
164331.000000
165152.000000
165957.000000
166783.000000
167609.000000
168432.000000
169247.000000
170079.000000
170932.000000
171753.000000
172575.000000
173410.000000
174246.000000
175050.000000
175851.000000
176655.000000
177476.000000
178277.000000
179070.000000
179860.000000
180690.000000
181523.000000
182351.000000
183189.000000
184044.000000
184903.000000
185762.000000
186599.000000
187429.000000
188261.000000
189087.000000
189891.000000
190694.000000
191523.000000
192380.000000
193219.000000
194028.000000
194825.000000
195625.000000
196430.000000
197231.000000
198017.000000
198812.000000
199632.000000
200432.000000
201223.000000
202018.000000
202817.000000
203623.000000
204422.000000
205216.000000
206039.000000
206853.000000
207649.000000
208449.000000
209260.000000
210058.000000
210856.000000
211665.000000
212490.000000
213302.000000
214109.000000
214911.000000
215713.000000
216533.000000
217341.000000
218133.000000
218915.000000
219714.000000
220513.000000
221300.000000
222084.000000
222880.000000
223690.000000
224476.000000
225269.000000
226076.000000
226886.000000
227701.000000
228513.000000
229325.000000
230141.000000
230966.000000
231782.000000
232596.000000
233406.000000
234228.000000
235055.000000
235868.000000
236667.000000
237476.000000
238306.000000
239131.000000
239942.000000
240742.000000
241542.000000
242358.000000
243181.000000
244001.000000
244810.000000
245611.000000
246405.000000
247201.000000
247997.000000
248801.000000
249601.000000
250401.000000
251194.000000
251974.000000
252757.000000
253553.000000
254356.000000
255151.000000
255944.000000
256745.000000
257551.000000
258366.000000
259172.000000
259978.000000
260808.000000
261651.000000
262466.000000
263283.000000
264086.000000
264896.000000
265691.000000
266481.000000
267273.000000
268078.000000
268884.000000
269680.000000
270480.000000
271311.000000
272146.000000
272983.000000
273795.000000
274627.000000
275486.000000
276342.000000
277161.000000
277987.000000
278833.000000
279687.000000
280522.000000
281343.000000
282175.000000
283028.000000
283880.000000
284689.000000
285494.000000
286301.000000
287125.000000
287948.000000
288759.000000
289572.000000
290394.000000
291238.000000
292065.000000
292899.000000
293752.000000
294602.000000
295429.000000
296251.000000
297092.000000
297932.000000
298763.000000
299589.000000
300434.000000
301303.000000
302163.000000
303014.000000
303871.000000
304703.000000
305546.000000
306401.000000
307239.000000
308069.000000
308913.000000
309751.000000
310580.000000
311405.000000
312272.000000
313135.000000
313975.000000
314808.000000
315646.000000
316483.000000
317298.000000
318091.000000
318881.000000
319654.000000
320448.000000
321253.000000
322050.000000
322841.000000
323655.000000
324480.000000
325321.000000
326158.000000
326980.000000
327791.000000
328614.000000
329446.000000
330254.000000
331069.000000
331884.000000
332704.000000
333533.000000
334346.000000
335144.000000
335945.000000
336756.000000
337576.000000
338370.000000
339157.000000
339956.000000
340759.000000
341569.000000
342373.000000
343205.000000
344039.000000
344869.000000
345692.000000
346500.000000
347331.000000
348174.000000
348994.000000
349808.000000
350632.000000
351475.000000
352304.000000
353142.000000
353963.000000
354817.000000
355672.000000
356513.000000
357368.000000
358224.000000
359067.000000
359914.000000
360741.000000
361563.000000
362391.000000
363233.000000
364084.000000
364914.000000
365725.000000
366543.000000
367362.000000
368161.000000
368951.000000
369763.000000
370572.000000
371385.000000
372183.000000
372978.000000
373780.000000
374581.000000
375385.000000
376205.000000
377044.000000
377886.000000
378706.000000
379519.000000
380353.000000
381206.000000
382058.000000
382887.000000
383720.000000
384572.000000
385422.000000
386251.000000
387079.000000
387919.000000
388763.000000
389614.000000
390452.000000
391307.000000
392153.000000
392989.000000
393809.000000
394636.000000
395466.000000
396322.000000
397173.000000
398000.000000
398819.000000
399635.000000
400461.000000
401284.000000
402107.000000
402912.000000
403729.000000
404579.000000
405469.000000
406336.000000
407159.000000
408010.000000
408870.000000
409700.000000
410519.000000
411336.000000
412173.000000
412993.000000
413820.000000
414646.000000
415474.000000
416306.000000
417127.000000
417946.000000
418797.000000
419652.000000
420489.000000
421320.000000
422171.000000
423016.000000
423860.000000
424679.000000
425485.000000
426289.000000
427108.000000
427928.000000
428753.000000
429558.000000
430377.000000
431205.000000
432034.000000
432851.000000
433659.000000
434484.000000
435329.000000
436173.000000
437001.000000
437817.000000
438631.000000
439441.000000
440258.000000
441050.000000
441860.000000
442677.000000
443486.000000
444294.000000
445096.000000
445888.000000
446675.000000
447465.000000
448272.000000
449092.000000
449893.000000
450683.000000
451489.000000
452310.000000
453125.000000
453944.000000
454748.000000
455525.000000
456318.000000
457136.000000
457957.000000
458769.000000
459575.000000
460395.000000
461216.000000
462051.000000
462871.000000
463688.000000
464519.000000
465358.000000
466174.000000
466965.000000
467743.000000
468524.000000
469353.000000
470187.000000
471004.000000
471844.000000
472714.000000
473588.000000
474460.000000
475314.000000
476144.000000
477009.000000
477890.000000
478761.000000
479604.000000
480447.000000
481334.000000
482209.000000
483069.000000
483903.000000
484730.000000
485608.000000
486520.000000
487387.000000
488235.000000
489095.000000
489966.000000
490801.000000
491634.000000
492478.000000
493324.000000
494149.000000
494963.000000
495796.000000
496656.000000
497520.000000
498356.000000
499188.000000
500027.000000
500879.000000
501699.000000
502518.000000
503312.000000
504130.000000
504970.000000
505794.000000
506607.000000
507441.000000
508302.000000
509143.000000
509985.000000
510832.000000
511699.000000
512577.000000
513427.000000
514258.000000
515096.000000
515938.000000
516770.000000
517587.000000
518400.000000
519202.000000
520007.000000
520831.000000
521660.000000
522490.000000
523313.000000
524138.000000
524965.000000
525783.000000
526592.000000
527399.000000
528229.000000
529074.000000
529912.000000
530741.000000
531570.000000
532407.000000
533251.000000
534084.000000
534903.000000
535706.000000
536528.000000
537350.000000
538168.000000
538963.000000
539756.000000
540560.000000
541368.000000
542169.000000
542965.000000
543766.000000
544558.000000
545358.000000
546167.000000
546973.000000
547782.000000
548613.000000
549466.000000
550303.000000
551126.000000
551985.000000
552847.000000
553701.000000
554569.000000
555461.000000
556378.000000
557283.000000
558171.000000
559037.000000
559902.000000
560770.000000
561628.000000
562488.000000
563370.000000
564281.000000
565162.000000
566006.000000
566875.000000
567770.000000
568673.000000
569529.000000
570360.000000
571217.000000
572072.000000
572909.000000
573752.000000
574603.000000
575480.000000
576375.000000
577233.000000
578071.000000
578926.000000
579779.000000
580596.000000
581428.000000
582257.000000
583096.000000
583925.000000
584774.000000
585641.000000
586511.000000
587376.000000
588218.000000
589055.000000
589915.000000
590785.000000
591654.000000
592521.000000
593357.000000
594200.000000
595052.000000
595912.000000
596764.000000
597613.000000
598460.000000
599294.000000
600135.000000
600972.000000
601814.000000
602671.000000
