ECG (ms)
765.000000
1847.000000
2865.000000
3921.000000
4985.000000
6004.000000
7095.000000
8171.000000
9282.000000
10364.000000
11390.000000
12391.000000
13456.000000
14521.000000
15581.000000
16585.000000
17655.000000
18727.000000
19799.000000
20807.000000
21822.000000
22896.000000
23964.000000
24988.000000
25997.000000
27085.000000
28191.000000
29277.000000
30311.000000
31307.000000
32331.000000
33399.000000
34470.000000
35528.000000
36531.000000
37538.000000
38598.000000
39646.000000
40688.000000
41699.000000
42689.000000
43743.000000
44843.000000
45963.000000
46979.000000
47965.000000
48939.000000
49895.000000
50860.000000
51899.000000
52974.000000
54052.000000
55094.000000
56089.000000
57074.000000
58094.000000
59170.000000
60229.000000
61259.000000
62248.000000
63251.000000
64285.000000
65332.000000
66358.000000
67391.000000
68353.000000
69306.000000
70199.000000
71079.000000
72076.000000
73306.000000
74395.000000
75520.000000
76590.000000
77659.000000
78747.000000
79844.000000
80880.000000
81883.000000
82927.000000
83950.000000
84973.000000
85995.000000
87023.000000
87995.000000
88977.000000
89988.000000
90917.000000
91887.000000
92887.000000
93848.000000
94885.000000
95953.000000
96992.000000
97963.000000
98904.000000
99892.000000
100920.000000
101968.000000
103017.000000
104060.000000
105047.000000
106026.000000
107025.000000
108076.000000
109163.000000
110242.000000
111339.000000
112389.000000
113379.000000
114387.000000
115414.000000
116487.000000
117585.000000
118663.000000
119697.000000
120696.000000
121699.000000
122760.000000
123848.000000
124939.000000
125987.000000
126954.000000
127924.000000
128885.000000
129847.000000
130856.000000
131918.000000
132960.000000
134002.000000
135035.000000
136034.000000
136996.000000
137950.000000
138984.000000
140056.000000
141135.000000
142225.000000
143225.000000
144200.000000
145225.000000
146318.000000
147403.000000
148470.000000
149507.000000
150462.000000
151412.000000
152405.000000
153481.000000
154566.000000
155647.000000
156680.000000
157668.000000
158673.000000
159741.000000
160824.000000
161905.000000
162961.000000
164000.000000
165031.000000
166067.000000
167117.000000
168105.000000
169087.000000
170150.000000
171236.000000
172333.000000
173363.000000
174349.000000
175379.000000
176471.000000
177519.000000
178509.000000
179462.000000
180459.000000
181543.000000
182607.000000
183665.000000
184663.000000
185706.000000
186741.000000
187765.000000
188736.000000
189697.000000
190690.000000
191803.000000
192912.000000
193891.000000
194878.000000
195852.000000
196785.000000
197742.000000
198750.000000
199784.000000
200784.000000
201762.000000
202664.000000
203533.000000
204397.000000
205367.000000
206590.000000
207735.000000
208822.000000
209800.000000
210765.000000
211983.000000
213194.000000
214303.000000
215281.000000
216175.000000
217068.000000
218036.000000
219155.000000
220101.000000
221056.000000
222014.000000
223102.000000
224172.000000
225255.000000
226327.000000
227372.000000
228344.000000
229266.000000
230196.000000
231170.000000
232233.000000
233189.000000
234269.000000
235203.000000
236183.000000
237222.000000
238256.000000
239295.000000
240267.000000
241247.000000
242282.000000
243338.000000
244384.000000
245413.000000
246391.000000
247358.000000
248367.000000
249430.000000
250503.000000
251559.000000
252568.000000
253552.000000
254588.000000
255679.000000
256752.000000
257847.000000
258826.000000
259780.000000
260728.000000
261610.000000
262642.000000
263823.000000
264912.000000
265936.000000
266962.000000
268053.000000
269183.000000
270252.000000
271218.000000
272199.000000
273139.000000
273980.000000
274912.000000
276127.000000
277167.000000
278193.000000
279167.000000
280114.000000
281073.000000
282068.000000
283067.000000
284041.000000
284963.000000
285877.000000
286847.000000
287902.000000
288956.000000
290000.000000
291039.000000
292011.000000
292960.000000
293940.000000
294953.000000
295968.000000
296987.000000
298000.000000
298971.000000
299932.000000
300944.000000
301987.000000
303025.000000
304061.000000
305113.000000
306138.000000
307129.000000
308097.000000
309113.000000
310179.000000
311255.000000
312344.000000
313367.000000
314370.000000
315396.000000
316507.000000
317660.000000
318701.000000
319736.000000
320719.000000
321667.000000
322678.000000
323833.000000
324858.000000
325900.000000
326915.000000
327898.000000
328904.000000
329973.000000
331055.000000
332135.000000
333157.000000
334125.000000
335116.000000
336169.000000
337226.000000
338298.000000
339337.000000
340303.000000
341282.000000
342334.000000
343403.000000
344448.000000
345495.000000
346467.000000
347428.000000
348487.000000
349554.000000
350455.000000
351411.000000
352371.000000
353338.000000
354435.000000
355557.000000
356640.000000
357655.000000
358607.000000
359532.000000
360543.000000
361736.000000
362767.000000
363814.000000
364817.000000
365810.000000
366822.000000
367897.000000
368977.000000
370054.000000
371092.000000
372102.000000
373117.000000
374153.000000
375215.000000
376290.000000
377346.000000
378362.000000
379357.000000
380384.000000
381486.000000
382635.000000
383737.000000
384796.000000
385781.000000
386757.000000
387799.000000
388930.000000
389927.000000
390889.000000
391844.000000
392799.000000
393761.000000
394803.000000
395904.000000
396977.000000
398024.000000
399034.000000
400007.000000
400995.000000
402034.000000
403084.000000
404124.000000
405126.000000
406089.000000
407080.000000
408141.000000
409230.000000
410295.000000
411315.000000
412290.000000
413275.000000
414318.000000
415371.000000
416434.000000
417478.000000
418447.000000
419451.000000
420417.000000
421485.000000
422618.000000
423734.000000
424833.000000
425853.000000
426765.000000
427639.000000
428642.000000
429799.000000
431069.000000
432148.000000
433160.000000
434076.000000
435020.000000
436189.000000
437333.000000
438432.000000
439461.000000
440385.000000
441269.000000
442181.000000
443378.000000
444539.000000
445642.000000
446688.000000
447627.000000
448513.000000
449441.000000
450634.000000
451762.000000
452794.000000
453808.000000
454793.000000
455737.000000
456704.000000
457736.000000
458784.000000
459836.000000
460869.000000
461891.000000
462887.000000
463871.000000
464899.000000
465966.000000
467016.000000
468059.000000
469107.000000
470123.000000
471199.000000
472195.000000
473128.000000
474012.000000
475203.000000
476275.000000
477364.000000
478437.000000
479473.000000
480489.000000
481576.000000
482662.000000
483677.000000
484786.000000
485774.000000
486759.000000
487791.000000
488842.000000
489829.000000
490851.000000
491915.000000
492950.000000
493931.000000
494918.000000
495919.000000
496988.000000
498030.000000
499048.000000
500076.000000
501078.000000
502000.000000
502877.000000
503774.000000
504783.000000
505941.000000
507178.000000
508266.000000
509241.000000
510164.000000
511117.000000
512175.000000
513233.000000
514290.000000
515259.000000
516192.000000
517155.000000
518166.000000
519137.000000
520085.000000
521016.000000
521920.000000
522813.000000
523796.000000
524894.000000
526001.000000
526996.000000
527910.000000
528804.000000
529750.000000
530764.000000
531811.000000
532745.000000
533814.000000
534723.000000
535660.000000
536671.000000
537680.000000
538642.000000
539573.000000
540560.000000
541585.000000
542715.000000
543699.000000
544660.000000
545622.000000
546645.000000
547676.000000
548708.000000
549688.000000
550641.000000
551583.000000
552575.000000
553642.000000
554735.000000
555786.000000
556777.000000
557744.000000
558743.000000
559801.000000
560844.000000
561879.000000
562866.000000
563838.000000
564840.000000
565926.000000
567005.000000
568095.000000
569108.000000
570096.000000
571087.000000
572147.000000
573245.000000
574191.000000
575157.000000
576131.000000
577041.000000
577926.000000
578879.000000
580021.000000
581155.000000
582169.000000
583166.000000
584126.000000
585062.000000
586042.000000
587063.000000
588086.000000
589132.000000
590126.000000
591084.000000
592015.000000
592987.000000
594032.000000
595085.000000
596120.000000
597113.000000
598071.000000
599026.000000
600027.000000
601040.000000
602066.000000
603127.000000
604166.000000
605146.000000
606096.000000
607080.000000
608122.000000
609193.000000
610206.000000
611151.000000
612124.000000
613070.000000
613984.000000
614880.000000
615973.000000
616997.000000
618010.000000
619031.000000
620012.000000
620963.000000
621908.000000
622894.000000
623996.000000
625092.000000
626174.000000
627236.000000
628253.000000
629226.000000
630219.000000
631265.000000
632342.000000
633408.000000
634479.000000
635492.000000
636486.000000
637507.000000
638612.000000
639709.000000
640776.000000
641830.000000
642835.000000
643837.000000
644848.000000
645948.000000
647025.000000
648107.000000
649155.000000
650183.000000
651190.000000
652267.000000
653368.000000
654473.000000
655556.000000
656604.000000
657630.000000
658641.000000
659695.000000
660782.000000
661837.000000
662895.000000
663920.000000
664900.000000
665982.000000
667054.000000
668120.000000
669187.000000
670222.000000
671221.000000
672226.000000
673294.000000
674419.000000
675534.000000
676633.000000
677700.000000
678737.000000
679770.000000
680860.000000
681924.000000
682989.000000
683984.000000
684945.000000
685903.000000
686998.000000
688106.000000
689097.000000
690160.000000
691215.000000
692212.000000
693342.000000
694448.000000
695550.000000
696625.000000
697660.000000
698694.000000
699738.000000
700774.000000
701883.000000
702957.000000
704008.000000
705038.000000
706097.000000
707174.000000
708259.000000
709326.000000
710373.000000
711391.000000
712403.000000
713468.000000
714535.000000
715619.000000
716681.000000
717712.000000
718721.000000
719691.000000
720809.000000
721869.000000
722929.000000
724003.000000
725050.000000
726056.000000
727127.000000
728235.000000
729291.000000
730308.000000
731311.000000
732326.000000
733359.000000
734368.000000
735366.000000
736336.000000
737297.000000
738418.000000
739554.000000
740663.000000
741729.000000
742785.000000
743864.000000
744978.000000
746055.000000
747133.000000
748205.000000
749234.000000
750259.000000
751314.000000
752372.000000
753471.000000
754531.000000
755580.000000
756610.000000
757617.000000
758722.000000
759806.000000
760872.000000
761921.000000
762949.000000
763948.000000
764957.000000
766020.000000
767087.000000
768150.000000
769156.000000
770210.000000
771221.000000
772281.000000
773264.000000
774309.000000
775350.000000
776405.000000
777414.000000
778372.000000
779363.000000
780412.000000
781468.000000
782506.000000
783519.000000
784484.000000
785440.000000
786421.000000
787424.000000
788491.000000
789528.000000
790533.000000
791504.000000
792469.000000
793508.000000
794594.000000
795663.000000
796720.000000
797701.000000
798649.000000
799622.000000
800596.000000
801664.000000
802738.000000
803718.000000
804639.000000
805528.000000
806714.000000
807929.000000
809097.000000
810175.000000
811205.000000
812191.000000
813294.000000
814425.000000
815353.000000
816250.000000
817189.000000
818152.000000
819092.000000
820127.000000
821187.000000
822236.000000
823247.000000
824216.000000
825170.000000
826160.000000
827169.000000
828180.000000
829183.000000
830126.000000
831044.000000
831990.000000
832978.000000
834036.000000
834996.000000
836039.000000
837070.000000
838154.000000
839187.000000
840198.000000
841215.000000
842267.000000
843324.000000
844339.000000
845332.000000
846363.000000
847422.000000
848485.000000
849547.000000
850534.000000
851537.000000
852574.000000
853637.000000
854716.000000
855765.000000
856782.000000
857778.000000
858817.000000
859888.000000
860953.000000
861993.000000
863027.000000
864105.000000
865226.000000
866344.000000
867429.000000
868472.000000
869481.000000
870529.000000
871594.000000
872654.000000
873704.000000
874745.000000
875760.000000
876750.000000
877737.000000
878780.000000
879864.000000
880940.000000
881985.000000
883013.000000
884083.000000
885146.000000
886196.000000
887194.000000
888186.000000
889224.000000
890283.000000
891421.000000
892529.000000
893554.000000
894575.000000
895625.000000
896740.000000
897838.000000
898921.000000
899955.000000
900965.000000
901977.000000
903031.000000
