ECG (ms)
2.000000
768.000000
1541.000000
2298.000000
3038.000000
3779.000000
4538.000000
5334.000000
6168.000000
7022.000000
7793.000000
8574.000000
9349.000000
10149.000000
10919.000000
11715.000000
12506.000000
13287.000000
14059.000000
14795.000000
15487.000000
16147.000000
16813.000000
17515.000000
18243.000000
19030.000000
19942.000000
20804.000000
21624.000000
22453.000000
23270.000000
24083.000000
24859.000000
25663.000000
26458.000000
27226.000000
27967.000000
28677.000000
29399.000000
30179.000000
31145.000000
32085.000000
33021.000000
33924.000000
34715.000000
35476.000000
36222.000000
36980.000000
37765.000000
38546.000000
39312.000000
40083.000000
40851.000000
41657.000000
42768.000000
43802.000000
44738.000000
45602.000000
46414.000000
47195.000000
47967.000000
48721.000000
49572.000000
50484.000000
51372.000000
52217.000000
53116.000000
54023.000000
54882.000000
55735.000000
56613.000000
57475.000000
58301.000000
59095.000000
59882.000000
60671.000000
61488.000000
62346.000000
63227.000000
64085.000000
64895.000000
65676.000000
66439.000000
67201.000000
68030.000000
69006.000000
69980.000000
70909.000000
71793.000000
72632.000000
73457.000000
74280.000000
75155.000000
76057.000000
76973.000000
77797.000000
78533.000000
79253.000000
79985.000000
80719.000000
81470.000000
82285.000000
83175.000000
84051.000000
84919.000000
85745.000000
86491.000000
87207.000000
87905.000000
88603.000000
89317.000000
90071.000000
90856.000000
91661.000000
92461.000000
93254.000000
94038.000000
94775.000000
95484.000000
96176.000000
96854.000000
97542.000000
98253.000000
99016.000000
100047.000000
101009.000000
101898.000000
102720.000000
103481.000000
104192.000000
104894.000000
105593.000000
106351.000000
107210.000000
108174.000000
109104.000000
109985.000000
110785.000000
111539.000000
112273.000000
113045.000000
113877.000000
114765.000000
115660.000000
116510.000000
117295.000000
118040.000000
118762.000000
119499.000000
120295.000000
121177.000000
122153.000000
123055.000000
123902.000000
124662.000000
125411.000000
126208.000000
127085.000000
128043.000000
128988.000000
129867.000000
130696.000000
131472.000000
132245.000000
133088.000000
134032.000000
135028.000000
135999.000000
136891.000000
137681.000000
138429.000000
139205.000000
140064.000000
141065.000000
142119.000000
143128.000000
144046.000000
144899.000000
145778.000000
146645.000000
147517.000000
148409.000000
149283.000000
150142.000000
151001.000000
151912.000000
152890.000000
153875.000000
154820.000000
155719.000000
156545.000000
157329.000000
158079.000000
158841.000000
159573.000000
160280.000000
161105.000000
162038.000000
162934.000000
163803.000000
164736.000000
165675.000000
166600.000000
167489.000000
168346.000000
169150.000000
169930.000000
170704.000000
171549.000000
172751.000000
173762.000000
174701.000000
175589.000000
176442.000000
177317.000000
178258.000000
179200.000000
180126.000000
181018.000000
181865.000000
182684.000000
183536.000000
184390.000000
185241.000000
186068.000000
186884.000000
187693.000000
188550.000000
189442.000000
190353.000000
191246.000000
192095.000000
192916.000000
193730.000000
194599.000000
195489.000000
196391.000000
197266.000000
198118.000000
198964.000000
199853.000000
200773.000000
201705.000000
202633.000000
203524.000000
204371.000000
205197.000000
206043.000000
206947.000000
207921.000000
208904.000000
209856.000000
210761.000000
211645.000000
212535.000000
213483.000000
214429.000000
215369.000000
216298.000000
217184.000000
218044.000000
218913.000000
219838.000000
220765.000000
221610.000000
222461.000000
223331.000000
224206.000000
225075.000000
225994.000000
226956.000000
227919.000000
228861.000000
229776.000000
230670.000000
231526.000000
232358.000000
233203.000000
234098.000000
235078.000000
236070.000000
237065.000000
238025.000000
238930.000000
239781.000000
240606.000000
241434.000000
242292.000000
243174.000000
244070.000000
244929.000000
245764.000000
246589.000000
247429.000000
248319.000000
249222.000000
250112.000000
250960.000000
251788.000000
252611.000000
253463.000000
254376.000000
255275.000000
256167.000000
257009.000000
257821.000000
258622.000000
259433.000000
260274.000000
261128.000000
261990.000000
262838.000000
263668.000000
264488.000000
265333.000000
266217.000000
267118.000000
268025.000000
268900.000000
269737.000000
270565.000000
271413.000000
272300.000000
273190.000000
274073.000000
274942.000000
275791.000000
276603.000000
277394.000000
278191.000000
279022.000000
279849.000000
280639.000000
281410.000000
282195.000000
282989.000000
283816.000000
284694.000000
285601.000000
286478.000000
287325.000000
288150.000000
289006.000000
289868.000000
290729.000000
291529.000000
292295.000000
293062.000000
293848.000000
294663.000000
295531.000000
296455.000000
297397.000000
298320.000000
299187.000000
300021.000000
300848.000000
301709.000000
302581.000000
303441.000000
304273.000000
305098.000000
305954.000000
306876.000000
307824.000000
308747.000000
309628.000000
310482.000000
311336.000000
312237.000000
313164.000000
314090.000000
314966.000000
315823.000000
316692.000000
317612.000000
318563.000000
319462.000000
320319.000000
321204.000000
322127.000000
323058.000000
323958.000000
324829.000000
325701.000000
326621.000000
327537.000000
328447.000000
329325.000000
330174.000000
331012.000000
331916.000000
332879.000000
333879.000000
334831.000000
335741.000000
336653.000000
337607.000000
338554.000000
339478.000000
340361.000000
341208.000000
342072.000000
343018.000000
344005.000000
344996.000000
345942.000000
346865.000000
347852.000000
348826.000000
349796.000000
350745.000000
351626.000000
352488.000000
353403.000000
354349.000000
355317.000000
356244.000000
357133.000000
358019.000000
358981.000000
359958.000000
360935.000000
361856.000000
362734.000000
363608.000000
364529.000000
365454.000000
366385.000000
367284.000000
368151.000000
369018.000000
369932.000000
370856.000000
371797.000000
372700.000000
373566.000000
374427.000000
375348.000000
376279.000000
377213.000000
378111.000000
378973.000000
379827.000000
380715.000000
381594.000000
382473.000000
383355.000000
384204.000000
385028.000000
385862.000000
386744.000000
387648.000000
388527.000000
389351.000000
390131.000000
390909.000000
391650.000000
392384.000000
393177.000000
394065.000000
395006.000000
395893.000000
396738.000000
397507.000000
398245.000000
398988.000000
399770.000000
400611.000000
401494.000000
402410.000000
403295.000000
404127.000000
404891.000000
405634.000000
406395.000000
407161.000000
407971.000000
408795.000000
409633.000000
410442.000000
411219.000000
411984.000000
412788.000000
413681.000000
414579.000000
415473.000000
416334.000000
417130.000000
417878.000000
418606.000000
419337.000000
420097.000000
420889.000000
421711.000000
422570.000000
423374.000000
424158.000000
424925.000000
425745.000000
426613.000000
427479.000000
428259.000000
429029.000000
429813.000000
430613.000000
431438.000000
432242.000000
433016.000000
433785.000000
434589.000000
435459.000000
436365.000000
437219.000000
437993.000000
438734.000000
439422.000000
440093.000000
440798.000000
441541.000000
442294.000000
443029.000000
443755.000000
444475.000000
445206.000000
446042.000000
447122.000000
448105.000000
449028.000000
449915.000000
450734.000000
451558.000000
452396.000000
453216.000000
454017.000000
454834.000000
455708.000000
456721.000000
457739.000000
458708.000000
459635.000000
460529.000000
461485.000000
462448.000000
463386.000000
464302.000000
465202.000000
466059.000000
466895.000000
467731.000000
468639.000000
469625.000000
470566.000000
471414.000000
472178.000000
472933.000000
473732.000000
474552.000000
475389.000000
476304.000000
477261.000000
478213.000000
479101.000000
479928.000000
480751.000000
481640.000000
482547.000000
483498.000000
484457.000000
485375.000000
486256.000000
487104.000000
487967.000000
488878.000000
489803.000000
490739.000000
491634.000000
492484.000000
493321.000000
494187.000000
495074.000000
495974.000000
496866.000000
497746.000000
498660.000000
499632.000000
500600.000000
501543.000000
502423.000000
503264.000000
504123.000000
505059.000000
506057.000000
507042.000000
507966.000000
508831.000000
509677.000000
510595.000000
511540.000000
512512.000000
513459.000000
514381.000000
515318.000000
516308.000000
517287.000000
518235.000000
519118.000000
519955.000000
520778.000000
521683.000000
522665.000000
523742.000000
524763.000000
525725.000000
526701.000000
527704.000000
528704.000000
529688.000000
530619.000000
531482.000000
532312.000000
533172.000000
533962.000000
534701.000000
535597.000000
536623.000000
537594.000000
538552.000000
539597.000000
540630.000000
541606.000000
542529.000000
543406.000000
544247.000000
545116.000000
546154.000000
547201.000000
548218.000000
549181.000000
550059.000000
550897.000000
551752.000000
552676.000000
553625.000000
554570.000000
555466.000000
556303.000000
557125.000000
557981.000000
558854.000000
559747.000000
560613.000000
561456.000000
562320.000000
563304.000000
564296.000000
565250.000000
566137.000000
566950.000000
567736.000000
568605.000000
569545.000000
570518.000000
571469.000000
572393.000000
573288.000000
574226.000000
575155.000000
576065.000000
576942.000000
577803.000000
578773.000000
579799.000000
580765.000000
581687.000000
582579.000000
583546.000000
584533.000000
585458.000000
586261.000000
587050.000000
587855.000000
588653.000000
589451.000000
590301.000000
591235.000000
592185.000000
593103.000000
593983.000000
594831.000000
595720.000000
596638.000000
597572.000000
598518.000000
599421.000000
600273.000000
601113.000000
602035.000000
603036.000000
604043.000000
605005.000000
605907.000000
606775.000000
607682.000000
608693.000000
609722.000000
610729.000000
611675.000000
612582.000000
613468.000000
614402.000000
615399.000000
616393.000000
617368.000000
618314.000000
619209.000000
620073.000000
620990.000000
621936.000000
622898.000000
623839.000000
624752.000000
625674.000000
626682.000000
627690.000000
628657.000000
629573.000000
630455.000000
631346.000000
632335.000000
633367.000000
634365.000000
635297.000000
636242.000000
637140.000000
637949.000000
638697.000000
639442.000000
640270.000000
641180.000000
642240.000000
643287.000000
644248.000000
645134.000000
645996.000000
646909.000000
647858.000000
648860.000000
649836.000000
650775.000000
651699.000000
652717.000000
653733.000000
654712.000000
655640.000000
656508.000000
657362.000000
658237.000000
659127.000000
660031.000000
660912.000000
661769.000000
662694.000000
663686.000000
664673.000000
665610.000000
666493.000000
667337.000000
668229.000000
669170.000000
670135.000000
671065.000000
671927.000000
672762.000000
673644.000000
674551.000000
675472.000000
676390.000000
677275.000000
678118.000000
678945.000000
679824.000000
680712.000000
681598.000000
682446.000000
683250.000000
684013.000000
684756.000000
685523.000000
686544.000000
687547.000000
688536.000000
689509.000000
690430.000000
691287.000000
692102.000000
692969.000000
693886.000000
694832.000000
695752.000000
696642.000000
697489.000000
698300.000000
699114.000000
699863.000000
700557.000000
701268.000000
702064.000000
702914.000000
703785.000000
704687.000000
705669.000000
706640.000000
707594.000000
708494.000000
709336.000000
710128.000000
710966.000000
711835.000000
712735.000000
713625.000000
714474.000000
715290.000000
716162.000000
717186.000000
718253.000000
719292.000000
720261.000000
721159.000000
722024.000000
722883.000000
723774.000000
724666.000000
725573.000000
726747.000000
727898.000000
728941.000000
729927.000000
730850.000000
731758.000000
732718.000000
733684.000000
734663.000000
735650.000000
736612.000000
737533.000000
738452.000000
739360.000000
740243.000000
741055.000000
741854.000000
742655.000000
743424.000000
744272.000000
745232.000000
746189.000000
747162.000000
748038.000000
748830.000000
749568.000000
750304.000000
751131.000000
752384.000000
753346.000000
754333.000000
755371.000000
756403.000000
757375.000000
758286.000000
759190.000000
760108.000000
761008.000000
761891.000000
762787.000000
763701.000000
764632.000000
765573.000000
766475.000000
767348.000000
768248.000000
769131.000000
769999.000000
770843.000000
771667.000000
772463.000000
773253.000000
774079.000000
774940.000000
775842.000000
776786.000000
777713.000000
778592.000000
779469.000000
780386.000000
781323.000000
782266.000000
783198.000000
784094.000000
784956.000000
785808.000000
786658.000000
787543.000000
788462.000000
789382.000000
790299.000000
791181.000000
792041.000000
792895.000000
793789.000000
794690.000000
795581.000000
796432.000000
797257.000000
798069.000000
798882.000000
799710.000000
800595.000000
801507.000000
802429.000000
803324.000000
804202.000000
805062.000000
805906.000000
806736.000000
807537.000000
808333.000000
809119.000000
809877.000000
810600.000000
811288.000000
811997.000000
812717.000000
813467.000000
814286.000000
815420.000000
816400.000000
817284.000000
818183.000000
819036.000000
819877.000000
820692.000000
821484.000000
822344.000000
823285.000000
824318.000000
825289.000000
826154.000000
826934.000000
827747.000000
828587.000000
829648.000000
830721.000000
831729.000000
832685.000000
833662.000000
834663.000000
835659.000000
836608.000000
837534.000000
838491.000000
839450.000000
840360.000000
841224.000000
842133.000000
843029.000000
843956.000000
844914.000000
845795.000000
846606.000000
847383.000000
848096.000000
848844.000000
849719.000000
850852.000000
851907.000000
852878.000000
853787.000000
854675.000000
855541.000000
856362.000000
857215.000000
858057.000000
858898.000000
859713.000000
860587.000000
861458.000000
862328.000000
863178.000000
863999.000000
864770.000000
865580.000000
866371.000000
867188.000000
867971.000000
868734.000000
869455.000000
870165.000000
870870.000000
871626.000000
872366.000000
873100.000000
873848.000000
874885.000000
875824.000000
876621.000000
877333.000000
878043.000000
878769.000000
879563.000000
880419.000000
881240.000000
881991.000000
882766.000000
883517.000000
884308.000000
885158.000000
885992.000000
886747.000000
887514.000000
888278.000000
889046.000000
889795.000000
890529.000000
891276.000000
892048.000000
892811.000000
893535.000000
894241.000000
894953.000000
895676.000000
896392.000000
897090.000000
897812.000000
898527.000000
