ECG (ms)
643.000000
1709.000000
2543.000000
3210.000000
3889.000000
4584.000000
5351.000000
6073.000000
6753.000000
7487.000000
8753.000000
9862.000000
10854.000000
11839.000000
12756.000000
13531.000000
14219.000000
14922.000000
15678.000000
16395.000000
17071.000000
17746.000000
18455.000000
19735.000000
20811.000000
21890.000000
22922.000000
23718.000000
24417.000000
25128.000000
25889.000000
26594.000000
27263.000000
27970.000000
28720.000000
29994.000000
31087.000000
32186.000000
33262.000000
34201.000000
34964.000000
35618.000000
36259.000000
36904.000000
37553.000000
38222.000000
38925.000000
40155.000000
41258.000000
42211.000000
43097.000000
44026.000000
44965.000000
45750.000000
46442.000000
47143.000000
47879.000000
49058.000000
49826.000000
50511.000000
51204.000000
51914.000000
52590.000000
53265.000000
53936.000000
54632.000000
55353.000000
56049.000000
56734.000000
57446.000000
58673.000000
59667.000000
60562.000000
61458.000000
62296.000000
63056.000000
63734.000000
64423.000000
65143.000000
65894.000000
66588.000000
67283.000000
68007.000000
69274.000000
70303.000000
71277.000000
72284.000000
73197.000000
73969.000000
74692.000000
75431.000000
76183.000000
76873.000000
77553.000000
78258.000000
79474.000000
80494.000000
81471.000000
82426.000000
83292.000000
84058.000000
84751.000000
85452.000000
86198.000000
86951.000000
87656.000000
88423.000000
89642.000000
90709.000000
91690.000000
92687.000000
93592.000000
94351.000000
95065.000000
95781.000000
96509.000000
97200.000000
97895.000000
98612.000000
99860.000000
100866.000000
101818.000000
102758.000000
103617.000000
104414.000000
105144.000000
105906.000000
106621.000000
107298.000000
108005.000000
108739.000000
109985.000000
111058.000000
112160.000000
113169.000000
113932.000000
114614.000000
115303.000000
116011.000000
116747.000000
117447.000000
118130.000000
118842.000000
119608.000000
120825.000000
121906.000000
123013.000000
123982.000000
124747.000000
125474.000000
126212.000000
126910.000000
127611.000000
128342.000000
129654.000000
130772.000000
131855.000000
132968.000000
133964.000000
134724.000000
135420.000000
136120.000000
136867.000000
137601.000000
138311.000000
139573.000000
140759.000000
141818.000000
142871.000000
143822.000000
144601.000000
145288.000000
145981.000000
146703.000000
147432.000000
148128.000000
148889.000000
150200.000000
151350.000000
152453.000000
153548.000000
154474.000000
155242.000000
155949.000000
156654.000000
157392.000000
158090.000000
158771.000000
159476.000000
160745.000000
161823.000000
162804.000000
163810.000000
164654.000000
165377.000000
166107.000000
166872.000000
167564.000000
168280.000000
169002.000000
169743.000000
170426.000000
171139.000000
171859.000000
172640.000000
173349.000000
174092.000000
174845.000000
175874.000000
176743.000000
177538.000000
178218.000000
178929.000000
179650.000000
180394.000000
181086.000000
181798.000000
182515.000000
183276.000000
183978.000000
184701.000000
185436.000000
186221.000000
186935.000000
187659.000000
188402.000000
189568.000000
190388.000000
191120.000000
191846.000000
192571.000000
193256.000000
193961.000000
194678.000000
195876.000000
196891.000000
197949.000000
198920.000000
199763.000000
200520.000000
201225.000000
201938.000000
202674.000000
203379.000000
204080.000000
204832.000000
206046.000000
207093.000000
208167.000000
209142.000000
209930.000000
210648.000000
211363.000000
212099.000000
212793.000000
213514.000000
214251.000000
215503.000000
216593.000000
217682.000000
218635.000000
219392.000000
220097.000000
220812.000000
221546.000000
222249.000000
222944.000000
223673.000000
224969.000000
226085.000000
227224.000000
228356.000000
229307.000000
230087.000000
230818.000000
231553.000000
232275.000000
232958.000000
233678.000000
234435.000000
235754.000000
236932.000000
238122.000000
239224.000000
239992.000000
240714.000000
241456.000000
242223.000000
242945.000000
243647.000000
244387.000000
245685.000000
246752.000000
247691.000000
248707.000000
249685.000000
250488.000000
251194.000000
251903.000000
252654.000000
253418.000000
254119.000000
254790.000000
255480.000000
256177.000000
256956.000000
258197.000000
259273.000000
260365.000000
261369.000000
262139.000000
262865.000000
263585.000000
264273.000000
264948.000000
265643.000000
266370.000000
267624.000000
268686.000000
269697.000000
270666.000000
271586.000000
272546.000000
273481.000000
274281.000000
274977.000000
275685.000000
276423.000000
277130.000000
277830.000000
278565.000000
279846.000000
280954.000000
282044.000000
283095.000000
283881.000000
284551.000000
285236.000000
285938.000000
286629.000000
287310.000000
288027.000000
288787.000000
290012.000000
291213.000000
292367.000000
293144.000000
293866.000000
294596.000000
295311.000000
296005.000000
296726.000000
297497.000000
298278.000000
299027.000000
300328.000000
301549.000000
302553.000000
303500.000000
304473.000000
305363.000000
306136.000000
306854.000000
307592.000000
308346.000000
309074.000000
310319.000000
311474.000000
312549.000000
313338.000000
314047.000000
314758.000000
315501.000000
316203.000000
316879.000000
317577.000000
318315.000000
319564.000000
320606.000000
321687.000000
322538.000000
323219.000000
323918.000000
324625.000000
325332.000000
326017.000000
326746.000000
327502.000000
328742.000000
329873.000000
331011.000000
331797.000000
332514.000000
333235.000000
333983.000000
334699.000000
335388.000000
336108.000000
336869.000000
338138.000000
339245.000000
340360.000000
341353.000000
342175.000000
342884.000000
343605.000000
344356.000000
345090.000000
345795.000000
346537.000000
347289.000000
348486.000000
349543.000000
350586.000000
351505.000000
352291.000000
353030.000000
353781.000000
354489.000000
355178.000000
355905.000000
356660.000000
357361.000000
358122.000000
359291.000000
360266.000000
361112.000000
361936.000000
362740.000000
363505.000000
364222.000000
364955.000000
365700.000000
366401.000000
367163.000000
368370.000000
369418.000000
370443.000000
371395.000000
372192.000000
372924.000000
373670.000000
374427.000000
375131.000000
375894.000000
377103.000000
378183.000000
379207.000000
380141.000000
381056.000000
381857.000000
382574.000000
383287.000000
383998.000000
384676.000000
385345.000000
386035.000000
386766.000000
387465.000000
388120.000000
388757.000000
389402.000000
390059.000000
390736.000000
391459.000000
392754.000000
393926.000000
395036.000000
396028.000000
396948.000000
397868.000000
398744.000000
399585.000000
400366.000000
401078.000000
401784.000000
402501.000000
403259.000000
404037.000000
404764.000000
405500.000000
406250.000000
407472.000000
408568.000000
409598.000000
410372.000000
411061.000000
411753.000000
412467.000000
413199.000000
413929.000000
414624.000000
415334.000000
416083.000000
417347.000000
418408.000000
419382.000000
420272.000000
421195.000000
422097.000000
422944.000000
423797.000000
424689.000000
425633.000000
426524.000000
427423.000000
428410.000000
429356.000000
430221.000000
431090.000000
431986.000000
432890.000000
433685.000000
434419.000000
435159.000000
435919.000000
436618.000000
437289.000000
437968.000000
438660.000000
439385.000000
440604.000000
441686.000000
442494.000000
443219.000000
443944.000000
444693.000000
445404.000000
446094.000000
446804.000000
447529.000000
448276.000000
448998.000000
449737.000000
450988.000000
452081.000000
452994.000000
453896.000000
454778.000000
455635.000000
456461.000000
457316.000000
458207.000000
459079.000000
460010.000000
460953.000000
461838.000000
462604.000000
463316.000000
464020.000000
464729.000000
465418.000000
466105.000000
466814.000000
467601.000000
468858.000000
470028.000000
471191.000000
472217.000000
473151.000000
474016.000000
474774.000000
475500.000000
476234.000000
476993.000000
477725.000000
478979.000000
480131.000000
481233.000000
482345.000000
483313.000000
484093.000000
484795.000000
485490.000000
486215.000000
486926.000000
487626.000000
488368.000000
489675.000000
490731.000000
491816.000000
492695.000000
493529.000000
494426.000000
495368.000000
496156.000000
496855.000000
497565.000000
498308.000000
499052.000000
499760.000000
500500.000000
501293.000000
502534.000000
503671.000000
504808.000000
505837.000000
506751.000000
507605.000000
508462.000000
509331.000000
510182.000000
510946.000000
511634.000000
512330.000000
513047.000000
513755.000000
514478.000000
515223.000000
516506.000000
517612.000000
518675.000000
519756.000000
520771.000000
521588.000000
522316.000000
523039.000000
523786.000000
524496.000000
525221.000000
525988.000000
527234.000000
528385.000000
529554.000000
530641.000000
531442.000000
532193.000000
532930.000000
533687.000000
534404.000000
535164.000000
536420.000000
537579.000000
538688.000000
539779.000000
540750.000000
541561.000000
542304.000000
543048.000000
543808.000000
544519.000000
545245.000000
545997.000000
547215.000000
548029.000000
548737.000000
549456.000000
550205.000000
550924.000000
551636.000000
552368.000000
553652.000000
554633.000000
555659.000000
556644.000000
557544.000000
558539.000000
559521.000000
560450.000000
561290.000000
562196.000000
563141.000000
564131.000000
565009.000000
565809.000000
566806.000000
567650.000000
568438.000000
569166.000000
569852.000000
570538.000000
571242.000000
571925.000000
572634.000000
573363.000000
574121.000000
574833.000000
575622.000000
576891.000000
577750.000000
578497.000000
579250.000000
579984.000000
580687.000000
581413.000000
582184.000000
582944.000000
583662.000000
584888.000000
586001.000000
586799.000000
587540.000000
588293.000000
589084.000000
589799.000000
590484.000000
591203.000000
591943.000000
593085.000000
593890.000000
594620.000000
595348.000000
596435.000000
597249.000000
597982.000000
598719.000000
599482.000000
600189.000000
600884.000000
601596.000000
602356.000000
603075.000000
603769.000000
604492.000000
605239.000000
605999.000000
606710.000000
607474.000000
608682.000000
609707.000000
610631.000000
611549.000000
612474.000000
613339.000000
614196.000000
615082.000000
615994.000000
616863.000000
617660.000000
618386.000000
619135.000000
619887.000000
620593.000000
621364.000000
622632.000000
623684.000000
624677.000000
625591.000000
626396.000000
627144.000000
627903.000000
628703.000000
629425.000000
630134.000000
630870.000000
632159.000000
633279.000000
634305.000000
635292.000000
636244.000000
637109.000000
637866.000000
638631.000000
639825.000000
640804.000000
641713.000000
642639.000000
643585.000000
644461.000000
645370.000000
646288.000000
647238.000000
648058.000000
648809.000000
649553.000000
650277.000000
650958.000000
651640.000000
652334.000000
653043.000000
653736.000000
654459.000000
655194.000000
656442.000000
657404.000000
658574.000000
659676.000000
660704.000000
661714.000000
662509.000000
663199.000000
663896.000000
664610.000000
665299.000000
665990.000000
666722.000000
668081.000000
669259.000000
670310.000000
671346.000000
672366.000000
673293.000000
674278.000000
675186.000000
675973.000000
676692.000000
677421.000000
678201.000000
679473.000000
680600.000000
681741.000000
682740.000000
683689.000000
684591.000000
685368.000000
686042.000000
686726.000000
687428.000000
688128.000000
688820.000000
689557.000000
690927.000000
692045.000000
693217.000000
694316.000000
695093.000000
695832.000000
696573.000000
697284.000000
697972.000000
698682.000000
699437.000000
700726.000000
701873.000000
703066.000000
704183.000000
705168.000000
706136.000000
707088.000000
708026.000000
708874.000000
709629.000000
710374.000000
711141.000000
711853.000000
712578.000000
713333.000000
714093.000000
714854.000000
715554.000000
716260.000000
716985.000000
717804.000000
718536.000000
719263.000000
720038.000000
721345.000000
722488.000000
723678.000000
724767.000000
725606.000000
726364.000000
727123.000000
727904.000000
728634.000000
729887.000000
731098.000000
732148.000000
733140.000000
734114.000000
735041.000000
735902.000000
736801.000000
737769.000000
738734.000000
739633.000000
740642.000000
741625.000000
742423.000000
743153.000000
743877.000000
744629.000000
745349.000000
746068.000000
746837.000000
748167.000000
749358.000000
750525.000000
751597.000000
752535.000000
753314.000000
754019.000000
754725.000000
755438.000000
756138.000000
756851.000000
757582.000000
758907.000000
760066.000000
761261.000000
762365.000000
763347.000000
764327.000000
765290.000000
766201.000000
767190.000000
768311.000000
769319.000000
770135.000000
770856.000000
771573.000000
772315.000000
773023.000000
773763.000000
774619.000000
775953.000000
777116.000000
778343.000000
779435.000000
780395.000000
781383.000000
782377.000000
783241.000000
783969.000000
784707.000000
785477.000000
786702.000000
787763.000000
788815.000000
789642.000000
790320.000000
791009.000000
791712.000000
792430.000000
793139.000000
794452.000000
795683.000000
796790.000000
797871.000000
798904.000000
799720.000000
800480.000000
801262.000000
802487.000000
803508.000000
804603.000000
805561.000000
806431.000000
807334.000000
808289.000000
809254.000000
810160.000000
811053.000000
811982.000000
812896.000000
813691.000000
814452.000000
815214.000000
815986.000000
816682.000000
817338.000000
818021.000000
818718.000000
819409.000000
820081.000000
820784.000000
821514.000000
822239.000000
822993.000000
824276.000000
825394.000000
826323.000000
827235.000000
828075.000000
828841.000000
829630.000000
830423.000000
831172.000000
831875.000000
832589.000000
833330.000000
834577.000000
835620.000000
836385.000000
837047.000000
837687.000000
838329.000000
838988.000000
839663.000000
840369.000000
841101.000000
842279.000000
843322.000000
844176.000000
844946.000000
845688.000000
846399.000000
847101.000000
847832.000000
848634.000000
849463.000000
850301.000000
851115.000000
851904.000000
852721.000000
853540.000000
854354.000000
855113.000000
855904.000000
856692.000000
857483.000000
858248.000000
859038.000000
859828.000000
860616.000000
861355.000000
862135.000000
862918.000000
863708.000000
864465.000000
865286.000000
866137.000000
867025.000000
867906.000000
868692.000000
869475.000000
870282.000000
871093.000000
871878.000000
872766.000000
873694.000000
874610.000000
875473.000000
876452.000000
877582.000000
878640.000000
879636.000000
880592.000000
881508.000000
882331.000000
883167.000000
884056.000000
884953.000000
885924.000000
887050.000000
888005.000000
888962.000000
889962.000000
890976.000000
891926.000000
892897.000000
893824.000000
894773.000000
895663.000000
896604.000000
897575.000000
898540.000000
899413.000000
900325.000000
901266.000000
902172.000000
903048.000000
904009.000000
904912.000000
905709.000000
906395.000000
907090.000000
907820.000000
908525.000000
909249.000000
910006.000000
911392.000000
912566.000000
913719.000000
914824.000000
915790.000000
916695.000000
917583.000000
918386.000000
919082.000000
919799.000000
920546.000000
921277.000000
922012.000000
923392.000000
924593.000000
925698.000000
926809.000000
927753.000000
928535.000000
929279.000000
930031.000000
930752.000000
931473.000000
932211.000000
933442.000000
934447.000000
935480.000000
936478.000000
937336.000000
938193.000000
939101.000000
939918.000000
940685.000000
941452.000000
942206.000000
942927.000000
943686.000000
944492.000000
945278.000000
946005.000000
946775.000000
948030.000000
949153.000000
950215.000000
951249.000000
952199.000000
953083.000000
953902.000000
954735.000000
955576.000000
956391.000000
957186.000000
957946.000000
958719.000000
959475.000000
960173.000000
960909.000000
961645.000000
962383.000000
963100.000000
963853.000000
965149.000000
966267.000000
967311.000000
968273.000000
969193.000000
970033.000000
970917.000000
971899.000000
972891.000000
973956.000000
975147.000000
976201.000000
977261.000000
978302.000000
979271.000000
980083.000000
980859.000000
981687.000000
982430.000000
983129.000000
983835.000000
984570.000000
985881.000000
986932.000000
988043.000000
989119.000000
990119.000000
991114.000000
992075.000000
992947.000000
993862.000000
994784.000000
995643.000000
996577.000000
997529.000000
998442.000000
999287.000000
1000153.000000
1001137.000000
1002270.000000
1003332.000000
1004403.000000
1005456.000000
1006418.000000
1007378.000000
1008321.000000
1009227.000000
1010071.000000
1010944.000000
1011876.000000
1012804.000000
1013666.000000
1014592.000000
1015546.000000
1016421.000000
1017356.000000
1018272.000000
1019162.000000
1019963.000000
1020700.000000
1021440.000000
1022190.000000
1022896.000000
1023585.000000
1024310.000000
1025108.000000
1026374.000000
1027355.000000
1028338.000000
1029203.000000
1030004.000000
1030865.000000
1031771.000000
1032613.000000
1033481.000000
1034434.000000
1035490.000000
1036442.000000
1037479.000000
1038462.000000
1039398.000000
1040342.000000
1041285.000000
1042192.000000
1043066.000000
1043987.000000
1044931.000000
1045788.000000
1046664.000000
1047573.000000
1048474.000000
1049332.000000
1050242.000000
1051183.000000
1052076.000000
1052937.000000
1053741.000000
1054496.000000
1055222.000000
1055941.000000
1056697.000000
1057413.000000
1058162.000000
1059452.000000
1060585.000000
1061654.000000
1062733.000000
1063705.000000
1064599.000000
1065522.000000
1066491.000000
1067379.000000
1068305.000000
1069281.000000
1070190.000000
1070986.000000
1071716.000000
1072452.000000
1073240.000000
1074508.000000
1075615.000000
1076791.000000
1077845.000000
1078758.000000
1079743.000000
1080732.000000
1081662.000000
1082489.000000
1083241.000000
1083993.000000
1084740.000000
1085445.000000
1086176.000000
1086930.000000
1088210.000000
1089369.000000
1090519.000000
1091626.000000
1092609.000000
1093627.000000
1094628.000000
1095424.000000
1096181.000000
1096964.000000
1097791.000000
1098523.000000
1099770.000000
1100989.000000
1102102.000000
1103076.000000
1104055.000000
1105009.000000
1105960.000000
1106778.000000
1107542.000000
1108310.000000
1109481.000000
1110460.000000
1111488.000000
1112443.000000
1113271.000000
1114018.000000
1114757.000000
1115509.000000
1116199.000000
1116863.000000
1117538.000000
1118222.000000
1118911.000000
1119588.000000
1120277.000000
1120982.000000
1121732.000000
1122458.000000
1123201.000000
1124467.000000
1125630.000000
1126627.000000
1127534.000000
1128423.000000
1129252.000000
1130007.000000
1130758.000000
1131485.000000
1132212.000000
1132933.000000
1133674.000000
1134394.000000
1135079.000000
1135764.000000
1136464.000000
1137193.000000
1137934.000000
1138641.000000
1139352.000000
1140086.000000
1140876.000000
1141629.000000
1142334.000000
1143082.000000
1143854.000000
1145016.000000
1145840.000000
1146593.000000
1147368.000000
1148145.000000
1148855.000000
1149574.000000
1150306.000000
1151081.000000
1151809.000000
1152531.000000
1153301.000000
1154411.000000
1155202.000000
1155964.000000
1156729.000000
1157533.000000
1158278.000000
1159059.000000
1159858.000000
1160689.000000
1161488.000000
1162273.000000
1163132.000000
1164027.000000
1164852.000000
1165671.000000
1166520.000000
1167386.000000
1168200.000000
1169039.000000
1169895.000000
1170748.000000
1171523.000000
1172307.000000
1173124.000000
1173999.000000
1174825.000000
1175687.000000
1176603.000000
1177566.000000
1178472.000000
1179396.000000
1180326.000000
1181244.000000
1182072.000000
1182864.000000
1183622.000000
1184356.000000
1185079.000000
1185792.000000
1186514.000000
1187211.000000
1188471.000000
1189651.000000
1190797.000000
1191902.000000
1192972.000000
1193901.000000
1194835.000000
1195789.000000
1196703.000000
1197616.000000
1198588.000000
1199518.000000
1200338.000000
1201075.000000
1201816.000000
1202569.000000
1203289.000000
1203980.000000
1204711.000000
1205483.000000
1206794.000000
1207920.000000
1209107.000000
1210191.000000
1211196.000000
1212138.000000
1212932.000000
1213682.000000
1214427.000000
1215216.000000
1215940.000000
1216713.000000
1217528.000000
1218810.000000
1219859.000000
1220845.000000
1221850.000000
1222752.000000
1223529.000000
1224255.000000
1224993.000000
1225760.000000
1226480.000000
1227188.000000
1227929.000000
1229141.000000
1230190.000000
1231156.000000
1232091.000000
1232945.000000
1233708.000000
1234482.000000
1235339.000000
1236220.000000
1237020.000000
1237838.000000
1238675.000000
1239519.000000
1240308.000000
1241107.000000
1241929.000000
1242735.000000
1243503.000000
1244340.000000
1245233.000000
1246083.000000
1246905.000000
1247778.000000
1248651.000000
1249461.000000
1250271.000000
1251112.000000
1251970.000000
1252756.000000
1253536.000000
1254328.000000
1255088.000000
1255809.000000
1256519.000000
1257261.000000
1257982.000000
1258683.000000
1259454.000000
1260303.000000
1261157.000000
1261942.000000
1262745.000000
1263574.000000
1264374.000000
1265125.000000
1265917.000000
1266717.000000
1267457.000000
1268201.000000
1268980.000000
1269795.000000
1270573.000000
1271327.000000
1272137.000000
1272962.000000
1273751.000000
1274552.000000
1275388.000000
1276220.000000
1277008.000000
1277838.000000
1278700.000000
1279546.000000
1280337.000000
1281189.000000
1282046.000000
1282899.000000
1283692.000000
1284495.000000
1285300.000000
1286066.000000
1286805.000000
1287600.000000
1288434.000000
1289245.000000
1290055.000000
1290935.000000
1291810.000000
1292619.000000
1293490.000000
1294387.000000
1295204.000000
1296029.000000
1296884.000000
1297728.000000
1298516.000000
1299344.000000
1300208.000000
1301032.000000
1301848.000000
1302739.000000
1303660.000000
1304505.000000
1305362.000000
1306247.000000
1307157.000000
1307985.000000
1308817.000000
1309670.000000
1310491.000000
1311314.000000
1312222.000000
1313178.000000
1314057.000000
1314940.000000
1315828.000000
1316651.000000
1317431.000000
1318273.000000
1319165.000000
1320076.000000
1320908.000000
1321768.000000
1322657.000000
1323486.000000
1324341.000000
1325257.000000
1326162.000000
1326991.000000
1327864.000000
1328771.000000
1329646.000000
1330433.000000
1331261.000000
1332102.000000
1332969.000000
1333795.000000
1334628.000000
1335563.000000
1336479.000000
1337282.000000
1338147.000000
1339061.000000
1339945.000000
1340750.000000
1341608.000000
1342458.000000
1343256.000000
1344068.000000
1344915.000000
1345780.000000
1346581.000000
1347421.000000
1348304.000000
1349175.000000
1349971.000000
1350790.000000
1351655.000000
1352522.000000
1353325.000000
1354143.000000
1354979.000000
1355796.000000
1356555.000000
1357351.000000
1358175.000000
1359016.000000
1359820.000000
1360623.000000
1361473.000000
1362337.000000
1363154.000000
1363973.000000
1364809.000000
1365652.000000
1366452.000000
1367297.000000
1368186.000000
1369076.000000
1369893.000000
1370758.000000
1371638.000000
1372468.000000
1373297.000000
1374161.000000
1375007.000000
1375802.000000
1376650.000000
1377536.000000
1378379.000000
1379243.000000
1380134.000000
1381022.000000
1381848.000000
1382729.000000
1383651.000000
1384571.000000
1385390.000000
1386194.000000
1386999.000000
1387795.000000
1388567.000000
1389429.000000
1390396.000000
1391283.000000
1392247.000000
1393330.000000
1394248.000000
1395157.000000
1396078.000000
1396921.000000
1397792.000000
1398704.000000
1399587.000000
1400432.000000
1401336.000000
1402320.000000
1403223.000000
1404015.000000
1404820.000000
1405663.000000
1406539.000000
1407343.000000
1408097.000000
1409351.000000
1410307.000000
1411359.000000
1412405.000000
1413309.000000
1414225.000000
1415136.000000
1415975.000000
1416820.000000
1417728.000000
1418679.000000
1419558.000000
1420390.000000
1421283.000000
1422200.000000
1423089.000000
1423940.000000
1424725.000000
1425521.000000
1426361.000000
1427266.000000
1428125.000000
1429007.000000
1429957.000000
1430913.000000
1431771.000000
1432583.000000
1433426.000000
1434305.000000
1435184.000000
1436021.000000
1436966.000000
1437975.000000
1438877.000000
1439751.000000
1440609.000000
1441427.000000
1442190.000000
1442984.000000
1443835.000000
1444713.000000
1445543.000000
1446498.000000
1447517.000000
1448389.000000
1449213.000000
1450082.000000
1450946.000000
1451748.000000
1452562.000000
1453430.000000
1454310.000000
1455132.000000
1456016.000000
1456959.000000
1457872.000000
1458683.000000
1459496.000000
1460374.000000
1461252.000000
1462119.000000
1463093.000000
1464094.000000
1465013.000000
1465872.000000
1466770.000000
1467641.000000
1468491.000000
1469433.000000
1470424.000000
1471313.000000
1472244.000000
1473179.000000
1474023.000000
1474804.000000
1475609.000000
1476408.000000
1477218.000000
1477949.000000
1478737.000000
1480028.000000
1481150.000000
1482128.000000
1483088.000000
1484007.000000
1484854.000000
1485641.000000
1486471.000000
1487339.000000
1488231.000000
1489074.000000
1490033.000000
1491084.000000
1492072.000000
1492985.000000
1493930.000000
1494878.000000
1495743.000000
1496646.000000
1497602.000000
1498542.000000
1499402.000000
1500280.000000
1501142.000000
1501930.000000
1502694.000000
1503547.000000
1504448.000000
1505337.000000
1506170.000000
1507141.000000
1508184.000000
1509010.000000
1509894.000000
1510856.000000
1511740.000000
1512637.000000
1513607.000000
1514568.000000
1515422.000000
1516297.000000
1517241.000000
1518201.000000
1519067.000000
1519936.000000
1520854.000000
1521757.000000
1522586.000000
1523471.000000
1524405.000000
1525339.000000
1526165.000000
1527010.000000
1527902.000000
1528846.000000
1529728.000000
1530630.000000
1531547.000000
1532385.000000
1533196.000000
1534053.000000
1534972.000000
1535809.000000
1536703.000000
1537672.000000
1538566.000000
1539390.000000
1540270.000000
1541172.000000
1542014.000000
1542838.000000
1543689.000000
1544551.000000
1545346.000000
1546186.000000
1547076.000000
1547962.000000
1548777.000000
1549633.000000
1550594.000000
1551564.000000
1552422.000000
1553257.000000
1554119.000000
1555023.000000
1555877.000000
1556783.000000
1557804.000000
1558771.000000
1559705.000000
1560689.000000
1561664.000000
1562574.000000
1563477.000000
1564323.000000
1565099.000000
1565892.000000
1566774.000000
1567744.000000
1568620.000000
1569647.000000
1570671.000000
1571533.000000
1572474.000000
1573450.000000
1574376.000000
1575295.000000
1576318.000000
1577317.000000
1578206.000000
1579087.000000
1579993.000000
1580917.000000
1581806.000000
1582846.000000
1583870.000000
1584872.000000
1585803.000000
1586769.000000
1587758.000000
1588675.000000
1589615.000000
1590524.000000
1591384.000000
1592194.000000
1592965.000000
1594257.000000
1595260.000000
1596266.000000
1597371.000000
1598402.000000
1599273.000000
1600211.000000
1601198.000000
1602179.000000
1603029.000000
1603945.000000
1604931.000000
1605856.000000
1606692.000000
1607616.000000
1608586.000000
1609439.000000
1610278.000000
1611208.000000
1612089.000000
1612885.000000
1613687.000000
1614551.000000
1615472.000000
1616316.000000
1617120.000000
1617984.000000
1618871.000000
1619704.000000
1620475.000000
1621291.000000
1622140.000000
1623020.000000
1623822.000000
1624577.000000
1625379.000000
1626197.000000
1627004.000000
1627787.000000
1628627.000000
1629528.000000
1630431.000000
1631243.000000
1632041.000000
1632870.000000
1633694.000000
1634468.000000
1635294.000000
1636177.000000
1637045.000000
1637846.000000
1638617.000000
1639465.000000
1640336.000000
1641153.000000
1641974.000000
1642878.000000
1643812.000000
1644656.000000
1645487.000000
1646362.000000
1647285.000000
1648152.000000
1649065.000000
1650038.000000
1650936.000000
1651881.000000
1652799.000000
1653656.000000
1654428.000000
1655184.000000
1656025.000000
1656890.000000
1657711.000000
1658557.000000
1659590.000000
1660512.000000
1661348.000000
1662284.000000
1663228.000000
1664095.000000
1664995.000000
1665955.000000
1666788.000000
1667622.000000
1668524.000000
1669451.000000
1670354.000000
1671396.000000
1672496.000000
1673461.000000
1674462.000000
1675430.000000
1676332.000000
1677163.000000
1678062.000000
1679114.000000
1680147.000000
1681098.000000
1682114.000000
1683104.000000
1684014.000000
1684952.000000
1685919.000000
1686820.000000
1687645.000000
1688448.000000
1689452.000000
1690614.000000
1691612.000000
1692740.000000
1693832.000000
1694772.000000
1695709.000000
1696652.000000
1697488.000000
1698290.000000
1699132.000000
1700364.000000
1701201.000000
1701999.000000
1703167.000000
1703998.000000
1704860.000000
1705803.000000
1706706.000000
1707606.000000
1708623.000000
1709633.000000
1710530.000000
1711454.000000
1712431.000000
1713437.000000
1714331.000000
1715284.000000
1716362.000000
1717353.000000
1718236.000000
1719148.000000
1720118.000000
1721138.000000
1722075.000000
1723013.000000
1724011.000000
1725011.000000
1725929.000000
1726886.000000
1727867.000000
1728852.000000
1729752.000000
1730646.000000
1731616.000000
1732570.000000
1733483.000000
1734603.000000
1735738.000000
1736758.000000
1737752.000000
1738649.000000
1739431.000000
1740135.000000
1740852.000000
1741608.000000
1742356.000000
1743093.000000
1744409.000000
1745587.000000
1746577.000000
1747690.000000
1748725.000000
1749558.000000
1750336.000000
1751126.000000
1751907.000000
1752624.000000
1753368.000000
1754079.000000
1754764.000000
1755449.000000
1756158.000000
1756870.000000
1757611.000000
1758765.000000
1759791.000000
1760750.000000
1761758.000000
1762742.000000
1763639.000000
1764465.000000
1765343.000000
1766329.000000
1767347.000000
1768334.000000
1769209.000000
1770068.000000
1770985.000000
1771976.000000
1772987.000000
1773888.000000
1774823.000000
1775779.000000
1776757.000000
1777648.000000
1778592.000000
1779519.000000
1780355.000000
1781142.000000
1782022.000000
1783228.000000
1784260.000000
1785287.000000
1786457.000000
1787504.000000
1788428.000000
1789384.000000
1790291.000000
1791124.000000
1791894.000000
1793179.000000
1794235.000000
1795360.000000
1796543.000000
1797647.000000
