ECG (ms)
569.000000
1353.000000
2125.000000
2906.000000
3697.000000
4487.000000
5268.000000
6043.000000
6826.000000
7596.000000
8345.000000
9112.000000
9878.000000
10631.000000
11376.000000
12139.000000
12903.000000
13653.000000
14418.000000
15193.000000
15968.000000
16720.000000
17480.000000
18243.000000
19000.000000
19758.000000
20515.000000
21275.000000
22024.000000
22770.000000
23522.000000
24268.000000
24997.000000
25735.000000
26480.000000
27220.000000
27953.000000
28694.000000
29448.000000
30193.000000
30924.000000
31660.000000
32391.000000
33117.000000
33845.000000
34585.000000
35328.000000
36067.000000
36811.000000
37560.000000
38306.000000
39054.000000
39803.000000
40552.000000
41284.000000
42026.000000
42780.000000
43541.000000
44291.000000
45036.000000
45790.000000
46546.000000
47284.000000
48022.000000
48770.000000
49518.000000
50250.000000
50987.000000
51735.000000
52474.000000
53214.000000
53969.000000
54727.000000
55468.000000
56208.000000
56963.000000
57720.000000
58463.000000
59216.000000
59964.000000
60715.000000
61462.000000
62219.000000
62992.000000
63766.000000
64547.000000
65334.000000
66111.000000
66869.000000
67631.000000
68385.000000
69127.000000
69858.000000
70584.000000
71313.000000
72034.000000
72763.000000
73513.000000
74270.000000
75013.000000
75762.000000
76513.000000
77256.000000
77992.000000
78729.000000
79478.000000
80225.000000
80963.000000
81706.000000
82460.000000
83230.000000
83991.000000
84749.000000
85504.000000
86244.000000
86968.000000
87679.000000
88392.000000
89105.000000
89816.000000
90524.000000
91243.000000
91968.000000
92697.000000
93428.000000
94156.000000
94877.000000
95588.000000
96289.000000
96984.000000
97644.000000
98297.000000
98957.000000
99623.000000
100304.000000
100998.000000
101714.000000
102434.000000
103172.000000
103919.000000
104666.000000
105398.000000
106129.000000
106860.000000
107578.000000
108286.000000
109003.000000
109720.000000
110442.000000
111157.000000
111882.000000
112617.000000
113368.000000
114108.000000
114857.000000
115613.000000
116358.000000
117092.000000
117828.000000
118554.000000
119271.000000
119987.000000
120709.000000
121441.000000
122169.000000
122905.000000
123663.000000
124421.000000
125176.000000
125932.000000
126710.000000
127488.000000
128240.000000
129000.000000
129759.000000
130520.000000
131266.000000
132018.000000
132782.000000
133546.000000
134325.000000
135116.000000
135918.000000
136722.000000
137522.000000
138320.000000
139102.000000
139872.000000
140639.000000
141405.000000
142154.000000
142909.000000
143679.000000
144460.000000
145233.000000
146009.000000
146785.000000
147562.000000
148325.000000
149086.000000
149845.000000
150580.000000
151315.000000
152070.000000
152840.000000
153624.000000
154395.000000
155176.000000
155965.000000
156741.000000
157513.000000
158301.000000
159087.000000
159857.000000
160620.000000
161386.000000
162161.000000
162927.000000
163691.000000
164470.000000
165255.000000
166036.000000
166808.000000
167599.000000
168385.000000
169169.000000
169931.000000
170694.000000
171467.000000
172226.000000
172981.000000
173746.000000
174517.000000
175279.000000
176037.000000
176797.000000
177569.000000
178322.000000
179077.000000
179837.000000
180597.000000
181350.000000
182103.000000
182870.000000
183639.000000
184393.000000
185146.000000
185891.000000
186620.000000
187338.000000
188058.000000
188744.000000
189420.000000
190102.000000
190788.000000
191479.000000
192181.000000
192883.000000
193582.000000
194274.000000
194972.000000
195671.000000
196364.000000
197063.000000
197764.000000
198465.000000
199159.000000
199848.000000
200553.000000
201261.000000
201961.000000
202664.000000
203372.000000
204084.000000
204789.000000
205499.000000
206229.000000
206956.000000
207675.000000
208392.000000
209107.000000
209819.000000
210519.000000
211224.000000
211941.000000
212652.000000
213374.000000
214107.000000
214856.000000
215607.000000
216349.000000
217103.000000
217849.000000
218595.000000
219341.000000
220108.000000
220880.000000
221636.000000
222404.000000
223175.000000
223963.000000
224734.000000
225508.000000
226295.000000
227073.000000
227828.000000
228582.000000
229338.000000
230083.000000
230822.000000
231564.000000
232313.000000
233066.000000
233807.000000
234552.000000
235314.000000
236069.000000
236807.000000
237544.000000
238282.000000
239005.000000
239724.000000
240445.000000
241174.000000
241906.000000
242628.000000
243360.000000
244101.000000
244837.000000
245563.000000
246294.000000
247023.000000
247750.000000
248468.000000
249193.000000
249933.000000
250676.000000
251413.000000
252151.000000
252894.000000
253635.000000
254368.000000
255105.000000
255846.000000
256588.000000
257321.000000
258072.000000
258836.000000
259598.000000
260347.000000
261103.000000
261864.000000
262618.000000
263368.000000
264115.000000
264856.000000
265573.000000
266294.000000
267012.000000
267740.000000
268474.000000
269211.000000
269950.000000
270693.000000
271436.000000
272166.000000
272898.000000
273636.000000
274360.000000
275086.000000
275813.000000
276538.000000
277249.000000
277955.000000
278659.000000
279336.000000
279996.000000
280656.000000
281315.000000
281982.000000
282669.000000
283382.000000
284119.000000
284862.000000
285614.000000
286374.000000
287139.000000
287879.000000
288627.000000
289383.000000
290143.000000
290888.000000
291633.000000
292389.000000
293132.000000
293865.000000
294600.000000
295349.000000
296129.000000
296889.000000
297669.000000
298458.000000
299253.000000
300032.000000
300815.000000
301605.000000
302370.000000
303132.000000
303891.000000
304659.000000
305427.000000
306191.000000
306968.000000
307752.000000
308528.000000
309314.000000
310109.000000
310902.000000
311682.000000
312449.000000
313224.000000
314007.000000
314789.000000
315549.000000
316317.000000
317098.000000
317866.000000
318616.000000
319375.000000
320137.000000
320885.000000
321623.000000
322366.000000
323107.000000
323842.000000
324581.000000
325328.000000
326068.000000
326792.000000
327524.000000
328262.000000
328994.000000
329713.000000
330446.000000
331198.000000
331954.000000
332695.000000
333452.000000
334212.000000
334963.000000
335703.000000
336443.000000
337196.000000
337954.000000
338700.000000
339453.000000
340223.000000
340981.000000
341730.000000
342476.000000
343226.000000
343968.000000
344697.000000
345434.000000
346171.000000
346894.000000
347616.000000
348339.000000
349068.000000
349788.000000
350502.000000
351232.000000
351964.000000
352689.000000
353416.000000
354145.000000
354869.000000
355584.000000
356303.000000
357031.000000
357765.000000
358497.000000
359221.000000
359951.000000
360683.000000
361418.000000
362139.000000
362868.000000
363597.000000
364326.000000
365034.000000
365751.000000
366465.000000
367178.000000
367888.000000
368612.000000
369348.000000
370093.000000
370825.000000
371562.000000
372298.000000
373036.000000
373764.000000
374501.000000
375244.000000
375996.000000
376735.000000
377496.000000
378251.000000
379008.000000
379756.000000
380523.000000
381310.000000
382094.000000
382856.000000
383628.000000
384406.000000
385181.000000
385943.000000
386705.000000
387487.000000
388273.000000
389043.000000
389826.000000
390602.000000
391365.000000
392122.000000
392872.000000
393609.000000
394331.000000
395052.000000
395781.000000
396506.000000
397236.000000
397981.000000
398731.000000
399472.000000
400220.000000
400983.000000
401746.000000
402503.000000
403262.000000
404031.000000
404814.000000
405585.000000
406363.000000
407127.000000
407872.000000
408620.000000
409383.000000
410145.000000
410895.000000
411653.000000
412410.000000
413163.000000
413915.000000
414680.000000
415451.000000
416207.000000
416963.000000
417736.000000
418525.000000
419300.000000
420063.000000
420824.000000
421600.000000
422363.000000
423116.000000
423881.000000
424646.000000
425414.000000
426165.000000
426911.000000
427671.000000
428429.000000
429180.000000
429934.000000
430693.000000
431485.000000
432259.000000
432996.000000
433709.000000
434392.000000
435060.000000
435712.000000
436349.000000
436987.000000
437639.000000
438309.000000
439012.000000
439740.000000
440452.000000
441155.000000
441834.000000
442520.000000
443230.000000
443949.000000
444697.000000
445478.000000
446263.000000
447037.000000
447810.000000
448595.000000
449382.000000
450149.000000
450925.000000
451714.000000
452502.000000
453275.000000
454071.000000
454868.000000
455652.000000
456432.000000
457221.000000
458004.000000
458768.000000
459548.000000
460340.000000
461114.000000
461874.000000
462632.000000
463393.000000
464143.000000
464896.000000
465666.000000
466432.000000
467186.000000
467946.000000
468718.000000
469490.000000
470243.000000
470999.000000
471758.000000
472509.000000
473252.000000
474007.000000
474776.000000
475543.000000
476286.000000
477032.000000
477784.000000
478537.000000
479268.000000
480014.000000
480767.000000
481520.000000
482267.000000
483012.000000
483779.000000
484540.000000
485290.000000
486047.000000
486805.000000
487566.000000
488317.000000
489072.000000
489840.000000
490618.000000
491386.000000
492161.000000
492953.000000
493748.000000
494528.000000
495316.000000
496107.000000
496879.000000
497651.000000
498437.000000
499216.000000
500003.000000
500777.000000
501567.000000
502359.000000
503138.000000
503931.000000
504721.000000
505515.000000
506299.000000
507088.000000
507883.000000
508662.000000
509445.000000
510233.000000
511012.000000
511793.000000
512581.000000
513385.000000
514161.000000
514944.000000
515728.000000
516505.000000
517270.000000
518045.000000
518826.000000
519608.000000
520383.000000
521166.000000
521953.000000
522716.000000
523474.000000
524236.000000
524999.000000
525755.000000
526503.000000
527253.000000
528003.000000
528740.000000
529484.000000
530231.000000
530989.000000
531729.000000
532465.000000
533212.000000
533951.000000
534680.000000
535411.000000
536137.000000
536843.000000
537522.000000
538197.000000
538872.000000
539557.000000
540249.000000
540960.000000
541668.000000
542370.000000
543076.000000
543790.000000
544496.000000
545207.000000
545920.000000
546645.000000
547372.000000
548087.000000
548798.000000
549512.000000
550233.000000
550944.000000
551658.000000
552374.000000
553097.000000
553813.000000
554520.000000
555226.000000
555934.000000
556619.000000
557288.000000
557958.000000
558626.000000
559308.000000
560003.000000
560704.000000
561400.000000
562096.000000
562801.000000
563508.000000
564206.000000
564907.000000
565609.000000
566318.000000
567022.000000
567725.000000
568435.000000
569151.000000
569857.000000
570566.000000
571274.000000
571981.000000
572684.000000
573383.000000
574088.000000
574811.000000
575529.000000
576244.000000
576965.000000
577685.000000
578386.000000
579086.000000
579787.000000
580484.000000
581173.000000
581869.000000
582567.000000
583259.000000
583950.000000
584647.000000
585350.000000
586033.000000
586693.000000
587346.000000
588000.000000
588666.000000
589342.000000
590038.000000
590740.000000
591456.000000
592186.000000
592923.000000
593664.000000
594413.000000
595166.000000
595908.000000
596645.000000
597381.000000
598111.000000
598839.000000
599558.000000
600282.000000
601016.000000
601750.000000
602493.000000
603246.000000
604009.000000
604762.000000
605523.000000
606279.000000
607029.000000
607761.000000
608492.000000
609213.000000
609924.000000
610630.000000
611341.000000
612067.000000
612790.000000
613520.000000
614258.000000
614990.000000
615705.000000
616427.000000
617151.000000
617875.000000
618593.000000
619317.000000
620049.000000
620789.000000
621518.000000
622257.000000
623007.000000
623752.000000
624491.000000
625232.000000
625979.000000
626734.000000
627468.000000
628208.000000
628952.000000
629690.000000
630418.000000
631153.000000
631896.000000
632653.000000
633401.000000
634150.000000
634913.000000
635682.000000
636435.000000
637189.000000
637957.000000
638722.000000
639461.000000
640202.000000
640943.000000
641680.000000
642401.000000
643127.000000
643863.000000
644601.000000
645332.000000
646079.000000
646835.000000
647579.000000
648320.000000
649060.000000
649804.000000
650541.000000
651268.000000
651999.000000
652741.000000
653461.000000
654192.000000
654927.000000
655657.000000
656382.000000
657108.000000
657839.000000
658575.000000
659311.000000
660054.000000
660799.000000
661556.000000
662307.000000
663061.000000
663808.000000
664550.000000
665279.000000
666002.000000
666728.000000
667454.000000
668178.000000
668908.000000
669645.000000
670384.000000
671111.000000
671830.000000
672552.000000
673272.000000
673981.000000
674684.000000
675386.000000
676079.000000
676770.000000
677453.000000
678130.000000
678797.000000
679456.000000
680100.000000
680726.000000
681349.000000
681980.000000
682620.000000
683270.000000
683941.000000
684622.000000
685309.000000
686012.000000
686721.000000
687428.000000
688133.000000
688849.000000
689570.000000
690284.000000
690993.000000
691690.000000
692387.000000
693081.000000
693777.000000
694480.000000
695193.000000
695896.000000
696594.000000
697296.000000
698004.000000
698706.000000
699406.000000
700112.000000
700814.000000
701510.000000
702216.000000
702936.000000
703670.000000
704391.000000
705112.000000
705836.000000
706562.000000
707269.000000
707985.000000
708699.000000
709412.000000
710112.000000
710819.000000
711534.000000
712245.000000
712946.000000
713653.000000
714368.000000
715097.000000
715818.000000
716537.000000
717259.000000
717988.000000
718707.000000
719422.000000
720141.000000
720862.000000
721584.000000
722306.000000
723032.000000
723778.000000
724532.000000
725271.000000
726018.000000
726770.000000
727535.000000
728284.000000
729043.000000
729793.000000
730541.000000
731278.000000
732020.000000
732774.000000
733539.000000
734303.000000
735078.000000
735870.000000
736654.000000
737433.000000
738228.000000
739021.000000
739807.000000
740580.000000
741370.000000
742162.000000
742947.000000
743737.000000
744533.000000
745307.000000
746086.000000
746864.000000
747647.000000
748411.000000
749187.000000
749978.000000
750764.000000
751553.000000
752349.000000
753144.000000
753934.000000
754732.000000
755534.000000
756322.000000
757116.000000
757923.000000
758727.000000
759532.000000
760343.000000
761134.000000
761918.000000
762708.000000
763506.000000
764289.000000
765074.000000
765862.000000
766655.000000
767457.000000
768240.000000
769026.000000
769822.000000
770592.000000
771366.000000
772143.000000
772910.000000
773660.000000
774418.000000
775189.000000
775974.000000
776742.000000
777524.000000
778325.000000
779107.000000
779872.000000
780648.000000
781409.000000
782163.000000
782896.000000
783623.000000
784344.000000
785074.000000
785796.000000
786522.000000
787270.000000
788029.000000
788778.000000
789531.000000
790288.000000
791029.000000
791761.000000
792494.000000
793232.000000
793964.000000
794683.000000
795418.000000
796156.000000
796887.000000
797613.000000
798342.000000
799071.000000
799792.000000
800507.000000
801220.000000
801938.000000
802654.000000
803363.000000
804071.000000
804786.000000
805510.000000
806231.000000
806967.000000
807710.000000
808464.000000
809200.000000
809942.000000
810683.000000
811412.000000
812138.000000
812868.000000
813597.000000
814331.000000
815055.000000
815785.000000
816521.000000
817265.000000
817999.000000
818747.000000
819500.000000
820250.000000
820988.000000
821725.000000
822462.000000
823206.000000
823930.000000
824658.000000
825384.000000
826120.000000
826846.000000
827580.000000
828330.000000
829091.000000
829840.000000
830591.000000
831346.000000
832104.000000
832860.000000
833610.000000
834372.000000
835131.000000
835897.000000
836653.000000
837413.000000
838183.000000
838960.000000
839722.000000
840486.000000
841264.000000
842045.000000
842800.000000
843568.000000
844347.000000
845114.000000
845873.000000
846642.000000
847405.000000
848160.000000
848898.000000
849646.000000
850395.000000
851139.000000
851876.000000
852616.000000
853365.000000
854118.000000
854865.000000
855622.000000
856389.000000
857160.000000
857917.000000
858680.000000
859461.000000
860242.000000
861010.000000
861787.000000
862551.000000
863302.000000
864036.000000
864774.000000
865520.000000
866261.000000
867008.000000
867765.000000
868533.000000
869300.000000
870082.000000
870868.000000
871633.000000
872397.000000
873155.000000
873906.000000
874638.000000
875356.000000
876076.000000
876806.000000
877546.000000
878283.000000
879035.000000
879789.000000
880541.000000
881290.000000
882045.000000
882818.000000
883587.000000
884335.000000
885092.000000
885855.000000
886613.000000
887363.000000
888127.000000
888892.000000
889639.000000
890382.000000
891130.000000
891877.000000
892617.000000
893352.000000
894096.000000
894852.000000
895624.000000
896375.000000
897135.000000
897901.000000
898667.000000
899409.000000
900163.000000
900924.000000
901690.000000
902443.000000
903190.000000
903945.000000
904712.000000
905472.000000
906239.000000
907018.000000
907800.000000
908564.000000
909326.000000
910098.000000
910885.000000
911649.000000
912412.000000
913191.000000
913984.000000
914774.000000
915546.000000
916320.000000
917110.000000
917908.000000
918684.000000
919464.000000
920254.000000
921049.000000
921832.000000
922618.000000
923409.000000
924193.000000
924959.000000
925732.000000
926524.000000
927310.000000
928101.000000
928907.000000
929700.000000
930464.000000
931226.000000
931995.000000
932759.000000
933509.000000
934270.000000
935055.000000
935860.000000
936645.000000
937428.000000
938209.000000
938970.000000
939716.000000
940469.000000
941228.000000
941975.000000
942718.000000
943480.000000
944253.000000
945010.000000
945759.000000
946514.000000
947273.000000
948023.000000
948763.000000
949514.000000
950272.000000
951023.000000
951774.000000
952519.000000
953262.000000
954006.000000
954732.000000
955465.000000
956215.000000
956970.000000
957725.000000
958487.000000
959262.000000
960035.000000
960791.000000
961564.000000
962337.000000
963105.000000
963856.000000
964613.000000
965390.000000
966175.000000
966940.000000
967704.000000
968463.000000
969214.000000
969951.000000
970694.000000
971436.000000
972183.000000
972937.000000
973682.000000
974427.000000
975166.000000
975887.000000
976597.000000
977317.000000
978036.000000
978730.000000
979406.000000
980082.000000
980759.000000
981435.000000
982094.000000
982748.000000
983405.000000
984061.000000
984720.000000
985387.000000
986072.000000
986756.000000
987439.000000
988117.000000
988798.000000
989483.000000
990169.000000
990849.000000
991527.000000
992217.000000
992918.000000
993606.000000
994295.000000
994993.000000
995703.000000
996425.000000
997135.000000
997844.000000
998560.000000
999286.000000
1000000.000000
1000713.000000
1001427.000000
1002146.000000
1002873.000000
1003594.000000
1004318.000000
1005051.000000
1005783.000000
1006509.000000
1007228.000000
1007949.000000
1008675.000000
1009406.000000
1010134.000000
1010865.000000
1011603.000000
1012352.000000
1013105.000000
1013842.000000
1014580.000000
1015322.000000
1016063.000000
1016786.000000
1017517.000000
1018239.000000
1018972.000000
1019690.000000
1020427.000000
1021166.000000
1021911.000000
1022645.000000
1023385.000000
1024128.000000
1024888.000000
1025643.000000
1026387.000000
1027127.000000
1027869.000000
1028609.000000
1029334.000000
1030075.000000
1030822.000000
1031575.000000
1032317.000000
1033063.000000
1033816.000000
1034588.000000
1035354.000000
1036115.000000
1036887.000000
1037655.000000
1038418.000000
1039180.000000
1039968.000000
1040779.000000
1041585.000000
1042388.000000
1043202.000000
1044018.000000
1044798.000000
1045577.000000
1046349.000000
1047097.000000
1047832.000000
1048571.000000
1049317.000000
1050051.000000
1050772.000000
1051499.000000
1052230.000000
1052947.000000
1053669.000000
1054398.000000
1055130.000000
1055858.000000
1056594.000000
1057339.000000
1058091.000000
1058826.000000
1059569.000000
1060325.000000
1061083.000000
1061827.000000
1062577.000000
1063329.000000
1064075.000000
1064809.000000
1065548.000000
1066291.000000
1067036.000000
1067769.000000
1068508.000000
1069244.000000
1069981.000000
1070717.000000
1071462.000000
1072215.000000
1072983.000000
1073730.000000
1074480.000000
1075235.000000
1075982.000000
1076709.000000
1077431.000000
1078161.000000
1078892.000000
1079613.000000
1080342.000000
1081086.000000
1081838.000000
1082573.000000
1083319.000000
1084068.000000
1084809.000000
1085542.000000
1086275.000000
1087019.000000
1087768.000000
1088508.000000
1089249.000000
1089996.000000
1090745.000000
1091490.000000
1092225.000000
1092962.000000
1093708.000000
1094452.000000
1095180.000000
1095915.000000
1096650.000000
1097390.000000
1098126.000000
1098866.000000
1099615.000000
1100374.000000
1101131.000000
1101871.000000
1102623.000000
1103385.000000
1104157.000000
1104904.000000
1105653.000000
1106407.000000
1107169.000000
1107910.000000
1108655.000000
1109404.000000
1110155.000000
1110892.000000
1111631.000000
1112372.000000
1113116.000000
1113852.000000
1114587.000000
1115331.000000
1116087.000000
1116844.000000
1117582.000000
1118336.000000
1119090.000000
1119839.000000
1120576.000000
1121321.000000
1122068.000000
1122813.000000
1123549.000000
1124289.000000
1125043.000000
1125814.000000
1126561.000000
1127304.000000
1128055.000000
1128801.000000
1129549.000000
1130299.000000
1131057.000000
1131812.000000
1132553.000000
1133295.000000
1134035.000000
1134774.000000
1135499.000000
1136226.000000
1136958.000000
1137688.000000
1138412.000000
1139124.000000
1139846.000000
1140566.000000
1141279.000000
1141989.000000
1142703.000000
1143420.000000
1144148.000000
1144863.000000
1145579.000000
1146304.000000
1147042.000000
1147780.000000
1148515.000000
1149257.000000
1150008.000000
1150747.000000
1151487.000000
1152236.000000
1152987.000000
1153720.000000
1154453.000000
1155199.000000
1155938.000000
1156668.000000
1157412.000000
1158165.000000
1158917.000000
1159641.000000
1160371.000000
1161108.000000
1161849.000000
1162580.000000
1163316.000000
1164071.000000
1164861.000000
1165648.000000
1166419.000000
1167198.000000
1167986.000000
1168768.000000
1169537.000000
1170289.000000
1171041.000000
1171793.000000
1172528.000000
1173258.000000
1173988.000000
1174731.000000
1175468.000000
1176202.000000
1176948.000000
1177706.000000
1178449.000000
1179167.000000
1179855.000000
1180524.000000
1181194.000000
1181865.000000
1182558.000000
1183277.000000
1183997.000000
1184718.000000
1185424.000000
1186129.000000
1186835.000000
1187537.000000
1188234.000000
1188935.000000
1189642.000000
1190346.000000
1191049.000000
1191750.000000
1192461.000000
1193175.000000
1193878.000000
1194580.000000
1195293.000000
1196014.000000
1196729.000000
1197444.000000
1198171.000000
1198912.000000
1199643.000000
1200363.000000
1201089.000000
1201826.000000
1202553.000000
1203271.000000
1203992.000000
1204720.000000
1205461.000000
1206195.000000
1206938.000000
1207692.000000
1208450.000000
1209202.000000
1209949.000000
1210701.000000
1211461.000000
1212215.000000
1212958.000000
1213702.000000
1214455.000000
1215206.000000
1215939.000000
1216684.000000
1217433.000000
1218171.000000
1218899.000000
1219632.000000
1220371.000000
1221107.000000
1221843.000000
1222576.000000
1223317.000000
1224049.000000
1224773.000000
1225508.000000
1226250.000000
1226998.000000
1227729.000000
1228459.000000
1229186.000000
1229938.000000
1230680.000000
1231413.000000
1232152.000000
1232893.000000
1233643.000000
1234377.000000
1235107.000000
1235854.000000
1236616.000000
1237368.000000
1238106.000000
1238854.000000
1239609.000000
1240352.000000
1241077.000000
1241800.000000
1242521.000000
1243243.000000
1243963.000000
1244691.000000
1245440.000000
1246195.000000
1246942.000000
1247689.000000
1248446.000000
1249212.000000
1249977.000000
1250734.000000
1251494.000000
1252256.000000
1252998.000000
1253735.000000
1254480.000000
1255235.000000
1255977.000000
1256721.000000
1257468.000000
1258225.000000
1258971.000000
1259717.000000
1260472.000000
1261219.000000
1261962.000000
1262678.000000
1263397.000000
1264117.000000
1264843.000000
1265576.000000
1266299.000000
1267027.000000
1267766.000000
1268503.000000
1269237.000000
1269963.000000
1270699.000000
1271438.000000
1272165.000000
1272894.000000
1273629.000000
1274365.000000
1275083.000000
1275800.000000
1276528.000000
1277257.000000
1277978.000000
1278694.000000
1279417.000000
1280147.000000
1280876.000000
1281611.000000
1282343.000000
1283088.000000
1283834.000000
1284566.000000
1285296.000000
1286031.000000
1286770.000000
1287494.000000
1288226.000000
1288966.000000
1289724.000000
1290465.000000
1291213.000000
1291980.000000
1292752.000000
1293508.000000
1294252.000000
1294996.000000
1295740.000000
1296481.000000
1297221.000000
1297981.000000
1298749.000000
1299523.000000
1300296.000000
1301071.000000
1301862.000000
1302643.000000
1303397.000000
1304157.000000
1304913.000000
1305657.000000
1306386.000000
1307109.000000
1307838.000000
1308576.000000
1309317.000000
1310051.000000
1310795.000000
1311556.000000
1312323.000000
1313077.000000
1313829.000000
1314590.000000
1315362.000000
1316119.000000
1316867.000000
1317616.000000
1318367.000000
1319100.000000
1319828.000000
1320566.000000
1321315.000000
1322072.000000
1322829.000000
1323589.000000
1324355.000000
1325122.000000
1325880.000000
1326644.000000
1327420.000000
1328200.000000
1328976.000000
1329755.000000
1330530.000000
1331291.000000
1332044.000000
1332798.000000
1333560.000000
1334323.000000
1335079.000000
1335850.000000
1336630.000000
1337394.000000
1338149.000000
1338916.000000
1339684.000000
1340440.000000
1341189.000000
1341954.000000
1342715.000000
1343470.000000
1344222.000000
1344994.000000
1345762.000000
1346522.000000
1347268.000000
1348022.000000
1348805.000000
1349595.000000
1350364.000000
1351132.000000
1351871.000000
1352579.000000
1353277.000000
1353957.000000
1354619.000000
1355280.000000
1355944.000000
1356625.000000
1357315.000000
1358014.000000
1358707.000000
1359418.000000
1360147.000000
1360880.000000
1361608.000000
1362349.000000
1363105.000000
1363859.000000
1364604.000000
1365358.000000
1366116.000000
1366862.000000
1367601.000000
1368346.000000
1369094.000000
1369841.000000
1370582.000000
1371337.000000
1372101.000000
1372854.000000
1373593.000000
1374332.000000
1375075.000000
1375813.000000
1376541.000000
1377286.000000
1378038.000000
1378789.000000
1379539.000000
1380301.000000
1381065.000000
1381823.000000
1382598.000000
1383365.000000
1384130.000000
1384890.000000
1385648.000000
1386403.000000
1387156.000000
1387901.000000
1388650.000000
1389403.000000
1390158.000000
1390909.000000
1391664.000000
1392423.000000
1393177.000000
1393910.000000
1394637.000000
1395381.000000
1396136.000000
1396879.000000
1397622.000000
1398361.000000
1399112.000000
1399862.000000
1400597.000000
1401331.000000
1402069.000000
1402811.000000
1403547.000000
1404279.000000
1405013.000000
1405754.000000
1406499.000000
1407233.000000
1407974.000000
1408717.000000
1409467.000000
1410209.000000
1410941.000000
1411684.000000
1412436.000000
1413186.000000
1413919.000000
1414645.000000
1415383.000000
1416123.000000
1416859.000000
1417586.000000
1418315.000000
1419055.000000
1419800.000000
1420539.000000
1421276.000000
1422023.000000
1422776.000000
1423520.000000
1424252.000000
1424985.000000
1425722.000000
1426452.000000
1427174.000000
1427898.000000
1428630.000000
1429360.000000
1430077.000000
1430799.000000
1431521.000000
1432245.000000
1432971.000000
1433694.000000
1434434.000000
1435189.000000
1435947.000000
1436693.000000
1437433.000000
1438178.000000
1438940.000000
1439697.000000
1440453.000000
1441210.000000
1441969.000000
1442716.000000
1443452.000000
1444205.000000
1444957.000000
1445685.000000
1446416.000000
1447166.000000
1447919.000000
1448661.000000
1449404.000000
1450143.000000
1450882.000000
1451609.000000
1452350.000000
1453101.000000
1453854.000000
1454594.000000
1455334.000000
1456084.000000
1456821.000000
1457551.000000
1458281.000000
1459019.000000
1459750.000000
1460475.000000
1461201.000000
1461936.000000
1462666.000000
1463384.000000
1464110.000000
1464843.000000
1465568.000000
1466280.000000
1466998.000000
1467715.000000
1468430.000000
1469135.000000
1469835.000000
1470536.000000
1471240.000000
1471935.000000
1472631.000000
1473339.000000
1474060.000000
1474774.000000
1475476.000000
1476179.000000
1476886.000000
1477595.000000
1478295.000000
1478996.000000
1479697.000000
1480410.000000
1481120.000000
1481825.000000
1482530.000000
1483239.000000
1483949.000000
1484649.000000
1485347.000000
1486053.000000
1486761.000000
1487470.000000
1488175.000000
1488877.000000
1489589.000000
1490305.000000
1491018.000000
1491733.000000
1492457.000000
1493186.000000
1493909.000000
1494622.000000
1495339.000000
1496067.000000
1496794.000000
1497515.000000
1498235.000000
1498955.000000
1499674.000000
1500377.000000
1501082.000000
1501791.000000
1502501.000000
1503209.000000
1503908.000000
1504613.000000
1505327.000000
1506050.000000
1506760.000000
1507471.000000
1508187.000000
1508912.000000
1509634.000000
1510352.000000
1511086.000000
1511818.000000
1512555.000000
1513283.000000
1514011.000000
1514745.000000
1515486.000000
1516213.000000
1516941.000000
1517667.000000
1518400.000000
1519126.000000
1519853.000000
1520588.000000
1521332.000000
1522073.000000
1522804.000000
1523538.000000
1524289.000000
1525042.000000
1525796.000000
1526532.000000
1527273.000000
1528020.000000
1528768.000000
1529506.000000
1530253.000000
1531004.000000
1531754.000000
1532495.000000
1533237.000000
1533990.000000
1534742.000000
1535484.000000
1536216.000000
1536962.000000
1537696.000000
1538425.000000
1539160.000000
1539894.000000
1540637.000000
1541371.000000
1542103.000000
1542843.000000
1543584.000000
1544320.000000
1545053.000000
1545787.000000
1546515.000000
1547233.000000
1547944.000000
1548662.000000
1549386.000000
1550105.000000
1550819.000000
1551536.000000
1552253.000000
1552962.000000
1553661.000000
1554363.000000
1555075.000000
1555787.000000
1556500.000000
1557217.000000
1557938.000000
1558662.000000
1559370.000000
1560080.000000
1560781.000000
1561457.000000
1562116.000000
1562766.000000
1563410.000000
1564066.000000
1564740.000000
1565444.000000
1566176.000000
1566904.000000
1567637.000000
1568392.000000
1569144.000000
1569896.000000
1570643.000000
1571403.000000
1572163.000000
1572907.000000
1573649.000000
1574402.000000
1575168.000000
1575938.000000
1576709.000000
1577486.000000
1578274.000000
1579052.000000
1579817.000000
1580586.000000
1581368.000000
1582150.000000
1582920.000000
1583682.000000
1584449.000000
1585217.000000
1585969.000000
1586722.000000
1587476.000000
1588226.000000
1588968.000000
1589701.000000
1590438.000000
1591196.000000
1591948.000000
1592688.000000
1593433.000000
1594186.000000
1594944.000000
1595694.000000
1596449.000000
1597247.000000
1598048.000000
1598843.000000
1599627.000000
1600406.000000
1601196.000000
1601981.000000
1602750.000000
1603514.000000
1604277.000000
1605038.000000
1605782.000000
1606528.000000
1607279.000000
1608031.000000
1608778.000000
1609512.000000
1610253.000000
1611012.000000
1611769.000000
1612512.000000
1613247.000000
1613988.000000
1614726.000000
1615448.000000
1616164.000000
1616877.000000
1617586.000000
1618278.000000
1618965.000000
1619663.000000
1620372.000000
1621076.000000
1621793.000000
1622511.000000
1623239.000000
1623955.000000
1624674.000000
1625396.000000
1626122.000000
1626847.000000
1627568.000000
1628292.000000
1629020.000000
1629732.000000
1630445.000000
1631159.000000
1631875.000000
1632602.000000
1633317.000000
1634032.000000
1634749.000000
1635458.000000
1636157.000000
1636856.000000
1637564.000000
1638272.000000
1638974.000000
1639686.000000
1640406.000000
1641133.000000
1641852.000000
1642574.000000
1643310.000000
1644049.000000
1644785.000000
1645525.000000
1646273.000000
1647030.000000
1647783.000000
1648534.000000
1649295.000000
1650056.000000
1650814.000000
1651556.000000
1652295.000000
1653043.000000
1653792.000000
1654522.000000
1655264.000000
1656007.000000
1656758.000000
1657503.000000
1658241.000000
1658980.000000
1659731.000000
1660475.000000
1661200.000000
1661941.000000
1662680.000000
1663417.000000
1664146.000000
1664869.000000
1665598.000000
1666337.000000
1667068.000000
1667797.000000
1668538.000000
1669279.000000
1670012.000000
1670735.000000
1671461.000000
1672188.000000
1672912.000000
1673625.000000
1674328.000000
1675033.000000
1675741.000000
1676436.000000
1677137.000000
1677848.000000
1678571.000000
1679282.000000
1679996.000000
1680712.000000
1681438.000000
1682165.000000
1682886.000000
1683611.000000
1684344.000000
1685080.000000
1685810.000000
1686538.000000
1687275.000000
1688022.000000
1688764.000000
1689492.000000
1690215.000000
1690952.000000
1691698.000000
1692434.000000
1693172.000000
1693911.000000
1694660.000000
1695399.000000
1696136.000000
1696879.000000
1697641.000000
1698402.000000
1699150.000000
1699885.000000
1700630.000000
1701379.000000
1702116.000000
1702861.000000
1703607.000000
1704344.000000
1705079.000000
1705824.000000
1706582.000000
1707330.000000
1708076.000000
1708828.000000
1709584.000000
1710333.000000
1711086.000000
1711841.000000
1712601.000000
1713348.000000
1714098.000000
1714847.000000
1715604.000000
1716360.000000
1717128.000000
1717895.000000
1718656.000000
1719412.000000
1720180.000000
1720948.000000
1721710.000000
1722455.000000
1723203.000000
1723964.000000
1724727.000000
1725477.000000
1726219.000000
1726964.000000
1727707.000000
1728456.000000
1729204.000000
1729950.000000
1730692.000000
1731434.000000
1732170.000000
1732900.000000
1733637.000000
1734383.000000
1735126.000000
1735873.000000
1736624.000000
1737385.000000
1738138.000000
1738880.000000
1739625.000000
1740374.000000
1741118.000000
1741854.000000
1742595.000000
1743339.000000
1744091.000000
1744840.000000
1745589.000000
1746347.000000
1747112.000000
1747863.000000
1748604.000000
1749359.000000
1750112.000000
1750863.000000
1751610.000000
1752356.000000
1753106.000000
1753849.000000
1754581.000000
1755314.000000
1756057.000000
1756797.000000
1757529.000000
1758259.000000
1759005.000000
1759757.000000
1760505.000000
1761245.000000
1761994.000000
1762740.000000
1763475.000000
1764207.000000
1764946.000000
1765682.000000
1766408.000000
1767135.000000
1767872.000000
1768612.000000
1769349.000000
1770080.000000
1770791.000000
1771477.000000
1772142.000000
1772806.000000
1773479.000000
1774158.000000
1774852.000000
1775556.000000
1776281.000000
1777019.000000
1777755.000000
1778493.000000
1779239.000000
1779986.000000
1780718.000000
1781455.000000
1782188.000000
1782930.000000
1783666.000000
1784396.000000
1785128.000000
1785870.000000
1786609.000000
1787346.000000
1788080.000000
1788816.000000
1789556.000000
1790285.000000
1791002.000000
1791725.000000
1792447.000000
1793159.000000
1793870.000000
1794589.000000
1795320.000000
1796051.000000
1796778.000000
1797509.000000
1798242.000000
1798965.000000
1799687.000000
1800404.000000
