ECG (ms)
673.000000
1559.000000
2510.000000
3461.000000
4322.000000
5207.000000
6102.000000
6954.000000
7881.000000
8784.000000
9618.000000
10509.000000
11431.000000
12282.000000
13204.000000
14161.000000
15071.000000
16056.000000
17018.000000
18018.000000
19054.000000
20053.000000
21087.000000
22140.000000
23137.000000
24136.000000
25157.000000
26128.000000
27126.000000
28118.000000
29030.000000
30022.000000
31037.000000
31992.000000
33017.000000
34024.000000
34942.000000
35914.000000
36951.000000
37971.000000
38981.000000
40013.000000
41010.000000
41957.000000
42956.000000
43954.000000
44888.000000
45897.000000
46996.000000
48011.000000
49089.000000
50156.000000
51157.000000
52185.000000
53118.000000
54064.000000
55078.000000
56032.000000
56959.000000
57983.000000
59021.000000
59992.000000
61027.000000
62049.000000
63026.000000
63972.000000
64946.000000
65858.000000
66737.000000
67693.000000
68738.000000
69748.000000
70659.000000
71599.000000
72611.000000
73595.000000
74531.000000
75501.000000
76517.000000
77492.000000
78389.000000
79301.000000
80275.000000
81261.000000
82212.000000
83106.000000
84003.000000
84957.000000
85958.000000
86975.000000
87949.000000
88841.000000
89782.000000
90737.000000
91668.000000
92550.000000
93452.000000
94407.000000
95392.000000
96294.000000
97180.000000
98117.000000
99084.000000
99962.000000
100824.000000
101741.000000
102698.000000
103599.000000
104530.000000
105502.000000
106424.000000
107313.000000
108272.000000
109225.000000
110099.000000
110990.000000
111951.000000
112939.000000
113829.000000
114818.000000
115774.000000
116748.000000
117772.000000
118778.000000
119731.000000
120758.000000
121775.000000
122736.000000
123735.000000
124694.000000
125658.000000
126667.000000
127630.000000
128600.000000
129588.000000
130530.000000
131446.000000
132397.000000
133328.000000
134238.000000
135243.000000
136239.000000
137177.000000
138157.000000
139088.000000
139998.000000
140966.000000
141951.000000
142885.000000
143856.000000
144874.000000
145817.000000
146726.000000
147678.000000
148589.000000
149466.000000
150421.000000
151400.000000
152287.000000
153208.000000
154132.000000
154984.000000
155866.000000
156773.000000
157662.000000
158515.000000
159450.000000
160366.000000
161217.000000
162098.000000
162984.000000
163815.000000
164700.000000
165640.000000
166555.000000
167462.000000
168404.000000
169320.000000
170216.000000
171166.000000
172091.000000
172951.000000
173855.000000
174770.000000
175645.000000
176548.000000
177553.000000
178563.000000
179477.000000
180363.000000
181287.000000
182242.000000
183119.000000
184043.000000
185047.000000
185939.000000
186862.000000
187822.000000
188731.000000
189611.000000
190523.000000
191459.000000
192332.000000
193268.000000
194248.000000
195159.000000
196038.000000
196955.000000
197878.000000
198739.000000
199607.000000
200538.000000
201461.000000
202331.000000
203229.000000
204212.000000
205134.000000
206009.000000
206925.000000
207900.000000
208814.000000
209745.000000
210753.000000
211742.000000
212604.000000
213541.000000
214504.000000
215413.000000
216412.000000
217427.000000
218345.000000
219277.000000
220323.000000
221387.000000
222411.000000
223338.000000
224346.000000
225393.000000
226421.000000
227278.000000
228169.000000
229018.000000
229832.000000
230757.000000
231650.000000
232661.000000
233712.000000
234697.000000
235675.000000
236690.000000
237662.000000
238571.000000
239547.000000
240594.000000
241547.000000
242475.000000
243481.000000
244478.000000
245447.000000
246533.000000
247533.000000
248557.000000
249580.000000
250471.000000
251416.000000
252463.000000
253435.000000
254468.000000
255511.000000
256426.000000
257336.000000
258317.000000
259330.000000
260282.000000
261295.000000
262327.000000
263337.000000
264264.000000
265167.000000
266155.000000
267093.000000
268083.000000
269164.000000
270191.000000
271196.000000
272285.000000
273278.000000
274265.000000
275272.000000
276208.000000
277082.000000
278008.000000
278940.000000
279818.000000
280752.000000
281714.000000
282661.000000
283666.000000
284661.000000
285591.000000
286583.000000
287535.000000
288463.000000
289447.000000
290388.000000
291301.000000
292283.000000
293214.000000
294143.000000
295116.000000
296008.000000
296925.000000
297911.000000
298834.000000
299762.000000
300731.000000
301639.000000
302558.000000
303542.000000
304524.000000
305444.000000
306406.000000
307365.000000
308277.000000
309245.000000
310213.000000
311164.000000
312109.000000
313060.000000
313960.000000
314879.000000
315856.000000
316839.000000
317766.000000
318756.000000
319722.000000
320633.000000
321618.000000
322570.000000
323522.000000
324531.000000
325426.000000
326307.000000
327216.000000
328097.000000
328971.000000
329916.000000
330816.000000
331672.000000
332626.000000
333602.000000
334489.000000
335419.000000
336372.000000
337244.000000
338137.000000
339088.000000
340033.000000
340933.000000
341909.000000
342910.000000
343817.000000
344769.000000
345754.000000
346646.000000
347598.000000
348585.000000
349495.000000
350376.000000
351338.000000
352297.000000
353190.000000
354082.000000
355042.000000
356021.000000
356943.000000
357903.000000
358839.000000
359703.000000
360586.000000
361605.000000
362642.000000
363659.000000
364624.000000
365507.000000
366405.000000
367370.000000
368403.000000
369358.000000
370249.000000
371194.000000
372152.000000
373021.000000
373898.000000
374897.000000
375910.000000
376841.000000
377811.000000
378836.000000
379755.000000
380677.000000
381653.000000
382594.000000
383478.000000
384428.000000
385380.000000
386290.000000
387253.000000
388231.000000
389119.000000
390051.000000
391041.000000
391947.000000
392835.000000
393786.000000
394721.000000
395626.000000
396627.000000
397626.000000
398567.000000
399581.000000
400576.000000
401477.000000
402384.000000
403320.000000
404332.000000
405315.000000
406367.000000
407353.000000
408333.000000
409363.000000
410351.000000
411391.000000
412452.000000
413469.000000
414403.000000
415419.000000
416489.000000
417475.000000
418474.000000
419518.000000
420524.000000
421578.000000
422651.000000
423647.000000
424662.000000
425689.000000
426636.000000
427615.000000
428639.000000
429636.000000
430632.000000
431658.000000
432630.000000
433605.000000
434607.000000
435556.000000
436509.000000
437502.000000
438467.000000
439427.000000
440435.000000
441392.000000
442379.000000
443416.000000
444376.000000
445345.000000
446365.000000
447343.000000
448306.000000
449319.000000
450316.000000
451324.000000
452366.000000
453347.000000
454305.000000
455286.000000
456258.000000
457169.000000
458086.000000
459051.000000
460030.000000
460984.000000
462014.000000
463067.000000
464105.000000
465051.000000
466050.000000
467025.000000
467925.000000
468906.000000
469907.000000
470839.000000
471878.000000
472919.000000
473893.000000
474917.000000
475909.000000
476836.000000
477789.000000
478707.000000
479587.000000
480535.000000
481469.000000
482335.000000
483290.000000
484284.000000
485203.000000
486167.000000
487153.000000
488050.000000
488953.000000
489910.000000
490820.000000
491689.000000
492646.000000
493649.000000
494558.000000
495516.000000
496497.000000
497392.000000
498331.000000
499312.000000
500234.000000
501159.000000
502117.000000
502993.000000
503913.000000
504856.000000
505741.000000
506696.000000
507688.000000
508598.000000
509522.000000
510482.000000
511410.000000
512348.000000
513322.000000
514242.000000
515125.000000
516072.000000
516972.000000
517823.000000
518764.000000
519741.000000
520672.000000
521650.000000
522656.000000
523575.000000
524548.000000
525544.000000
526483.000000
527369.000000
528303.000000
529291.000000
530212.000000
531166.000000
532157.000000
533057.000000
533979.000000
534954.000000
535897.000000
536771.000000
537699.000000
538671.000000
539581.000000
540567.000000
541577.000000
542508.000000
543500.000000
544480.000000
545371.000000
546339.000000
547335.000000
548233.000000
549191.000000
550208.000000
551168.000000
552159.000000
553191.000000
554112.000000
555024.000000
556009.000000
556985.000000
557868.000000
558769.000000
559770.000000
560783.000000
561704.000000
562594.000000
563583.000000
564635.000000
565618.000000
566578.000000
567600.000000
568621.000000
569546.000000
570423.000000
571351.000000
572346.000000
573363.000000
574315.000000
575258.000000
576281.000000
577350.000000
578390.000000
579323.000000
580192.000000
581107.000000
582151.000000
583180.000000
584143.000000
585073.000000
586081.000000
587108.000000
588076.000000
589063.000000
589938.000000
590746.000000
591519.000000
592382.000000
593422.000000
594387.000000
595433.000000
596477.000000
597413.000000
598405.000000
599398.000000
600316.000000
601292.000000
602292.000000
603216.000000
604199.000000
605215.000000
606180.000000
607215.000000
608280.000000
609328.000000
610322.000000
611356.000000
612399.000000
613396.000000
614453.000000
615535.000000
616607.000000
617595.000000
618627.000000
619701.000000
620741.000000
621772.000000
622853.000000
623943.000000
625010.000000
626051.000000
627129.000000
628194.000000
629204.000000
630274.000000
631356.000000
632402.000000
633474.000000
634468.000000
635355.000000
636299.000000
637334.000000
638332.000000
639367.000000
640480.000000
641568.000000
642627.000000
643588.000000
644592.000000
645574.000000
646506.000000
647552.000000
648596.000000
649622.000000
650638.000000
651581.000000
652531.000000
653548.000000
654531.000000
655479.000000
656469.000000
657437.000000
658380.000000
659382.000000
660399.000000
661354.000000
662285.000000
663237.000000
664158.000000
665055.000000
666054.000000
667047.000000
668031.000000
669035.000000
670014.000000
670952.000000
671955.000000
672912.000000
673855.000000
674867.000000
675856.000000
676782.000000
677789.000000
678767.000000
679726.000000
680776.000000
681816.000000
682800.000000
683756.000000
684760.000000
685772.000000
686717.000000
687698.000000
688661.000000
689522.000000
690472.000000
691458.000000
692385.000000
693332.000000
694293.000000
695223.000000
696099.000000
697065.000000
698062.000000
698978.000000
699937.000000
700915.000000
701817.000000
702761.000000
703749.000000
704728.000000
705646.000000
706646.000000
707665.000000
708602.000000
709568.000000
710579.000000
711532.000000
712456.000000
713431.000000
714424.000000
715342.000000
716344.000000
717358.000000
718299.000000
719301.000000
720328.000000
721275.000000
722266.000000
723272.000000
724207.000000
725229.000000
726240.000000
727172.000000
728193.000000
729215.000000
730151.000000
731166.000000
732209.000000
733188.000000
734196.000000
735238.000000
736184.000000
737159.000000
738160.000000
739201.000000
740230.000000
741120.000000
742039.000000
743051.000000
744108.000000
745029.000000
746032.000000
747027.000000
747933.000000
748938.000000
749973.000000
750919.000000
751837.000000
752844.000000
753887.000000
754875.000000
755779.000000
756685.000000
757697.000000
758744.000000
759668.000000
760712.000000
761796.000000
762874.000000
763790.000000
764724.000000
765739.000000
766747.000000
767660.000000
768695.000000
769708.000000
770699.000000
771787.000000
772825.000000
773848.000000
774882.000000
775844.000000
776840.000000
777883.000000
778875.000000
779909.000000
780917.000000
781822.000000
782766.000000
783720.000000
784606.000000
785576.000000
786602.000000
787521.000000
788434.000000
789423.000000
790368.000000
791237.000000
792180.000000
793132.000000
794034.000000
795016.000000
796014.000000
796918.000000
797903.000000
798886.000000
799778.000000
800728.000000
801722.000000
802647.000000
803610.000000
804599.000000
805510.000000
806450.000000
807451.000000
808391.000000
809301.000000
810315.000000
811335.000000
812255.000000
813245.000000
814268.000000
815258.000000
816202.000000
817212.000000
818178.000000
819141.000000
820167.000000
821135.000000
822141.000000
823172.000000
824099.000000
825100.000000
826092.000000
827005.000000
828030.000000
829060.000000
830009.000000
831019.000000
832072.000000
833083.000000
834095.000000
835132.000000
836095.000000
837047.000000
838061.000000
839072.000000
840042.000000
841061.000000
842077.000000
843031.000000
844050.000000
845091.000000
846093.000000
847158.000000
848170.000000
849158.000000
850189.000000
851207.000000
852164.000000
853183.000000
854152.000000
855046.000000
856027.000000
857022.000000
857962.000000
858968.000000
859953.000000
860916.000000
861960.000000
862947.000000
863913.000000
864903.000000
865877.000000
866826.000000
867833.000000
868817.000000
869816.000000
870868.000000
871851.000000
872916.000000
873919.000000
874840.000000
875821.000000
876804.000000
877718.000000
878685.000000
879686.000000
880679.000000
881584.000000
882459.000000
883474.000000
884554.000000
885555.000000
886578.000000
887538.000000
888432.000000
889402.000000
890398.000000
891303.000000
892257.000000
893236.000000
894191.000000
895161.000000
896191.000000
897166.000000
898132.000000
899147.000000
900164.000000
901097.000000
902013.000000
903023.000000
904060.000000
905006.000000
906010.000000
907064.000000
908022.000000
908953.000000
909972.000000
910982.000000
911897.000000
912874.000000
913907.000000
914916.000000
915840.000000
916801.000000
917814.000000
918768.000000
919727.000000
920721.000000
921665.000000
922583.000000
923540.000000
924527.000000
925472.000000
926496.000000
927488.000000
928418.000000
929412.000000
930387.000000
931314.000000
932298.000000
933267.000000
934188.000000
935189.000000
936193.000000
937174.000000
938185.000000
939137.000000
940141.000000
941167.000000
942112.000000
943116.000000
944148.000000
945120.000000
946149.000000
947178.000000
948127.000000
949136.000000
950112.000000
951020.000000
952019.000000
953027.000000
953973.000000
954979.000000
955987.000000
956960.000000
957910.000000
958938.000000
959968.000000
960910.000000
961909.000000
962934.000000
963904.000000
964831.000000
965837.000000
966858.000000
967837.000000
968811.000000
969900.000000
970940.000000
971924.000000
972961.000000
973962.000000
974855.000000
975777.000000
976773.000000
977751.000000
978725.000000
979790.000000
980837.000000
981809.000000
982831.000000
983853.000000
984808.000000
985781.000000
986809.000000
987794.000000
988746.000000
989757.000000
990721.000000
991698.000000
992706.000000
993632.000000
994576.000000
995552.000000
996567.000000
997505.000000
998435.000000
999468.000000
1000475.000000
1001388.000000
1002395.000000
1003409.000000
1004391.000000
1005361.000000
1006388.000000
1007359.000000
1008357.000000
1009340.000000
1010283.000000
1011203.000000
1012182.000000
1013137.000000
1014083.000000
1015039.000000
1016013.000000
1016894.000000
1017848.000000
1018833.000000
1019727.000000
1020694.000000
1021677.000000
1022640.000000
1023569.000000
1024582.000000
1025594.000000
1026534.000000
1027519.000000
1028465.000000
1029417.000000
1030445.000000
1031422.000000
1032286.000000
1033095.000000
1033868.000000
1034619.000000
1035440.000000
1036364.000000
1037239.000000
1038206.000000
1039193.000000
1040117.000000
1041075.000000
1042052.000000
1042960.000000
1043880.000000
1044822.000000
1045726.000000
1046617.000000
1047580.000000
1048562.000000
1049501.000000
1050500.000000
1051459.000000
1052348.000000
1053282.000000
1054218.000000
1055070.000000
1055977.000000
1056938.000000
1057894.000000
1058840.000000
1059821.000000
1060738.000000
1061632.000000
1062567.000000
1063506.000000
1064381.000000
1065273.000000
1066241.000000
1067207.000000
1068137.000000
1069121.000000
1070146.000000
1071103.000000
1072001.000000
1072962.000000
1073883.000000
1074764.000000
1075702.000000
1076651.000000
1077543.000000
1078510.000000
1079529.000000
1080517.000000
1081457.000000
1082441.000000
1083433.000000
1084244.000000
1085001.000000
1085827.000000
1086695.000000
1087586.000000
1088490.000000
1089489.000000
1090453.000000
1091491.000000
1092342.000000
1093132.000000
1093977.000000
1094800.000000
1095571.000000
1096390.000000
1097233.000000
1098093.000000
1098959.000000
1099759.000000
1100614.000000
1101488.000000
1102332.000000
1103162.000000
1104065.000000
1104931.000000
1105773.000000
1106603.000000
1107506.000000
1108348.000000
1109176.000000
1110092.000000
1110971.000000
1111815.000000
1112731.000000
1113631.000000
1114497.000000
1115401.000000
1116322.000000
1117197.000000
1118042.000000
1118979.000000
1119889.000000
1120754.000000
1121656.000000
1122622.000000
1123536.000000
1124412.000000
1125447.000000
1126453.000000
1127373.000000
1128360.000000
1129329.000000
1130229.000000
1131150.000000
1132098.000000
1132978.000000
1133841.000000
1134773.000000
1135703.000000
1136569.000000
1137514.000000
1138458.000000
1139367.000000
1140188.000000
1141076.000000
1141939.000000
1142715.000000
1143471.000000
1144213.000000
1144979.000000
1145963.000000
1146809.000000
1147705.000000
1148679.000000
1149569.000000
1150531.000000
1151533.000000
1152484.000000
1153374.000000
1154338.000000
1155279.000000
1156165.000000
1157045.000000
1158003.000000
1158954.000000
1159827.000000
1160762.000000
1161752.000000
1162696.000000
1163599.000000
1164603.000000
1165604.000000
1166540.000000
1167430.000000
1168378.000000
1169377.000000
1170350.000000
1171237.000000
1172135.000000
1173092.000000
1174026.000000
1174937.000000
1175802.000000
1176658.000000
1177590.000000
1178549.000000
1179461.000000
1180346.000000
1181271.000000
1182224.000000
1183158.000000
1184045.000000
1184907.000000
1185798.000000
1186744.000000
1187637.000000
1188506.000000
1189391.000000
1190323.000000
1191251.000000
1192129.000000
1192969.000000
1193945.000000
1194890.000000
1195796.000000
1196646.000000
1197602.000000
1198556.000000
1199459.000000
1200307.000000
1201285.000000
1202249.000000
1203153.000000
1204035.000000
1205011.000000
1205953.000000
1206847.000000
1207712.000000
1208649.000000
1209581.000000
1210465.000000
1211418.000000
1212334.000000
