ECG (ms)
344.000000
1043.000000
1739.000000
2433.000000
3133.000000
3826.000000
4518.000000
5216.000000
5902.000000
6575.000000
7286.000000
8021.000000
8760.000000
9492.000000
10211.000000
10925.000000
11647.000000
12363.000000
13088.000000
13813.000000
14526.000000
15228.000000
15930.000000
16625.000000
17316.000000
18009.000000
18717.000000
19419.000000
20125.000000
20828.000000
21537.000000
22263.000000
22981.000000
23695.000000
24411.000000
25113.000000
25813.000000
26507.000000
27211.000000
27920.000000
28628.000000
29337.000000
30047.000000
30747.000000
31448.000000
32143.000000
32855.000000
33555.000000
34247.000000
34944.000000
35642.000000
36350.000000
37060.000000
37749.000000
38473.000000
39193.000000
39932.000000
40674.000000
41391.000000
42095.000000
42783.000000
43501.000000
44216.000000
44927.000000
45634.000000
46341.000000
47071.000000
47774.000000
48459.000000
49156.000000
49869.000000
50618.000000
51342.000000
52027.000000
52724.000000
53411.000000
54128.000000
54820.000000
55497.000000
56174.000000
56877.000000
57594.000000
58300.000000
59025.000000
59790.000000
60549.000000
61292.000000
62028.000000
62763.000000
63498.000000
64220.000000
64932.000000
65640.000000
66362.000000
67081.000000
67812.000000
68548.000000
69265.000000
69978.000000
70692.000000
71405.000000
72116.000000
72828.000000
73549.000000
74270.000000
75002.000000
75726.000000
76441.000000
77158.000000
77879.000000
78598.000000
79320.000000
80023.000000
80721.000000
81430.000000
82133.000000
82860.000000
83587.000000
84295.000000
84996.000000
85695.000000
86384.000000
87075.000000
87760.000000
88442.000000
89136.000000
89832.000000
90558.000000
91281.000000
92003.000000
92728.000000
93457.000000
94206.000000
94938.000000
95655.000000
96385.000000
97107.000000
97825.000000
98532.000000
99237.000000
99939.000000
100638.000000
101341.000000
102036.000000
102738.000000
103445.000000
104158.000000
104873.000000
105579.000000
106286.000000
106995.000000
107711.000000
108406.000000
109087.000000
109784.000000
110487.000000
111185.000000
111876.000000
112554.000000
113252.000000
113984.000000
114693.000000
115395.000000
116109.000000
116847.000000
117565.000000
118265.000000
118956.000000
119650.000000
120347.000000
121051.000000
121734.000000
122405.000000
123080.000000
123771.000000
124469.000000
125160.000000
125839.000000
126510.000000
127183.000000
127877.000000
128578.000000
129257.000000
129935.000000
130628.000000
131339.000000
132041.000000
132726.000000
133423.000000
134137.000000
134863.000000
135593.000000
136300.000000
137015.000000
137733.000000
138455.000000
139147.000000
139826.000000
140536.000000
141253.000000
141980.000000
142692.000000
143387.000000
144092.000000
144796.000000
145516.000000
146224.000000
146917.000000
147600.000000
148282.000000
149010.000000
149743.000000
150460.000000
151176.000000
151892.000000
152604.000000
153299.000000
153972.000000
154635.000000
155308.000000
156007.000000
156740.000000
157441.000000
158136.000000
158814.000000
159512.000000
160245.000000
160966.000000
161680.000000
162374.000000
163051.000000
163746.000000
164440.000000
165146.000000
165848.000000
166534.000000
167270.000000
168021.000000
168773.000000
169509.000000
170231.000000
170946.000000
171649.000000
172379.000000
173086.000000
173775.000000
174481.000000
175187.000000
175913.000000
176616.000000
177318.000000
178010.000000
178709.000000
179424.000000
180124.000000
180813.000000
181502.000000
182224.000000
182944.000000
183638.000000
184323.000000
185015.000000
185723.000000
186427.000000
187118.000000
187802.000000
188487.000000
189213.000000
189953.000000
190665.000000
191386.000000
192106.000000
192823.000000
193538.000000
194239.000000
194931.000000
195641.000000
196365.000000
197079.000000
197784.000000
198487.000000
199198.000000
199900.000000
200591.000000
201266.000000
201967.000000
202684.000000
203444.000000
204174.000000
204896.000000
205617.000000
206340.000000
207066.000000
207768.000000
208459.000000
209155.000000
209871.000000
210590.000000
211289.000000
211987.000000
212699.000000
213441.000000
214137.000000
214821.000000
215521.000000
216226.000000
216953.000000
217659.000000
218344.000000
219036.000000
219735.000000
220432.000000
221123.000000
221812.000000
222528.000000
223261.000000
223977.000000
224684.000000
225389.000000
226091.000000
226821.000000
227544.000000
228247.000000
228938.000000
229637.000000
230333.000000
231028.000000
231719.000000
232413.000000
233122.000000
233865.000000
234580.000000
235282.000000
236004.000000
236718.000000
237431.000000
238115.000000
238796.000000
239482.000000
240179.000000
240881.000000
241568.000000
242246.000000
242935.000000
243633.000000
244371.000000
245080.000000
245772.000000
246463.000000
247149.000000
247859.000000
248553.000000
249234.000000
249918.000000
250612.000000
251317.000000
252015.000000
252705.000000
253394.000000
254091.000000
254801.000000
255491.000000
256181.000000
256865.000000
257566.000000
258275.000000
258967.000000
259644.000000
260337.000000
261025.000000
261746.000000
262448.000000
263136.000000
263821.000000
264513.000000
265226.000000
265931.000000
266630.000000
267327.000000
268053.000000
268769.000000
269458.000000
270143.000000
270843.000000
271557.000000
272279.000000
272977.000000
273667.000000
274368.000000
275093.000000
275805.000000
276502.000000
277196.000000
277889.000000
278589.000000
279275.000000
279957.000000
280650.000000
281361.000000
282100.000000
282805.000000
283499.000000
284190.000000
284895.000000
285607.000000
286299.000000
286989.000000
287696.000000
288421.000000
289146.000000
289847.000000
290555.000000
291266.000000
292004.000000
292721.000000
293421.000000
294114.000000
294811.000000
295507.000000
296212.000000
296914.000000
297641.000000
298380.000000
299165.000000
299905.000000
300641.000000
301382.000000
302104.000000
302834.000000
303551.000000
304262.000000
304982.000000
305697.000000
306421.000000
307142.000000
307860.000000
308590.000000
309317.000000
310063.000000
310803.000000
311528.000000
312250.000000
312984.000000
313718.000000
314455.000000
315182.000000
315912.000000
316664.000000
317431.000000
318195.000000
318933.000000
319669.000000
320411.000000
321157.000000
321902.000000
322628.000000
323374.000000
324112.000000
324849.000000
325574.000000
326291.000000
327005.000000
327713.000000
328422.000000
329117.000000
329809.000000
330509.000000
331218.000000
331937.000000
332665.000000
333404.000000
334145.000000
334870.000000
335579.000000
336285.000000
337003.000000
337722.000000
338448.000000
339174.000000
339886.000000
340595.000000
341305.000000
342016.000000
342716.000000
343411.000000
344111.000000
344821.000000
345551.000000
346275.000000
346995.000000
347724.000000
348451.000000
349190.000000
349912.000000
350632.000000
351347.000000
352063.000000
352770.000000
353469.000000
354176.000000
354887.000000
355599.000000
356300.000000
356990.000000
357677.000000
358342.000000
359002.000000
359670.000000
360348.000000
361050.000000
361720.000000
362387.000000
363067.000000
363749.000000
364434.000000
365112.000000
365794.000000
366480.000000
367181.000000
367882.000000
368581.000000
369293.000000
370002.000000
370724.000000
371440.000000
372150.000000
372863.000000
373561.000000
374276.000000
374977.000000
375665.000000
376372.000000
377074.000000
377804.000000
378516.000000
379226.000000
379946.000000
380668.000000
381408.000000
382131.000000
382857.000000
383584.000000
384321.000000
385058.000000
385786.000000
386508.000000
387234.000000
387963.000000
388680.000000
389389.000000
390111.000000
390828.000000
391567.000000
392304.000000
393025.000000
393753.000000
394482.000000
395209.000000
395923.000000
396638.000000
397353.000000
398083.000000
398797.000000
399505.000000
400218.000000
400931.000000
401643.000000
402363.000000
403064.000000
403769.000000
404473.000000
405193.000000
405923.000000
406643.000000
407369.000000
408106.000000
408844.000000
409574.000000
410288.000000
411005.000000
411708.000000
412409.000000
413099.000000
413773.000000
414458.000000
415142.000000
415849.000000
416566.000000
417280.000000
418000.000000
418728.000000
419471.000000
420215.000000
420952.000000
421691.000000
422428.000000
423165.000000
423890.000000
424614.000000
425342.000000
426076.000000
426801.000000
427517.000000
428238.000000
428950.000000
429673.000000
430378.000000
431080.000000
431788.000000
432498.000000
433217.000000
433930.000000
434637.000000
435355.000000
436097.000000
436829.000000
437556.000000
438266.000000
438967.000000
439664.000000
440358.000000
441060.000000
441756.000000
442452.000000
443149.000000
443849.000000
444548.000000
445235.000000
445919.000000
446611.000000
447297.000000
447988.000000
448671.000000
449348.000000
450020.000000
450697.000000
451377.000000
452064.000000
452761.000000
453449.000000
454125.000000
454785.000000
455442.000000
456115.000000
456797.000000
457468.000000
458124.000000
458780.000000
459452.000000
460118.000000
460782.000000
461442.000000
462105.000000
462799.000000
463474.000000
464145.000000
464809.000000
465468.000000
466132.000000
466784.000000
467438.000000
468082.000000
468746.000000
469443.000000
470139.000000
470836.000000
471519.000000
472203.000000
472889.000000
473584.000000
474283.000000
474973.000000
475657.000000
476340.000000
477053.000000
477751.000000
478432.000000
479124.000000
479818.000000
480523.000000
481217.000000
481900.000000
482585.000000
483278.000000
483992.000000
484684.000000
485366.000000
486044.000000
486723.000000
487408.000000
488085.000000
488749.000000
489417.000000
490086.000000
490783.000000
491473.000000
492147.000000
492827.000000
493513.000000
494199.000000
494887.000000
495555.000000
496217.000000
496879.000000
497548.000000
498210.000000
498866.000000
499528.000000
500193.000000
500875.000000
501552.000000
502222.000000
502882.000000
503549.000000
504235.000000
504907.000000
505575.000000
506243.000000
506918.000000
507603.000000
508290.000000
508961.000000
509633.000000
510317.000000
511031.000000
511727.000000
512407.000000
513082.000000
513758.000000
514442.000000
515131.000000
515797.000000
516460.000000
517127.000000
517814.000000
518515.000000
519202.000000
519896.000000
520588.000000
521294.000000
522000.000000
522683.000000
523355.000000
524030.000000
524722.000000
525439.000000
526117.000000
526785.000000
527455.000000
528137.000000
528843.000000
529527.000000
530201.000000
530872.000000
531556.000000
532255.000000
532944.000000
533623.000000
534293.000000
534972.000000
535660.000000
536341.000000
537014.000000
537698.000000
538395.000000
539086.000000
539772.000000
540461.000000
541161.000000
541866.000000
542548.000000
543222.000000
543905.000000
544592.000000
545288.000000
545977.000000
546677.000000
547382.000000
548085.000000
548787.000000
549475.000000
550171.000000
550892.000000
551632.000000
552333.000000
553023.000000
553715.000000
554410.000000
555112.000000
555825.000000
556528.000000
557237.000000
557949.000000
558704.000000
559426.000000
560138.000000
560841.000000
561578.000000
562317.000000
563042.000000
563737.000000
564428.000000
565135.000000
565849.000000
566550.000000
567252.000000
567965.000000
568716.000000
569454.000000
570183.000000
570885.000000
571596.000000
572314.000000
573014.000000
573696.000000
574375.000000
575061.000000
575777.000000
576472.000000
577163.000000
577859.000000
578556.000000
579251.000000
579939.000000
580622.000000
581321.000000
582033.000000
582752.000000
583450.000000
584153.000000
584878.000000
585609.000000
586327.000000
587028.000000
587723.000000
588419.000000
589130.000000
589817.000000
590496.000000
591178.000000
591859.000000
592573.000000
593267.000000
593962.000000
594665.000000
595374.000000
596074.000000
596770.000000
597466.000000
598154.000000
598853.000000
599558.000000
600242.000000
600931.000000
601629.000000
602343.000000
603035.000000
603723.000000
604412.000000
605122.000000
605860.000000
606576.000000
607281.000000
607993.000000
608701.000000
609387.000000
610072.000000
610774.000000
611493.000000
612213.000000
612914.000000
613612.000000
614318.000000
615048.000000
615772.000000
616476.000000
617194.000000
617955.000000
618692.000000
619404.000000
620097.000000
620794.000000
621516.000000
622239.000000
622943.000000
623658.000000
624381.000000
625114.000000
625843.000000
626564.000000
627284.000000
628007.000000
628729.000000
629441.000000
630156.000000
630865.000000
631577.000000
632278.000000
632972.000000
633673.000000
634366.000000
635068.000000
635766.000000
636467.000000
637178.000000
637885.000000
638594.000000
639296.000000
639998.000000
640701.000000
641408.000000
642115.000000
642807.000000
643507.000000
644202.000000
644897.000000
645587.000000
646274.000000
646957.000000
647645.000000
648330.000000
649034.000000
649752.000000
650460.000000
651170.000000
651886.000000
652628.000000
653361.000000
654081.000000
654780.000000
655474.000000
656168.000000
656848.000000
657514.000000
658168.000000
658818.000000
659466.000000
660137.000000
660807.000000
661497.000000
662215.000000
663000.000000
663793.000000
664542.000000
665267.000000
665984.000000
666695.000000
667387.000000
668067.000000
668746.000000
669435.000000
670131.000000
670815.000000
671501.000000
672200.000000
672902.000000
673613.000000
674308.000000
674997.000000
675683.000000
676375.000000
677071.000000
677753.000000
678445.000000
679129.000000
679818.000000
680496.000000
681170.000000
681860.000000
682553.000000
683247.000000
683924.000000
684596.000000
685292.000000
685964.000000
686638.000000
687298.000000
687950.000000
688602.000000
689240.000000
689877.000000
690506.000000
691125.000000
691748.000000
692360.000000
692966.000000
693573.000000
694172.000000
694764.000000
695359.000000
695958.000000
696558.000000
697158.000000
697746.000000
698342.000000
698980.000000
699622.000000
700249.000000
700871.000000
701480.000000
702083.000000
702680.000000
703274.000000
703858.000000
704434.000000
705007.000000
705576.000000
706140.000000
706716.000000
707313.000000
707921.000000
708522.000000
709129.000000
709757.000000
710393.000000
711012.000000
711617.000000
712215.000000
712813.000000
713414.000000
714008.000000
714610.000000
715232.000000
715862.000000
716500.000000
717161.000000
717872.000000
718583.000000
719285.000000
719978.000000
720660.000000
721338.000000
722031.000000
722726.000000
723406.000000
724060.000000
724694.000000
725313.000000
725919.000000
726533.000000
727154.000000
727794.000000
728459.000000
729122.000000
729794.000000
730478.000000
731154.000000
731809.000000
732450.000000
733091.000000
733741.000000
734395.000000
735048.000000
735692.000000
736338.000000
736986.000000
737638.000000
738276.000000
738908.000000
739534.000000
740163.000000
740810.000000
741479.000000
742136.000000
742775.000000
743418.000000
744074.000000
744729.000000
745372.000000
746003.000000
746638.000000
747288.000000
747930.000000
748580.000000
749236.000000
749909.000000
750617.000000
751290.000000
751951.000000
752612.000000
753273.000000
753953.000000
754633.000000
755297.000000
755958.000000
756635.000000
757334.000000
758011.000000
758685.000000
759359.000000
760038.000000
760730.000000
761411.000000
762101.000000
762774.000000
763482.000000
764181.000000
764864.000000
765546.000000
766238.000000
766942.000000
767655.000000
768335.000000
769016.000000
769700.000000
770394.000000
771108.000000
771804.000000
772483.000000
773174.000000
773884.000000
774624.000000
775331.000000
776027.000000
776730.000000
777422.000000
778136.000000
778822.000000
779492.000000
780156.000000
780825.000000
781515.000000
782193.000000
782865.000000
783540.000000
784221.000000
784916.000000
785598.000000
786275.000000
786955.000000
787640.000000
788338.000000
789028.000000
789692.000000
790364.000000
791038.000000
791729.000000
792406.000000
793079.000000
793751.000000
794433.000000
795115.000000
795792.000000
796475.000000
797170.000000
797865.000000
798552.000000
799236.000000
799922.000000
800626.000000
801323.000000
802012.000000
802699.000000
803379.000000
804073.000000
804782.000000
805467.000000
806151.000000
806826.000000
807500.000000
808178.000000
808845.000000
809505.000000
810161.000000
810841.000000
811530.000000
812210.000000
812884.000000
813545.000000
814208.000000
814856.000000
815484.000000
816111.000000
816725.000000
817355.000000
818018.000000
818689.000000
819351.000000
820417.000000
821283.000000
821943.000000
822607.000000
823283.000000
824347.000000
825161.000000
825882.000000
826647.000000
827321.000000
828221.000000
828965.000000
829699.000000
830444.000000
831220.000000
831906.000000
832587.000000
833577.000000
834363.000000
835114.000000
835854.000000
836609.000000
837376.000000
838148.000000
838828.000000
839513.000000
840326.000000
841053.000000
841756.000000
842450.000000
843135.000000
843800.000000
844462.000000
845106.000000
845747.000000
846389.000000
847023.000000
847677.000000
848312.000000
848949.000000
849577.000000
850188.000000
850801.000000
851405.000000
852005.000000
852600.000000
853213.000000
853863.000000
854519.000000
855146.000000
855785.000000
856411.000000
857035.000000
857676.000000
858312.000000
858937.000000
859565.000000
860202.000000
860857.000000
861500.000000
862134.000000
862746.000000
863370.000000
864024.000000
864689.000000
865326.000000
865985.000000
866657.000000
867330.000000
867986.000000
868638.000000
869295.000000
869991.000000
870635.000000
871288.000000
871948.000000
872619.000000
873337.000000
874031.000000
874726.000000
875387.000000
876057.000000
876764.000000
877446.000000
878101.000000
878758.000000
879414.000000
880048.000000
880677.000000
881296.000000
881911.000000
882522.000000
883135.000000
883769.000000
884402.000000
885023.000000
885633.000000
886244.000000
886852.000000
887464.000000
888079.000000
888694.000000
889296.000000
889896.000000
890502.000000
891114.000000
891724.000000
892332.000000
892950.000000
893613.000000
894279.000000
894920.000000
895556.000000
896194.000000
896834.000000
897469.000000
898104.000000
898746.000000
899390.000000
900246.000000
900961.000000
901650.000000
902332.000000
903015.000000
903700.000000
904387.000000
905032.000000
905680.000000
906365.000000
907022.000000
907703.000000
908360.000000
909011.000000
909671.000000
910328.000000
910993.000000
911661.000000
912318.000000
912991.000000
913680.000000
914404.000000
915078.000000
915739.000000
916390.000000
917036.000000
917692.000000
918337.000000
918974.000000
919618.000000
920273.000000
920950.000000
921605.000000
922245.000000
922890.000000
923537.000000
924183.000000
924818.000000
925453.000000
926079.000000
926707.000000
927362.000000
928024.000000
928665.000000
929300.000000
929936.000000
930583.000000
931257.000000
931923.000000
932582.000000
933228.000000
933873.000000
934540.000000
935199.000000
935843.000000
936481.000000
937114.000000
937752.000000
938401.000000
939039.000000
939674.000000
940317.000000
940972.000000
941629.000000
942271.000000
942901.000000
943533.000000
944164.000000
944811.000000
945445.000000
946071.000000
946699.000000
947340.000000
947996.000000
948650.000000
949283.000000
949910.000000
950538.000000
951162.000000
951775.000000
952376.000000
952972.000000
953575.000000
954200.000000
954825.000000
955453.000000
956097.000000
956747.000000
957404.000000
958040.000000
958654.000000
959252.000000
959836.000000
960417.000000
961001.000000
961589.000000
962178.000000
962786.000000
963431.000000
964078.000000
964706.000000
965335.000000
965956.000000
966596.000000
967248.000000
967882.000000
968501.000000
969112.000000
969728.000000
970378.000000
971020.000000
971665.000000
972301.000000
972929.000000
973586.000000
974272.000000
974931.000000
975583.000000
976234.000000
976917.000000
977594.000000
978248.000000
978890.000000
979537.000000
980180.000000
980838.000000
981475.000000
982103.000000
982716.000000
983321.000000
983919.000000
984528.000000
985127.000000
985726.000000
986336.000000
986960.000000
987600.000000
988246.000000
988898.000000
989544.000000
990189.000000
990838.000000
991506.000000
992162.000000
992802.000000
993452.000000
994096.000000
994751.000000
995407.000000
996039.000000
996666.000000
997296.000000
997944.000000
998605.000000
999258.000000
999902.000000
1000553.000000
1001224.000000
1001899.000000
1002578.000000
1003256.000000
1003932.000000
1004593.000000
1005284.000000
1005973.000000
1006695.000000
1007408.000000
1008098.000000
1008785.000000
1009471.000000
1010159.000000
1010831.000000
1011504.000000
1012179.000000
1012906.000000
1013620.000000
1014319.000000
1015001.000000
1015677.000000
1016350.000000
1017023.000000
1017693.000000
1018347.000000
1018990.000000
1019637.000000
1020291.000000
1020943.000000
1021592.000000
1022245.000000
1022919.000000
1023606.000000
1024274.000000
1024935.000000
1025590.000000
1026245.000000
1026913.000000
1027574.000000
1028232.000000
1028888.000000
1029539.000000
1030201.000000
1030853.000000
1031494.000000
1032136.000000
1032789.000000
1033450.000000
1034112.000000
1034766.000000
1035417.000000
1036071.000000
1036740.000000
1037407.000000
1038068.000000
1038720.000000
1039367.000000
1040027.000000
1040683.000000
1041329.000000
1041968.000000
1042600.000000
1043247.000000
1043914.000000
1044600.000000
1045272.000000
1045934.000000
1046597.000000
1047278.000000
1047991.000000
1048700.000000
1049363.000000
1050037.000000
1050734.000000
1051415.000000
1052093.000000
1052761.000000
1053428.000000
1054087.000000
1054762.000000
1055443.000000
1056106.000000
1056759.000000
1057414.000000
1058075.000000
1058736.000000
1059393.000000
1060036.000000
1060672.000000
1061298.000000
1061918.000000
1062537.000000
1063165.000000
1063807.000000
1064494.000000
1065237.000000
1066015.000000
1066765.000000
1067436.000000
1068106.000000
1068777.000000
1069439.000000
1070094.000000
1070752.000000
1071403.000000
1072044.000000
1072681.000000
1073318.000000
1073947.000000
1074585.000000
1075225.000000
1075870.000000
1076534.000000
1077186.000000
1077824.000000
1078454.000000
1079085.000000
1079736.000000
1080364.000000
1081006.000000
1081646.000000
1082312.000000
1082989.000000
1083663.000000
1084327.000000
1085000.000000
1085662.000000
1086327.000000
1086980.000000
1087615.000000
1088242.000000
1088860.000000
1089487.000000
1090112.000000
1090725.000000
1091333.000000
1091950.000000
1092586.000000
1093225.000000
1093855.000000
1094479.000000
1095097.000000
1095735.000000
1096392.000000
1097043.000000
1097696.000000
1098340.000000
1098983.000000
1099646.000000
1100286.000000
1100913.000000
1101533.000000
1102154.000000
1102786.000000
1103410.000000
1104034.000000
1104665.000000
1105307.000000
1105961.000000
1106616.000000
1107257.000000
1107893.000000
1108533.000000
1109198.000000
1109841.000000
1110472.000000
1111098.000000
1111729.000000
1112363.000000
1112991.000000
1113616.000000
1114236.000000
1114875.000000
1115533.000000
1116190.000000
1116834.000000
1117476.000000
1118122.000000
1118769.000000
1119422.000000
1120076.000000
1120717.000000
1121352.000000
1121998.000000
1122648.000000
1123305.000000
1123958.000000
1124602.000000
1125247.000000
1125898.000000
1126563.000000
1127220.000000
1127868.000000
1128516.000000
1129169.000000
1129828.000000
1130480.000000
1131120.000000
1131762.000000
1132402.000000
1133053.000000
1133702.000000
1134339.000000
1134973.000000
1135614.000000
1136262.000000
1136910.000000
1137552.000000
1138189.000000
1138820.000000
1139431.000000
1140033.000000
1140632.000000
1141222.000000
1141809.000000
1142406.000000
1143021.000000
1143633.000000
1144249.000000
1144881.000000
1145546.000000
1146206.000000
1146863.000000
1147514.000000
1148159.000000
1148815.000000
1149479.000000
1150138.000000
1150800.000000
1151465.000000
1152149.000000
1152850.000000
1153532.000000
1154211.000000
1154880.000000
1155542.000000
1156197.000000
1156843.000000
1157487.000000
1158125.000000
1158744.000000
1159361.000000
1159989.000000
1160622.000000
1161254.000000
1161884.000000
1162530.000000
1163183.000000
1163838.000000
1164480.000000
1165124.000000
1165766.000000
1166400.000000
1167045.000000
1167697.000000
1168340.000000
1168974.000000
1169617.000000
1170272.000000
1170927.000000
1171576.000000
1172219.000000
1172863.000000
1173511.000000
1174170.000000
1174841.000000
1175498.000000
1176141.000000
1176792.000000
1177454.000000
1178127.000000
1178818.000000
1179494.000000
1180159.000000
1180821.000000
1181480.000000
1182133.000000
1182783.000000
1183431.000000
1184084.000000
1184742.000000
1185395.000000
1186045.000000
1186695.000000
1187343.000000
1188000.000000
1188654.000000
1189306.000000
1189972.000000
1190636.000000
1191293.000000
1191956.000000
1192610.000000
1193258.000000
1193905.000000
1194560.000000
