ECG (ms)
557.000000
1195.000000
1835.000000
2469.000000
3096.000000
3728.000000
4363.000000
4999.000000
5637.000000
6281.000000
6923.000000
7561.000000
8197.000000
8838.000000
9478.000000
10115.000000
10756.000000
11395.000000
12032.000000
12661.000000
13291.000000
13924.000000
14558.000000
15195.000000
15836.000000
16487.000000
17190.000000
17835.000000
18484.000000
19124.000000
19722.000000
20349.000000
20989.000000
21627.000000
22264.000000
22899.000000
23527.000000
24156.000000
24789.000000
25423.000000
26058.000000
26693.000000
27332.000000
27970.000000
28605.000000
29243.000000
29870.000000
30502.000000
31136.000000
31770.000000
32399.000000
33032.000000
33662.000000
34288.000000
34915.000000
35542.000000
36171.000000
36799.000000
37427.000000
38055.000000
38683.000000
39310.000000
39933.000000
40552.000000
41170.000000
41792.000000
42414.000000
43036.000000
43654.000000
44268.000000
44879.000000
45492.000000
46104.000000
46720.000000
47337.000000
47956.000000
48581.000000
49205.000000
49825.000000
50439.000000
51045.000000
51658.000000
52277.000000
52895.000000
53514.000000
54131.000000
54749.000000
55369.000000
55989.000000
56611.000000
57236.000000
57866.000000
58502.000000
59131.000000
59751.000000
60371.000000
60986.000000
61601.000000
62223.000000
62844.000000
63463.000000
64080.000000
64697.000000
65315.000000
65935.000000
66558.000000
67180.000000
67804.000000
68434.000000
69069.000000
69698.000000
70313.000000
70934.000000
71552.000000
72176.000000
72802.000000
73426.000000
74048.000000
74670.000000
75294.000000
75920.000000
76548.000000
77178.000000
77814.000000
78450.000000
79080.000000
79712.000000
80339.000000
80966.000000
81591.000000
82222.000000
82857.000000
83484.000000
84113.000000
84738.000000
85360.000000
85985.000000
86613.000000
87241.000000
87871.000000
88502.000000
89132.000000
89761.000000
90391.000000
91014.000000
91635.000000
92257.000000
92882.000000
93508.000000
94132.000000
94753.000000
95370.000000
95988.000000
96605.000000
97225.000000
97845.000000
98468.000000
99097.000000
99717.000000
100335.000000
100952.000000
101567.000000
102185.000000
102808.000000
103431.000000
104054.000000
104679.000000
105302.000000
105922.000000
106541.000000
107162.000000
107785.000000
108409.000000
109036.000000
109661.000000
110286.000000
110909.000000
111533.000000
112155.000000
112780.000000
113406.000000
114029.000000
114650.000000
115270.000000
115889.000000
116510.000000
117131.000000
117754.000000
118380.000000
119011.000000
119650.000000
120279.000000
120890.000000
121505.000000
122125.000000
122746.000000
123370.000000
123990.000000
124610.000000
125230.000000
125851.000000
126473.000000
127095.000000
127719.000000
128341.000000
128967.000000
129601.000000
130227.000000
130848.000000
131462.000000
132082.000000
132707.000000
133328.000000
133942.000000
134556.000000
135174.000000
135795.000000
136417.000000
137041.000000
137666.000000
138293.000000
138918.000000
139541.000000
140165.000000
140786.000000
141410.000000
142035.000000
142657.000000
143279.000000
143897.000000
144516.000000
145135.000000
145755.000000
146374.000000
146996.000000
147617.000000
148238.000000
148858.000000
149477.000000
150091.000000
150701.000000
151314.000000
151931.000000
152550.000000
153167.000000
153781.000000
154392.000000
155004.000000
155615.000000
156226.000000
156837.000000
157450.000000
158063.000000
158674.000000
159286.000000
159897.000000
160510.000000
161128.000000
161751.000000
162371.000000
162983.000000
163595.000000
164208.000000
164822.000000
165441.000000
166060.000000
166684.000000
167310.000000
167937.000000
168562.000000
169187.000000
169813.000000
170437.000000
171062.000000
171689.000000
172313.000000
172936.000000
173560.000000
174185.000000
174813.000000
175444.000000
176077.000000
176716.000000
177351.000000
177982.000000
178611.000000
179239.000000
179866.000000
180494.000000
181122.000000
181748.000000
182373.000000
183002.000000
183630.000000
184260.000000
184894.000000
185531.000000
186173.000000
186809.000000
187435.000000
188066.000000
188695.000000
189319.000000
189950.000000
190581.000000
191211.000000
191837.000000
192465.000000
193094.000000
193725.000000
194360.000000
194996.000000
195629.000000
196257.000000
196885.000000
197513.000000
198142.000000
198773.000000
199401.000000
200026.000000
200648.000000
201270.000000
201892.000000
202515.000000
203136.000000
203757.000000
204382.000000
205008.000000
205631.000000
206254.000000
206874.000000
207491.000000
208110.000000
208729.000000
209352.000000
209977.000000
210599.000000
211222.000000
211843.000000
212465.000000
213087.000000
213708.000000
214330.000000
214957.000000
215588.000000
216216.000000
216834.000000
217449.000000
218066.000000
218682.000000
219298.000000
219917.000000
220539.000000
221161.000000
221780.000000
222396.000000
223014.000000
223631.000000
224248.000000
224866.000000
225484.000000
226106.000000
226725.000000
227345.000000
227961.000000
228573.000000
229189.000000
229807.000000
230429.000000
231047.000000
231665.000000
232282.000000
232898.000000
233517.000000
234136.000000
234757.000000
235380.000000
236004.000000
236627.000000
237249.000000
237871.000000
238491.000000
239114.000000
239735.000000
240357.000000
240977.000000
241600.000000
242220.000000
242840.000000
243463.000000
244089.000000
244714.000000
245339.000000
245968.000000
246600.000000
247229.000000
247856.000000
248483.000000
249110.000000
249738.000000
250367.000000
250994.000000
251621.000000
252247.000000
252873.000000
253499.000000
254125.000000
254753.000000
255379.000000
256005.000000
256631.000000
257256.000000
257879.000000
258501.000000
259120.000000
259739.000000
260357.000000
260977.000000
261598.000000
262219.000000
262839.000000
263457.000000
264072.000000
264687.000000
265302.000000
265919.000000
266540.000000
267165.000000
267802.000000
268433.000000
269053.000000
269663.000000
270277.000000
270893.000000
271508.000000
272125.000000
272742.000000
273363.000000
273986.000000
274611.000000
275237.000000
275867.000000
276497.000000
277128.000000
277759.000000
278384.000000
279012.000000
279639.000000
280268.000000
280894.000000
281519.000000
282142.000000
282767.000000
283393.000000
284020.000000
284652.000000
285289.000000
285933.000000
286568.000000
287187.000000
287808.000000
288433.000000
289061.000000
289688.000000
290310.000000
290929.000000
291552.000000
292176.000000
292801.000000
293428.000000
294054.000000
294681.000000
295307.000000
295934.000000
296566.000000
297198.000000
297830.000000
298458.000000
299088.000000
299717.000000
300341.000000
300967.000000
301593.000000
302217.000000
302844.000000
303475.000000
304105.000000
304735.000000
305366.000000
305999.000000
306632.000000
307264.000000
307895.000000
308525.000000
309156.000000
309785.000000
310417.000000
311048.000000
311679.000000
312308.000000
312935.000000
313561.000000
314187.000000
314815.000000
315444.000000
316073.000000
316705.000000
317341.000000
317979.000000
318614.000000
319238.000000
319862.000000
320490.000000
321119.000000
321741.000000
322365.000000
322990.000000
323613.000000
324241.000000
324869.000000
325497.000000
326127.000000
326758.000000
327388.000000
328019.000000
328649.000000
329271.000000
329896.000000
330518.000000
331141.000000
331763.000000
332387.000000
333009.000000
333630.000000
334251.000000
334873.000000
335495.000000
336117.000000
336741.000000
337363.000000
337984.000000
338604.000000
339220.000000
339839.000000
340458.000000
341077.000000
341696.000000
342316.000000
342936.000000
343558.000000
344183.000000
344809.000000
345435.000000
346061.000000
346684.000000
347305.000000
347924.000000
348545.000000
349169.000000
349793.000000
350419.000000
351043.000000
351663.000000
352279.000000
352896.000000
353514.000000
354132.000000
354752.000000
355373.000000
355998.000000
356623.000000
357246.000000
357867.000000
358487.000000
359110.000000
359735.000000
360362.000000
360989.000000
361614.000000
362235.000000
362857.000000
363480.000000
364108.000000
364736.000000
365364.000000
365994.000000
366623.000000
367253.000000
367882.000000
368509.000000
369139.000000
369767.000000
370396.000000
371025.000000
371652.000000
372278.000000
372906.000000
373534.000000
374161.000000
374789.000000
375419.000000
376049.000000
376682.000000
377315.000000
377941.000000
378567.000000
379193.000000
379819.000000
380446.000000
381072.000000
381697.000000
382323.000000
382950.000000
383576.000000
384205.000000
384834.000000
385465.000000
386096.000000
386724.000000
387357.000000
387985.000000
388605.000000
389226.000000
389846.000000
390467.000000
391087.000000
391706.000000
392323.000000
392939.000000
393555.000000
394169.000000
394787.000000
395418.000000
396110.000000
396747.000000
397379.000000
397996.000000
398616.000000
399196.000000
399797.000000
400424.000000
401053.000000
401685.000000
402307.000000
402928.000000
403546.000000
404171.000000
404798.000000
405429.000000
406061.000000
406694.000000
407327.000000
407958.000000
408589.000000
409222.000000
409852.000000
410478.000000
411104.000000
411734.000000
412362.000000
412990.000000
413615.000000
414238.000000
414861.000000
415484.000000
416110.000000
416735.000000
417359.000000
417982.000000
418606.000000
419234.000000
419857.000000
420481.000000
421105.000000
421727.000000
422349.000000
422974.000000
423599.000000
424225.000000
424851.000000
425479.000000
426109.000000
426740.000000
427369.000000
427998.000000
428626.000000
429256.000000
429889.000000
430520.000000
431152.000000
431784.000000
432415.000000
433048.000000
433679.000000
434307.000000
434938.000000
435569.000000
436204.000000
436838.000000
437472.000000
438106.000000
438738.000000
439366.000000
439992.000000
440620.000000
441248.000000
441878.000000
442507.000000
443135.000000
443759.000000
444383.000000
445006.000000
445631.000000
446259.000000
446889.000000
447515.000000
448138.000000
448762.000000
449388.000000
450012.000000
450636.000000
451261.000000
451887.000000
452512.000000
453137.000000
453762.000000
454387.000000
455013.000000
455641.000000
456276.000000
456916.000000
457550.000000
458183.000000
458814.000000
459444.000000
460069.000000
460697.000000
461328.000000
461960.000000
462590.000000
463221.000000
463855.000000
464490.000000
465127.000000
465765.000000
466404.000000
467040.000000
467673.000000
468308.000000
468942.000000
469578.000000
470216.000000
470854.000000
471493.000000
472130.000000
472765.000000
473396.000000
474026.000000
474656.000000
475290.000000
475922.000000
476556.000000
477192.000000
477827.000000
478459.000000
479090.000000
479724.000000
480357.000000
480989.000000
481624.000000
482256.000000
482886.000000
483515.000000
484143.000000
484771.000000
485401.000000
486032.000000
486662.000000
487291.000000
487915.000000
488540.000000
489165.000000
489788.000000
490413.000000
491038.000000
491664.000000
492289.000000
492913.000000
493536.000000
494157.000000
494773.000000
495391.000000
496010.000000
496633.000000
497257.000000
497884.000000
498515.000000
499139.000000
499764.000000
500397.000000
501024.000000
501649.000000
502274.000000
502902.000000
503531.000000
504161.000000
504790.000000
505420.000000
506051.000000
506683.000000
507314.000000
507949.000000
508585.000000
509226.000000
509870.000000
510520.000000
511152.000000
511780.000000
512412.000000
513046.000000
513682.000000
514317.000000
514952.000000
515584.000000
516217.000000
516851.000000
517485.000000
518120.000000
518758.000000
519400.000000
520048.000000
520697.000000
521341.000000
521983.000000
522623.000000
523263.000000
523901.000000
524534.000000
525169.000000
525807.000000
526446.000000
527087.000000
527734.000000
528383.000000
529031.000000
529680.000000
530325.000000
530966.000000
531605.000000
532250.000000
532897.000000
533544.000000
534189.000000
534826.000000
535463.000000
536103.000000
536745.000000
537389.000000
538034.000000
538684.000000
539344.000000
540012.000000
540642.000000
541285.000000
541932.000000
542578.000000
543225.000000
543870.000000
544515.000000
545158.000000
545798.000000
546437.000000
547078.000000
547720.000000
548362.000000
549006.000000
549652.000000
550305.000000
550968.000000
551616.000000
552252.000000
552887.000000
553527.000000
554170.000000
554812.000000
555451.000000
556091.000000
556730.000000
557370.000000
558011.000000
558651.000000
559290.000000
559932.000000
560576.000000
561221.000000
561862.000000
562503.000000
563135.000000
563767.000000
564399.000000
565034.000000
565671.000000
566309.000000
566943.000000
567575.000000
568205.000000
568835.000000
569466.000000
570098.000000
570730.000000
571365.000000
572001.000000
572642.000000
573285.000000
573923.000000
574554.000000
575182.000000
575817.000000
576449.000000
577081.000000
577718.000000
578351.000000
578984.000000
579620.000000
580255.000000
580890.000000
581526.000000
582163.000000
582802.000000
583440.000000
584086.000000
584727.000000
585364.000000
585998.000000
586635.000000
587277.000000
587917.000000
588554.000000
589187.000000
589820.000000
590458.000000
591099.000000
591739.000000
592382.000000
593026.000000
593670.000000
594315.000000
594959.000000
595602.000000
596245.000000
596888.000000
597530.000000
598170.000000
598812.000000
599453.000000
600091.000000
600728.000000
601363.000000
602000.000000
602637.000000
603273.000000
603912.000000
604552.000000
605190.000000
605828.000000
606463.000000
607099.000000
607732.000000
608368.000000
609003.000000
609635.000000
610270.000000
610904.000000
611535.000000
612166.000000
612799.000000
613432.000000
614066.000000
614701.000000
615339.000000
615983.000000
616624.000000
617265.000000
617896.000000
618526.000000
619160.000000
619797.000000
620432.000000
621069.000000
621702.000000
622335.000000
622969.000000
623603.000000
624238.000000
624873.000000
625512.000000
626151.000000
626790.000000
627430.000000
628070.000000
628702.000000
629335.000000
629973.000000
630608.000000
631241.000000
631873.000000
632506.000000
633140.000000
633771.000000
634402.000000
635033.000000
635663.000000
636293.000000
636928.000000
637562.000000
638192.000000
638818.000000
639445.000000
640074.000000
640699.000000
641331.000000
641961.000000
642591.000000
643221.000000
643848.000000
644478.000000
645110.000000
645743.000000
646377.000000
647014.000000
647654.000000
648298.000000
648936.000000
649572.000000
650209.000000
650844.000000
651479.000000
652115.000000
652750.000000
653384.000000
654017.000000
654652.000000
655288.000000
655926.000000
656566.000000
657206.000000
657849.000000
658491.000000
659136.000000
659776.000000
660411.000000
661050.000000
661691.000000
662331.000000
662969.000000
663603.000000
664236.000000
664870.000000
665507.000000
666144.000000
666783.000000
667421.000000
668060.000000
668700.000000
669341.000000
669982.000000
670618.000000
671254.000000
671890.000000
672528.000000
673167.000000
673804.000000
674441.000000
675076.000000
675710.000000
676347.000000
676983.000000
677623.000000
678263.000000
678903.000000
679541.000000
680181.000000
680821.000000
681460.000000
682103.000000
682746.000000
683383.000000
684020.000000
684656.000000
685290.000000
685927.000000
686566.000000
687206.000000
687849.000000
688494.000000
689141.000000
689783.000000
690420.000000
691060.000000
691700.000000
692341.000000
692984.000000
693624.000000
694263.000000
694900.000000
695536.000000
696174.000000
696811.000000
697450.000000
698090.000000
698730.000000
699373.000000
700015.000000
700656.000000
701292.000000
701928.000000
702565.000000
703204.000000
703843.000000
704476.000000
705110.000000
705742.000000
706377.000000
707011.000000
707647.000000
708287.000000
708929.000000
709570.000000
710212.000000
710851.000000
711488.000000
712129.000000
712765.000000
713399.000000
714034.000000
714668.000000
715304.000000
715942.000000
716579.000000
717218.000000
717859.000000
718497.000000
719137.000000
719778.000000
720417.000000
721059.000000
721699.000000
722338.000000
722976.000000
723611.000000
724244.000000
724880.000000
725516.000000
726153.000000
726791.000000
727430.000000
728068.000000
728703.000000
729335.000000
729967.000000
730598.000000
731231.000000
731867.000000
732504.000000
733139.000000
733767.000000
734392.000000
735017.000000
735644.000000
736273.000000
736901.000000
737531.000000
738160.000000
738791.000000
739420.000000
740049.000000
740677.000000
741307.000000
741937.000000
742565.000000
743196.000000
743824.000000
744454.000000
745084.000000
745713.000000
746343.000000
746974.000000
747605.000000
748237.000000
748871.000000
749505.000000
750142.000000
750777.000000
751410.000000
752047.000000
752684.000000
753318.000000
753952.000000
754587.000000
755221.000000
755853.000000
756486.000000
757119.000000
757752.000000
758388.000000
759025.000000
759659.000000
760298.000000
760934.000000
761571.000000
762206.000000
762840.000000
763477.000000
764109.000000
764740.000000
765373.000000
766005.000000
766636.000000
767267.000000
767901.000000
768536.000000
769171.000000
769806.000000
770442.000000
771081.000000
771718.000000
772354.000000
772990.000000
773624.000000
774256.000000
774891.000000
775526.000000
776158.000000
776792.000000
777425.000000
778060.000000
778696.000000
779332.000000
779971.000000
780610.000000
781251.000000
781888.000000
782524.000000
783161.000000
783797.000000
784433.000000
785071.000000
785704.000000
786336.000000
786971.000000
787607.000000
788244.000000
788882.000000
789522.000000
790160.000000
790800.000000
791441.000000
792077.000000
792714.000000
793350.000000
793988.000000
794622.000000
795257.000000
795892.000000
796526.000000
797162.000000
797798.000000
798435.000000
799073.000000
799711.000000
800352.000000
800991.000000
801629.000000
802267.000000
802906.000000
803537.000000
804163.000000
804791.000000
805421.000000
806054.000000
806692.000000
807331.000000
807969.000000
808612.000000
809254.000000
809887.000000
810518.000000
811147.000000
811778.000000
812408.000000
813040.000000
813674.000000
814310.000000
814945.000000
815581.000000
816219.000000
816861.000000
817505.000000
818151.000000
818792.000000
819430.000000
820067.000000
820698.000000
821332.000000
821964.000000
822598.000000
823232.000000
823868.000000
824505.000000
825142.000000
825782.000000
826422.000000
827062.000000
827699.000000
828338.000000
828973.000000
829608.000000
830243.000000
830876.000000
831508.000000
832140.000000
832772.000000
833405.000000
834038.000000
834672.000000
835307.000000
835944.000000
836581.000000
837220.000000
837856.000000
838494.000000
839132.000000
839765.000000
840398.000000
841031.000000
841661.000000
842292.000000
842925.000000
843558.000000
844194.000000
844829.000000
845465.000000
846107.000000
846748.000000
847386.000000
848026.000000
848665.000000
849302.000000
849938.000000
850573.000000
851206.000000
851840.000000
852474.000000
853109.000000
853746.000000
854383.000000
855022.000000
855659.000000
856295.000000
856931.000000
857565.000000
858200.000000
858832.000000
859465.000000
860100.000000
860734.000000
861366.000000
861996.000000
862626.000000
863254.000000
863881.000000
864508.000000
865136.000000
865763.000000
866393.000000
867022.000000
867653.000000
868283.000000
868911.000000
869542.000000
870173.000000
870804.000000
871430.000000
872058.000000
872684.000000
873311.000000
873937.000000
874563.000000
875189.000000
875820.000000
876447.000000
877075.000000
877707.000000
878341.000000
878982.000000
879612.000000
880239.000000
880870.000000
881502.000000
882129.000000
882753.000000
883377.000000
884001.000000
884628.000000
885257.000000
885889.000000
886520.000000
887152.000000
887785.000000
888421.000000
889054.000000
889688.000000
890319.000000
890950.000000
891580.000000
892210.000000
892839.000000
893468.000000
894096.000000
894724.000000
895355.000000
895986.000000
896617.000000
897250.000000
897884.000000
898522.000000
899158.000000
