ECG (ms)
31.000000
996.000000
1978.000000
2907.000000
3823.000000
4780.000000
5749.000000
6723.000000
7663.000000
8583.000000
9530.000000
10503.000000
11496.000000
12477.000000
13422.000000
14398.000000
15351.000000
16311.000000
17211.000000
18153.000000
19125.000000
20096.000000
21051.000000
22005.000000
22984.000000
23966.000000
24935.000000
25910.000000
26915.000000
27926.000000
28946.000000
29951.000000
30955.000000
31979.000000
33016.000000
34037.000000
35014.000000
35977.000000
36928.000000
37916.000000
38912.000000
39969.000000
41011.000000
42056.000000
43071.000000
44049.000000
45022.000000
45993.000000
46991.000000
48020.000000
49054.000000
50096.000000
51105.000000
52112.000000
53078.000000
54035.000000
54998.000000
56005.000000
57034.000000
58067.000000
59105.000000
60132.000000
61113.000000
62071.000000
63018.000000
63968.000000
64942.000000
65936.000000
66934.000000
67947.000000
68954.000000
69937.000000
70891.000000
71842.000000
72794.000000
73772.000000
74765.000000
75751.000000
76734.000000
77717.000000
78700.000000
79657.000000
80598.000000
81527.000000
82484.000000
83449.000000
84434.000000
85431.000000
86441.000000
87472.000000
88502.000000
89537.000000
90576.000000
91591.000000
92589.000000
93574.000000
94589.000000
95621.000000
96664.000000
97719.000000
98760.000000
99789.000000
100794.000000
101768.000000
102732.000000
103738.000000
104760.000000
105817.000000
106876.000000
107932.000000
108943.000000
109940.000000
110979.000000
112031.000000
113079.000000
114087.000000
115058.000000
116017.000000
116979.000000
117968.000000
119006.000000
120055.000000
121084.000000
122130.000000
123180.000000
124199.000000
125175.000000
126144.000000
127090.000000
128029.000000
129004.000000
129984.000000
130984.000000
131996.000000
133014.000000
134031.000000
135043.000000
136016.000000
136956.000000
137889.000000
138840.000000
139821.000000
140840.000000
141867.000000
142879.000000
143899.000000
144890.000000
145879.000000
146905.000000
147953.000000
149011.000000
150080.000000
151127.000000
152173.000000
153196.000000
154176.000000
155146.000000
156130.000000
157141.000000
158156.000000
159180.000000
160164.000000
161154.000000
162179.000000
163210.000000
164226.000000
165202.000000
166159.000000
167142.000000
168153.000000
169163.000000
170181.000000
171204.000000
172173.000000
173128.000000
174067.000000
175047.000000
176044.000000
177046.000000
178054.000000
179080.000000
180062.000000
181020.000000
181965.000000
182934.000000
183936.000000
184951.000000
185977.000000
186999.000000
188008.000000
188977.000000
189948.000000
190897.000000
191838.000000
192810.000000
193799.000000
194812.000000
195871.000000
196952.000000
198010.000000
199051.000000
200057.000000
201037.000000
202008.000000
202982.000000
203976.000000
204978.000000
205988.000000
207007.000000
208037.000000
209026.000000
209993.000000
210949.000000
211919.000000
212914.000000
213922.000000
214936.000000
215964.000000
216960.000000
217914.000000
218866.000000
219828.000000
220811.000000
221790.000000
222778.000000
223778.000000
224736.000000
225669.000000
226599.000000
227537.000000
228499.000000
229474.000000
230469.000000
231480.000000
232467.000000
233424.000000
234383.000000
235371.000000
236362.000000
237349.000000
238357.000000
239373.000000
240387.000000
241397.000000
242388.000000
243340.000000
244277.000000
245228.000000
246190.000000
247175.000000
248161.000000
249165.000000
250179.000000
251157.000000
252103.000000
253053.000000
254007.000000
254988.000000
255969.000000
256947.000000
257924.000000
258919.000000
259905.000000
260860.000000
261803.000000
262742.000000
263699.000000
264666.000000
265638.000000
266620.000000
267596.000000
268585.000000
269598.000000
270597.000000
271556.000000
272486.000000
273402.000000
274320.000000
275259.000000
276236.000000
277227.000000
278230.000000
279236.000000
280260.000000
281247.000000
282223.000000
283195.000000
284175.000000
285163.000000
286161.000000
287181.000000
288207.000000
289211.000000
290183.000000
291138.000000
292093.000000
293054.000000
294036.000000
295022.000000
296022.000000
297033.000000
298039.000000
299024.000000
299999.000000
300981.000000
301985.000000
303001.000000
304027.000000
305057.000000
306059.000000
307035.000000
307995.000000
308965.000000
309949.000000
310961.000000
311964.000000
312965.000000
313980.000000
314982.000000
315938.000000
316893.000000
317847.000000
318802.000000
319775.000000
320742.000000
321738.000000
322740.000000
323752.000000
324761.000000
325741.000000
326715.000000
327696.000000
328702.000000
329724.000000
330742.000000
331771.000000
332763.000000
333718.000000
334661.000000
335616.000000
336566.000000
337530.000000
338489.000000
339451.000000
340373.000000
341288.000000
342252.000000
343212.000000
344148.000000
345056.000000
345971.000000
346928.000000
347896.000000
348874.000000
349857.000000
350842.000000
351796.000000
352737.000000
353695.000000
354675.000000
355678.000000
356672.000000
357668.000000
358670.000000
359665.000000
360626.000000
361580.000000
362538.000000
363520.000000
364510.000000
365523.000000
366531.000000
367551.000000
368532.000000
369496.000000
370464.000000
371474.000000
372507.000000
373544.000000
374578.000000
375605.000000
376637.000000
377639.000000
378627.000000
379632.000000
380659.000000
381693.000000
382722.000000
383735.000000
384712.000000
385651.000000
386583.000000
387539.000000
388535.000000
389566.000000
390614.000000
391654.000000
392711.000000
393734.000000
394749.000000
395745.000000
396738.000000
397768.000000
398818.000000
399872.000000
400924.000000
401968.000000
402986.000000
403990.000000
405023.000000
406080.000000
407150.000000
408199.000000
409232.000000
410244.000000
411222.000000
412208.000000
413240.000000
414268.000000
415308.000000
416342.000000
417362.000000
418384.000000
419379.000000
420382.000000
421410.000000
422436.000000
423470.000000
424472.000000
425443.000000
426415.000000
427419.000000
428433.000000
429450.000000
430483.000000
431484.000000
432468.000000
433466.000000
434486.000000
435514.000000
436515.000000
437484.000000
438434.000000
439388.000000
440354.000000
441338.000000
442340.000000
443356.000000
444375.000000
445396.000000
446403.000000
447419.000000
448425.000000
449415.000000
450379.000000
451332.000000
452293.000000
453282.000000
454286.000000
455304.000000
456330.000000
457356.000000
458339.000000
459308.000000
460276.000000
461274.000000
462303.000000
463338.000000
464371.000000
465392.000000
466388.000000
467374.000000
468356.000000
469366.000000
470383.000000
471411.000000
472417.000000
473383.000000
474336.000000
475318.000000
476324.000000
477327.000000
478341.000000
479334.000000
480304.000000
481311.000000
482332.000000
483337.000000
484327.000000
485291.000000
486248.000000
487243.000000
488261.000000
489304.000000
490322.000000
491310.000000
492313.000000
493343.000000
494377.000000
495402.000000
496396.000000
497363.000000
498353.000000
499371.000000
500370.000000
501378.000000
502387.000000
503393.000000
504351.000000
505282.000000
506203.000000
507142.000000
508144.000000
509178.000000
510216.000000
511275.000000
512335.000000
513386.000000
514413.000000
515416.000000
516408.000000
517451.000000
518496.000000
519538.000000
520589.000000
521634.000000
522635.000000
523624.000000
524594.000000
525609.000000
526649.000000
527692.000000
528731.000000
529729.000000
530700.000000
531657.000000
532640.000000
533658.000000
534691.000000
535737.000000
536771.000000
537775.000000
538755.000000
539767.000000
540808.000000
541852.000000
542861.000000
543887.000000
544949.000000
545995.000000
547052.000000
548057.000000
549018.000000
549975.000000
550930.000000
551897.000000
552890.000000
553930.000000
554959.000000
556003.000000
557048.000000
558079.000000
559072.000000
560085.000000
561113.000000
562159.000000
563196.000000
564225.000000
565218.000000
566202.000000
567171.000000
568155.000000
569172.000000
570188.000000
571214.000000
572248.000000
573241.000000
574227.000000
575213.000000
576233.000000
577284.000000
578334.000000
579394.000000
580452.000000
581507.000000
582527.000000
583502.000000
584463.000000
585451.000000
586458.000000
587475.000000
588498.000000
589525.000000
590525.000000
591505.000000
592472.000000
593472.000000
594509.000000
595546.000000
596547.000000
597523.000000
598529.000000
599551.000000
600530.000000
601500.000000
602428.000000
603411.000000
604397.000000
605357.000000
606287.000000
607217.000000
608177.000000
609162.000000
610160.000000
611154.000000
612142.000000
613113.000000
614086.000000
615093.000000
616112.000000
617120.000000
618077.000000
619047.000000
620037.000000
621039.000000
622047.000000
623060.000000
624037.000000
625014.000000
626021.000000
627050.000000
628079.000000
629101.000000
630131.000000
631169.000000
632188.000000
633170.000000
634178.000000
635216.000000
636240.000000
637275.000000
638325.000000
639372.000000
640421.000000
641433.000000
642439.000000
643464.000000
644506.000000
645560.000000
646610.000000
647644.000000
648644.000000
649675.000000
650742.000000
651793.000000
652843.000000
653878.000000
654918.000000
655980.000000
657052.000000
658099.000000
659121.000000
660162.000000
661224.000000
662308.000000
663391.000000
664471.000000
665550.000000
666605.000000
667627.000000
668668.000000
669742.000000
670828.000000
671921.000000
672963.000000
674012.000000
675075.000000
676134.000000
677189.000000
678204.000000
679226.000000
680234.000000
681196.000000
682160.000000
683163.000000
684170.000000
685182.000000
686204.000000
687186.000000
688166.000000
689168.000000
690186.000000
691198.000000
692207.000000
693219.000000
694197.000000
695203.000000
696235.000000
697267.000000
698288.000000
699292.000000
700279.000000
701266.000000
702276.000000
703307.000000
704335.000000
705367.000000
706398.000000
707432.000000
708466.000000
709493.000000
710495.000000
711525.000000
712594.000000
713664.000000
714692.000000
715731.000000
716768.000000
717800.000000
718799.000000
719784.000000
720805.000000
721871.000000
722920.000000
723948.000000
724973.000000
726007.000000
727025.000000
728028.000000
729011.000000
730011.000000
731045.000000
732080.000000
733111.000000
734152.000000
735200.000000
736256.000000
737311.000000
738349.000000
739376.000000
740433.000000
741500.000000
742555.000000
743563.000000
744541.000000
745549.000000
746585.000000
747608.000000
748647.000000
749699.000000
750746.000000
751791.000000
752835.000000
753880.000000
754890.000000
755923.000000
756986.000000
758033.000000
759080.000000
760134.000000
761180.000000
762196.000000
763196.000000
764250.000000
765292.000000
766325.000000
767358.000000
768400.000000
769456.000000
770509.000000
771565.000000
772630.000000
773691.000000
774723.000000
775739.000000
776756.000000
777822.000000
778872.000000
779908.000000
780943.000000
781973.000000
783018.000000
784075.000000
785117.000000
786132.000000
787182.000000
788223.000000
789227.000000
790210.000000
791198.000000
792215.000000
793233.000000
794241.000000
795271.000000
796308.000000
797342.000000
798351.000000
799349.000000
800336.000000
801344.000000
802389.000000
803415.000000
804445.000000
805486.000000
806529.000000
807561.000000
808594.000000
809634.000000
810662.000000
811691.000000
812721.000000
813751.000000
814783.000000
815801.000000
816781.000000
817766.000000
818774.000000
819796.000000
820827.000000
821860.000000
822860.000000
823862.000000
824878.000000
825928.000000
826975.000000
828012.000000
829061.000000
830114.000000
831163.000000
832183.000000
833179.000000
834176.000000
835203.000000
836227.000000
837245.000000
838240.000000
839195.000000
840169.000000
841174.000000
842208.000000
843238.000000
844251.000000
845230.000000
846215.000000
847232.000000
848271.000000
849322.000000
850359.000000
851380.000000
852418.000000
853475.000000
854522.000000
855557.000000
856549.000000
857546.000000
858588.000000
859624.000000
860652.000000
861654.000000
862693.000000
863747.000000
864801.000000
865805.000000
866844.000000
867886.000000
868933.000000
869931.000000
870931.000000
871960.000000
873008.000000
874069.000000
875086.000000
876081.000000
877106.000000
878148.000000
879199.000000
880209.000000
881201.000000
882211.000000
883230.000000
884264.000000
885320.000000
886330.000000
887353.000000
888391.000000
889429.000000
890437.000000
891432.000000
892460.000000
893492.000000
894523.000000
895525.000000
896530.000000
897541.000000
898566.000000
899583.000000
900553.000000
901563.000000
902592.000000
903621.000000
904608.000000
905589.000000
906590.000000
907587.000000
908602.000000
909598.000000
910551.000000
911510.000000
912508.000000
913514.000000
914544.000000
915547.000000
916514.000000
917484.000000
918478.000000
919487.000000
920506.000000
921543.000000
922551.000000
923517.000000
924498.000000
925477.000000
926487.000000
927510.000000
928552.000000
929588.000000
930615.000000
931601.000000
932582.000000
933582.000000
934607.000000
935632.000000
936634.000000
937672.000000
938726.000000
939770.000000
940800.000000
941818.000000
942867.000000
943929.000000
945008.000000
946058.000000
947075.000000
948141.000000
949197.000000
950273.000000
951316.000000
952317.000000
953335.000000
954364.000000
955399.000000
956431.000000
957403.000000
958387.000000
959400.000000
960438.000000
961419.000000
962387.000000
963361.000000
964368.000000
965344.000000
966340.000000
967346.000000
968346.000000
969300.000000
970246.000000
971187.000000
972104.000000
973047.000000
974017.000000
974978.000000
975905.000000
976821.000000
977755.000000
978702.000000
979660.000000
980611.000000
981574.000000
982528.000000
983461.000000
984422.000000
985397.000000
986380.000000
987368.000000
988355.000000
989325.000000
990314.000000
991337.000000
992363.000000
993379.000000
994400.000000
995391.000000
996370.000000
997371.000000
998393.000000
999414.000000
1000450.000000
1001472.000000
1002467.000000
1003473.000000
1004501.000000
1005523.000000
1006561.000000
1007566.000000
1008551.000000
1009535.000000
1010538.000000
1011544.000000
1012561.000000
1013597.000000
1014652.000000
1015701.000000
1016698.000000
1017704.000000
1018740.000000
1019786.000000
1020843.000000
1021906.000000
1022928.000000
1023929.000000
1024926.000000
1025945.000000
1026971.000000
1028000.000000
1029016.000000
1030006.000000
1031019.000000
1032043.000000
1033070.000000
1034092.000000
1035094.000000
1036076.000000
1037089.000000
1038116.000000
1039171.000000
1040201.000000
1041192.000000
1042188.000000
1043200.000000
1044236.000000
1045251.000000
1046250.000000
1047245.000000
1048271.000000
1049322.000000
1050364.000000
1051361.000000
1052398.000000
1053432.000000
1054496.000000
1055549.000000
1056575.000000
1057622.000000
1058679.000000
1059738.000000
1060761.000000
1061746.000000
1062752.000000
1063779.000000
1064820.000000
1065872.000000
1066886.000000
1067921.000000
1068985.000000
1070049.000000
1071133.000000
1072186.000000
1073208.000000
1074198.000000
1075213.000000
1076256.000000
1077294.000000
1078347.000000
1079392.000000
1080407.000000
1081382.000000
1082339.000000
1083311.000000
1084302.000000
1085310.000000
1086310.000000
1087317.000000
1088307.000000
1089267.000000
1090241.000000
1091262.000000
1092280.000000
1093292.000000
1094306.000000
1095318.000000
1096307.000000
1097308.000000
1098322.000000
1099365.000000
1100416.000000
1101468.000000
1102518.000000
1103598.000000
1104658.000000
1105711.000000
1106780.000000
1107872.000000
1108985.000000
1110086.000000
1111162.000000
1112246.000000
1113346.000000
1114426.000000
1115471.000000
1116518.000000
1117594.000000
1118711.000000
1119808.000000
1120904.000000
1121986.000000
1123064.000000
1124129.000000
1125149.000000
1126144.000000
1127184.000000
1128271.000000
1129383.000000
1130474.000000
1131576.000000
1132661.000000
1133732.000000
1134773.000000
1135813.000000
1136902.000000
1138000.000000
1139086.000000
1140177.000000
1141242.000000
1142270.000000
1143300.000000
1144380.000000
1145450.000000
1146526.000000
1147573.000000
1148611.000000
1149686.000000
1150760.000000
1151825.000000
1152845.000000
1153867.000000
1154907.000000
1155960.000000
1157011.000000
1158068.000000
1159099.000000
1160100.000000
1161095.000000
1162093.000000
1163080.000000
1164039.000000
1164990.000000
1165934.000000
1166923.000000
1167930.000000
1168915.000000
1169885.000000
1170882.000000
1171886.000000
1172900.000000
1173883.000000
1174880.000000
1175899.000000
1176927.000000
1177919.000000
1178896.000000
1179899.000000
1180919.000000
1181962.000000
1182987.000000
1184005.000000
1185048.000000
1186103.000000
1187184.000000
1188256.000000
1189320.000000
1190339.000000
1191398.000000
1192467.000000
1193526.000000
1194610.000000
1195723.000000
1196784.000000
1197850.000000
1198927.000000
1199954.000000
1201042.000000
1202118.000000
1203172.000000
1204202.000000
1205293.000000
1206329.000000
1207369.000000
1208348.000000
1209348.000000
1210384.000000
1211421.000000
1212473.000000
1213526.000000
1214581.000000
1215592.000000
1216589.000000
1217614.000000
1218668.000000
1219738.000000
1220815.000000
1221892.000000
1222962.000000
1223985.000000
1225002.000000
1226019.000000
1227061.000000
1228126.000000
1229199.000000
1230248.000000
1231256.000000
1232256.000000
1233276.000000
1234316.000000
1235377.000000
1236426.000000
1237440.000000
1238421.000000
1239427.000000
1240457.000000
1241492.000000
1242520.000000
1243553.000000
1244590.000000
1245629.000000
1246633.000000
1247645.000000
1248674.000000
1249728.000000
1250784.000000
1251840.000000
1252907.000000
1253977.000000
1255013.000000
1256082.000000
1257168.000000
1258218.000000
1259226.000000
1260236.000000
1261265.000000
1262305.000000
1263318.000000
1264291.000000
1265257.000000
1266265.000000
1267251.000000
1268242.000000
1269260.000000
1270286.000000
1271319.000000
1272328.000000
1273311.000000
1274324.000000
1275358.000000
1276407.000000
1277441.000000
1278437.000000
1279429.000000
1280438.000000
1281473.000000
1282518.000000
1283581.000000
1284636.000000
1285652.000000
1286651.000000
1287660.000000
1288689.000000
1289728.000000
1290779.000000
1291833.000000
1292895.000000
1293921.000000
1294924.000000
1295958.000000
1297001.000000
1298060.000000
1299116.000000
1300157.000000
1301205.000000
1302248.000000
1303271.000000
1304266.000000
1305245.000000
1306261.000000
1307302.000000
1308328.000000
1309369.000000
1310382.000000
1311381.000000
1312395.000000
1313433.000000
1314480.000000
1315534.000000
1316563.000000
1317566.000000
1318566.000000
1319583.000000
1320617.000000
1321653.000000
1322684.000000
1323682.000000
1324674.000000
1325696.000000
1326730.000000
1327772.000000
1328796.000000
1329795.000000
1330799.000000
1331823.000000
1332861.000000
1333891.000000
1334941.000000
1336003.000000
1337048.000000
1338053.000000
1339042.000000
1340041.000000
1341066.000000
1342101.000000
1343142.000000
1344190.000000
1345210.000000
1346227.000000
1347286.000000
1348348.000000
1349415.000000
1350457.000000
1351455.000000
1352482.000000
1353527.000000
1354566.000000
1355616.000000
1356665.000000
1357680.000000
1358690.000000
1359726.000000
1360768.000000
1361808.000000
1362824.000000
1363815.000000
1364811.000000
1365831.000000
1366865.000000
1367897.000000
1368886.000000
1369892.000000
1370916.000000
1371954.000000
1372989.000000
1374016.000000
1375038.000000
1376091.000000
1377113.000000
1378103.000000
1379082.000000
1380087.000000
1381110.000000
1382155.000000
1383180.000000
1384184.000000
1385221.000000
1386266.000000
1387289.000000
1388310.000000
1389287.000000
1390257.000000
1391246.000000
1392241.000000
1393224.000000
1394190.000000
1395150.000000
1396129.000000
1397118.000000
1398093.000000
1399051.000000
1399994.000000
1400960.000000
1401940.000000
1402922.000000
1403916.000000
1404875.000000
1405853.000000
1406842.000000
1407847.000000
1408857.000000
1409843.000000
1410787.000000
1411735.000000
1412713.000000
1413704.000000
1414675.000000
1415662.000000
1416630.000000
1417595.000000
1418579.000000
1419576.000000
1420604.000000
1421629.000000
1422633.000000
1423647.000000
1424674.000000
1425675.000000
1426651.000000
1427619.000000
1428614.000000
1429626.000000
1430641.000000
1431681.000000
1432733.000000
1433742.000000
1434727.000000
1435712.000000
1436715.000000
1437728.000000
1438762.000000
1439789.000000
1440780.000000
1441769.000000
1442793.000000
1443809.000000
1444813.000000
1445783.000000
1446759.000000
1447754.000000
1448762.000000
1449765.000000
1450739.000000
1451716.000000
1452730.000000
1453731.000000
1454723.000000
1455690.000000
1456660.000000
1457657.000000
1458653.000000
1459657.000000
1460651.000000
1461624.000000
1462601.000000
1463610.000000
1464621.000000
1465634.000000
1466626.000000
1467600.000000
1468583.000000
1469583.000000
1470610.000000
1471640.000000
1472665.000000
1473716.000000
1474775.000000
1475772.000000
1476794.000000
1477825.000000
1478861.000000
1479892.000000
1480884.000000
1481836.000000
1482809.000000
1483810.000000
1484756.000000
1485714.000000
1486693.000000
1487687.000000
1488696.000000
1489714.000000
1490693.000000
1491661.000000
1492653.000000
1493666.000000
1494683.000000
1495682.000000
1496720.000000
1497745.000000
1498748.000000
1499758.000000
1500799.000000
1501832.000000
1502873.000000
1503891.000000
1504931.000000
1505980.000000
1507027.000000
1508068.000000
1509111.000000
1510154.000000
1511191.000000
1512213.000000
1513221.000000
1514257.000000
1515302.000000
1516334.000000
1517348.000000
1518347.000000
1519377.000000
1520424.000000
1521475.000000
1522528.000000
1523579.000000
1524611.000000
1525619.000000
1526634.000000
1527669.000000
1528731.000000
1529805.000000
1530879.000000
1531910.000000
1532906.000000
1533909.000000
1534943.000000
1535999.000000
1537056.000000
1538103.000000
1539119.000000
1540115.000000
1541136.000000
1542179.000000
1543235.000000
1544307.000000
1545343.000000
1546354.000000
1547387.000000
1548445.000000
1549501.000000
1550514.000000
1551517.000000
1552563.000000
1553618.000000
1554666.000000
1555688.000000
1556726.000000
1557798.000000
1558852.000000
1559924.000000
1560948.000000
1561947.000000
1562951.000000
1564007.000000
1565084.000000
1566151.000000
1567199.000000
1568208.000000
1569204.000000
1570222.000000
1571260.000000
1572314.000000
1573374.000000
1574416.000000
1575431.000000
1576478.000000
1577541.000000
1578614.000000
1579672.000000
1580716.000000
1581788.000000
1582858.000000
1583901.000000
1584914.000000
1585959.000000
1587011.000000
1588039.000000
1589020.000000
1589985.000000
1590941.000000
1591933.000000
1592935.000000
1593970.000000
1595007.000000
1596027.000000
1597022.000000
1598054.000000
1599101.000000
1600160.000000
1601174.000000
1602202.000000
1603248.000000
1604258.000000
1605273.000000
1606307.000000
1607353.000000
1608354.000000
1609377.000000
1610425.000000
1611443.000000
1612422.000000
1613427.000000
1614438.000000
1615460.000000
1616456.000000
1617436.000000
1618467.000000
1619484.000000
1620454.000000
1621417.000000
1622382.000000
1623365.000000
1624353.000000
1625370.000000
1626389.000000
1627372.000000
1628406.000000
1629453.000000
1630498.000000
1631517.000000
1632506.000000
1633500.000000
1634530.000000
1635565.000000
1636603.000000
1637629.000000
1638630.000000
1639613.000000
1640600.000000
1641615.000000
1642642.000000
1643653.000000
1644613.000000
1645569.000000
1646550.000000
1647546.000000
1648538.000000
1649548.000000
1650562.000000
1651544.000000
1652520.000000
1653507.000000
1654523.000000
1655553.000000
1656585.000000
1657627.000000
1658617.000000
1659628.000000
1660651.000000
1661680.000000
1662701.000000
1663738.000000
1664773.000000
1665796.000000
1666785.000000
1667783.000000
1668796.000000
1669829.000000
1670863.000000
1671906.000000
1672955.000000
1673967.000000
1674957.000000
1675965.000000
1676980.000000
1678015.000000
1679050.000000
1680080.000000
1681093.000000
1682082.000000
1683060.000000
1684070.000000
1685084.000000
1686111.000000
1687149.000000
1688128.000000
1689101.000000
1690067.000000
1691046.000000
1692042.000000
1693033.000000
1694030.000000
1695030.000000
1696023.000000
1697001.000000
1698005.000000
1699030.000000
1700053.000000
1701083.000000
1702109.000000
1703102.000000
1704092.000000
1705080.000000
1706086.000000
1707103.000000
1708119.000000
1709137.000000
1710125.000000
1711101.000000
1712093.000000
1713069.000000
1714072.000000
1715084.000000
1716091.000000
1717095.000000
1718059.000000
1719022.000000
1719995.000000
1720991.000000
1721971.000000
1722946.000000
1723877.000000
1724802.000000
1725757.000000
1726686.000000
1727601.000000
1728525.000000
1729472.000000
1730411.000000
1731354.000000
1732288.000000
1733207.000000
1734125.000000
1735027.000000
1735949.000000
1736867.000000
1737781.000000
1738725.000000
1739688.000000
1740668.000000
1741622.000000
1742577.000000
1743527.000000
1744472.000000
1745421.000000
1746390.000000
1747381.000000
1748385.000000
1749377.000000
1750371.000000
1751399.000000
1752410.000000
1753402.000000
1754402.000000
1755421.000000
1756451.000000
1757465.000000
1758465.000000
1759455.000000
1760467.000000
1761496.000000
1762516.000000
1763545.000000
1764557.000000
1765570.000000
1766586.000000
1767617.000000
1768618.000000
1769604.000000
1770624.000000
1771644.000000
1772655.000000
1773630.000000
1774600.000000
1775590.000000
1776574.000000
1777549.000000
1778512.000000
1779509.000000
1780528.000000
1781536.000000
1782517.000000
1783511.000000
1784526.000000
1785536.000000
1786531.000000
1787509.000000
1788501.000000
1789499.000000
1790494.000000
1791461.000000
1792442.000000
1793460.000000
1794464.000000
1795479.000000
1796493.000000
1797534.000000
1798548.000000
1799532.000000
