ECG (ms)
333.000000
1066.000000
1804.000000
2536.000000
3246.000000
3965.000000
4670.000000
5390.000000
6106.000000
6806.000000
7501.000000
8196.000000
8900.000000
9602.000000
10330.000000
11084.000000
11855.000000
12637.000000
13416.000000
14191.000000
14934.000000
15647.000000
16347.000000
17047.000000
17756.000000
18444.000000
19158.000000
19873.000000
20573.000000
21266.000000
21966.000000
22663.000000
23374.000000
24077.000000
24809.000000
25549.000000
26273.000000
26994.000000
27709.000000
28437.000000
29151.000000
29871.000000
30589.000000
31311.000000
32017.000000
32747.000000
33502.000000
34263.000000
35015.000000
35773.000000
36517.000000
37234.000000
37945.000000
38658.000000
39364.000000
40088.000000
40823.000000
41577.000000
42328.000000
43077.000000
43815.000000
44562.000000
45314.000000
46070.000000
46820.000000
47577.000000
48334.000000
49085.000000
49813.000000
50546.000000
51288.000000
52015.000000
52744.000000
53464.000000
54185.000000
54899.000000
55614.000000
56339.000000
57057.000000
57765.000000
58483.000000
59200.000000
59918.000000
60623.000000
61331.000000
62036.000000
62731.000000
63434.000000
64167.000000
64899.000000
65659.000000
66434.000000
67204.000000
67950.000000
68698.000000
69430.000000
70163.000000
70877.000000
71600.000000
72333.000000
73073.000000
73818.000000
74564.000000
75319.000000
76048.000000
76784.000000
77533.000000
78297.000000
79070.000000
79854.000000
80615.000000
81348.000000
82077.000000
82795.000000
83514.000000
84221.000000
84933.000000
85653.000000
86361.000000
87083.000000
87825.000000
88599.000000
89377.000000
90143.000000
90888.000000
91616.000000
92338.000000
93043.000000
93749.000000
94470.000000
95184.000000
95903.000000
96625.000000
97366.000000
98092.000000
98813.000000
99534.000000
100240.000000
100936.000000
101631.000000
102350.000000
103060.000000
103792.000000
104522.000000
105242.000000
105985.000000
106715.000000
107429.000000
108141.000000
108856.000000
109579.000000
110287.000000
110995.000000
111712.000000
112421.000000
113132.000000
113849.000000
114588.000000
115320.000000
116037.000000
116756.000000
117492.000000
118228.000000
118955.000000
119683.000000
120411.000000
121140.000000
121862.000000
122583.000000
123315.000000
124054.000000
124796.000000
125531.000000
126283.000000
127037.000000
127772.000000
128501.000000
129224.000000
129947.000000
130674.000000
131382.000000
132107.000000
132864.000000
133616.000000
134354.000000
135097.000000
135828.000000
136568.000000
137298.000000
138033.000000
138748.000000
139444.000000
140131.000000
140816.000000
141509.000000
142218.000000
142928.000000
143649.000000
144379.000000
145136.000000
145894.000000
146637.000000
147365.000000
148099.000000
148821.000000
149560.000000
150292.000000
151036.000000
151775.000000
152499.000000
153208.000000
153904.000000
154591.000000
155312.000000
156069.000000
156833.000000
157579.000000
158318.000000
159073.000000
159817.000000
160551.000000
161288.000000
162034.000000
162793.000000
163520.000000
164251.000000
164975.000000
165712.000000
166436.000000
167198.000000
167969.000000
168732.000000
169467.000000
170204.000000
170941.000000
171686.000000
172416.000000
173134.000000
173859.000000
174574.000000
175283.000000
175986.000000
176699.000000
177434.000000
178157.000000
178881.000000
179597.000000
180307.000000
181047.000000
181776.000000
182510.000000
183249.000000
184016.000000
184785.000000
185557.000000
186327.000000
187098.000000
187862.000000
188597.000000
189319.000000
190039.000000
190751.000000
191450.000000
192145.000000
192855.000000
193559.000000
194261.000000
194952.000000
195643.000000
196356.000000
197085.000000
197820.000000
198590.000000
199391.000000
200198.000000
200992.000000
201784.000000
202563.000000
203327.000000
204069.000000
204794.000000
205519.000000
206240.000000
206960.000000
207676.000000
208400.000000
209135.000000
209888.000000
210638.000000
211380.000000
212129.000000
212902.000000
213658.000000
214403.000000
215152.000000
215890.000000
216612.000000
217333.000000
218075.000000
218826.000000
219574.000000
220307.000000
221056.000000
221794.000000
222530.000000
223258.000000
223985.000000
224720.000000
225451.000000
226183.000000
226942.000000
227699.000000
228459.000000
229211.000000
229964.000000
230752.000000
231533.000000
232281.000000
233057.000000
233834.000000
234596.000000
235332.000000
236059.000000
236789.000000
237524.000000
238251.000000
238987.000000
239745.000000
240513.000000
241275.000000
242040.000000
242816.000000
243571.000000
244312.000000
245039.000000
245770.000000
246495.000000
247218.000000
247953.000000
248702.000000
249463.000000
250225.000000
250972.000000
251726.000000
252469.000000
253190.000000
253912.000000
254643.000000
255384.000000
256140.000000
256890.000000
257633.000000
258369.000000
259089.000000
259819.000000
260558.000000
261329.000000
262094.000000
262854.000000
263611.000000
264359.000000
265099.000000
265821.000000
266542.000000
267262.000000
267966.000000
268682.000000
269413.000000
270143.000000
270854.000000
271571.000000
272290.000000
273019.000000
273756.000000
274485.000000
275210.000000
275934.000000
276657.000000
277383.000000
278102.000000
278833.000000
279573.000000
280326.000000
281078.000000
281840.000000
282599.000000
283357.000000
284091.000000
284819.000000
285550.000000
286261.000000
286964.000000
287677.000000
288403.000000
289135.000000
289869.000000
290600.000000
291323.000000
292050.000000
292772.000000
293500.000000
294238.000000
294984.000000
295751.000000
296506.000000
297233.000000
297959.000000
298686.000000
299407.000000
300127.000000
300859.000000
301610.000000
302351.000000
303105.000000
303852.000000
304631.000000
305392.000000
306155.000000
306928.000000
307699.000000
308454.000000
309195.000000
309922.000000
310642.000000
311359.000000
312060.000000
312782.000000
313535.000000
314304.000000
315085.000000
315860.000000
316643.000000
317414.000000
318166.000000
318907.000000
319653.000000
320399.000000
321142.000000
321874.000000
322616.000000
323343.000000
324057.000000
324774.000000
325496.000000
326215.000000
326927.000000
327641.000000
328365.000000
329079.000000
329778.000000
330480.000000
331167.000000
331835.000000
332480.000000
333115.000000
333763.000000
334431.000000
335113.000000
335812.000000
336512.000000
337225.000000
337930.000000
338654.000000
339364.000000
340082.000000
340818.000000
341552.000000
342272.000000
343009.000000
343750.000000
344515.000000
345269.000000
346037.000000
346783.000000
347519.000000
348229.000000
348951.000000
349727.000000
350537.000000
351331.000000
352119.000000
352877.000000
353618.000000
354407.000000
355197.000000
355979.000000
356766.000000
357532.000000
358284.000000
359038.000000
359789.000000
360539.000000
361277.000000
362013.000000
362757.000000
363488.000000
364220.000000
364985.000000
365759.000000
366547.000000
367339.000000
368125.000000
368904.000000
369671.000000
370431.000000
371186.000000
371928.000000
372664.000000
373395.000000
374122.000000
374852.000000
375606.000000
376385.000000
377152.000000
377923.000000
378701.000000
379478.000000
380241.000000
381006.000000
381759.000000
382500.000000
383225.000000
383973.000000
384731.000000
385486.000000
386238.000000
386994.000000
387742.000000
388476.000000
389204.000000
389944.000000
390678.000000
391403.000000
392148.000000
392888.000000
393646.000000
394392.000000
395124.000000
395856.000000
396598.000000
397346.000000
398093.000000
398838.000000
399591.000000
400349.000000
401095.000000
401831.000000
402584.000000
403328.000000
404072.000000
404814.000000
405572.000000
406319.000000
407051.000000
407769.000000
408500.000000
409225.000000
409957.000000
410677.000000
411400.000000
412138.000000
412877.000000
413606.000000
414343.000000
415119.000000
415899.000000
416668.000000
417430.000000
418176.000000
418905.000000
419622.000000
420342.000000
421071.000000
421805.000000
422558.000000
423317.000000
424102.000000
424876.000000
425641.000000
426404.000000
427145.000000
427878.000000
428608.000000
429334.000000
430056.000000
430774.000000
431514.000000
432247.000000
432996.000000
433735.000000
434478.000000
435216.000000
435956.000000
436676.000000
437394.000000
438112.000000
438849.000000
439587.000000
440326.000000
441073.000000
441812.000000
442535.000000
443279.000000
444018.000000
444768.000000
445513.000000
446240.000000
446971.000000
447693.000000
448406.000000
449118.000000
449842.000000
450570.000000
451311.000000
452044.000000
452796.000000
453544.000000
454308.000000
455057.000000
455810.000000
456562.000000
457319.000000
458054.000000
458790.000000
459520.000000
460247.000000
460965.000000
461681.000000
462422.000000
463172.000000
463915.000000
464655.000000
465397.000000
466143.000000
466882.000000
467615.000000
468344.000000
469086.000000
469820.000000
470543.000000
471263.000000
472012.000000
472769.000000
473524.000000
474269.000000
475028.000000
475773.000000
476512.000000
477237.000000
477953.000000
478688.000000
479431.000000
480156.000000
480882.000000
481617.000000
482366.000000
483106.000000
483839.000000
484596.000000
485352.000000
486104.000000
486857.000000
487609.000000
488358.000000
489092.000000
489807.000000
490525.000000
491240.000000
491955.000000
492666.000000
493402.000000
494139.000000
494892.000000
495624.000000
496350.000000
497082.000000
497805.000000
498523.000000
499244.000000
499977.000000
500711.000000
501431.000000
502151.000000
502885.000000
503620.000000
504355.000000
505084.000000
505825.000000
506562.000000
507294.000000
508022.000000
508766.000000
509506.000000
510245.000000
510976.000000
511714.000000
512459.000000
513208.000000
513940.000000
514674.000000
515419.000000
516163.000000
516907.000000
517655.000000
518395.000000
519142.000000
519886.000000
520620.000000
521358.000000
522092.000000
522822.000000
523543.000000
524269.000000
524998.000000
525740.000000
526470.000000
527214.000000
527959.000000
528698.000000
529415.000000
530137.000000
530876.000000
531634.000000
532376.000000
533106.000000
533846.000000
534583.000000
535320.000000
536046.000000
536783.000000
537533.000000
538280.000000
539005.000000
539743.000000
540481.000000
541219.000000
541948.000000
542673.000000
543402.000000
544131.000000
544879.000000
545616.000000
546355.000000
547104.000000
547844.000000
548567.000000
549285.000000
550010.000000
550745.000000
551494.000000
552254.000000
553034.000000
553808.000000
554568.000000
555306.000000
556037.000000
556751.000000
557463.000000
558171.000000
558876.000000
559587.000000
560311.000000
561036.000000
561762.000000
562492.000000
563224.000000
563956.000000
564675.000000
565401.000000
566123.000000
566833.000000
567531.000000
568239.000000
568965.000000
569700.000000
570427.000000
571162.000000
571909.000000
572655.000000
573407.000000
574170.000000
574929.000000
575685.000000
576421.000000
577155.000000
577885.000000
578603.000000
579311.000000
580034.000000
580754.000000
581485.000000
582211.000000
582938.000000
583678.000000
584423.000000
585177.000000
585918.000000
586662.000000
587399.000000
588125.000000
588844.000000
589560.000000
590291.000000
591017.000000
591750.000000
592475.000000
593213.000000
593951.000000
594703.000000
595439.000000
596184.000000
596940.000000
597710.000000
598468.000000
599212.000000
599950.000000
600692.000000
601422.000000
602137.000000
602852.000000
603574.000000
604295.000000
605023.000000
605747.000000
606481.000000
607209.000000
607933.000000
608648.000000
609353.000000
610061.000000
610794.000000
611521.000000
612246.000000
612978.000000
613722.000000
614469.000000
615208.000000
615956.000000
616698.000000
617439.000000
618184.000000
618913.000000
619638.000000
620363.000000
621080.000000
621800.000000
622523.000000
623273.000000
624031.000000
624783.000000
625526.000000
626276.000000
627023.000000
627775.000000
628518.000000
629269.000000
630028.000000
630781.000000
631520.000000
632252.000000
632990.000000
633726.000000
634450.000000
635167.000000
635904.000000
636641.000000
637370.000000
638097.000000
638833.000000
639585.000000
640330.000000
641060.000000
641793.000000
642522.000000
643256.000000
643993.000000
644722.000000
645459.000000
646216.000000
646974.000000
647730.000000
648477.000000
649228.000000
649968.000000
650702.000000
651427.000000
652158.000000
652893.000000
653629.000000
654357.000000
655078.000000
655802.000000
656539.000000
657285.000000
658026.000000
658755.000000
659495.000000
660238.000000
660987.000000
661731.000000
662479.000000
663227.000000
663956.000000
664681.000000
665407.000000
666130.000000
666869.000000
667599.000000
668348.000000
669080.000000
669824.000000
670563.000000
671277.000000
671989.000000
672681.000000
673357.000000
674012.000000
674652.000000
675297.000000
675953.000000
676615.000000
677291.000000
677968.000000
678645.000000
679318.000000
679995.000000
680664.000000
681339.000000
682022.000000
682722.000000
683429.000000
684138.000000
684868.000000
685611.000000
686366.000000
687124.000000
687880.000000
688640.000000
689401.000000
690141.000000
690872.000000
691601.000000
692328.000000
693043.000000
693762.000000
694498.000000
695245.000000
695999.000000
696752.000000
697513.000000
698271.000000
699038.000000
699797.000000
700540.000000
701283.000000
702014.000000
702733.000000
703442.000000
704170.000000
704921.000000
705677.000000
706424.000000
707177.000000
707949.000000
708734.000000
709516.000000
710301.000000
711071.000000
711842.000000
712594.000000
713352.000000
714107.000000
714861.000000
715602.000000
716329.000000
717058.000000
717804.000000
718550.000000
719293.000000
720026.000000
720773.000000
721521.000000
722261.000000
722985.000000
723709.000000
724432.000000
725172.000000
725919.000000
726675.000000
727443.000000
728232.000000
729019.000000
729799.000000
730569.000000
731345.000000
732122.000000
732894.000000
733648.000000
734398.000000
735142.000000
735886.000000
736633.000000
737381.000000
738150.000000
738937.000000
739716.000000
740493.000000
741238.000000
741970.000000
742717.000000
743453.000000
744154.000000
744829.000000
745486.000000
746131.000000
746776.000000
747429.000000
748101.000000
748781.000000
749485.000000
750194.000000
750918.000000
751651.000000
752381.000000
753095.000000
753822.000000
754572.000000
755326.000000
756090.000000
756855.000000
757618.000000
758370.000000
759129.000000
759892.000000
760637.000000
761379.000000
762131.000000
762888.000000
763647.000000
764423.000000
765218.000000
766014.000000
766815.000000
767610.000000
768380.000000
769147.000000
769891.000000
770638.000000
771366.000000
772104.000000
772832.000000
773577.000000
774314.000000
775084.000000
775834.000000
776587.000000
777347.000000
778092.000000
778825.000000
779546.000000
780271.000000
781004.000000
781754.000000
782483.000000
783233.000000
784004.000000
784801.000000
785598.000000
786391.000000
787190.000000
787966.000000
788725.000000
789458.000000
790186.000000
790913.000000
791677.000000
792446.000000
793228.000000
794001.000000
794772.000000
795528.000000
796283.000000
797036.000000
797801.000000
798566.000000
799339.000000
800125.000000
800925.000000
801710.000000
802505.000000
803281.000000
804039.000000
804771.000000
805491.000000
806212.000000
806950.000000
807703.000000
808462.000000
809248.000000
810034.000000
810817.000000
811591.000000
812374.000000
813159.000000
813946.000000
814711.000000
815469.000000
816214.000000
816947.000000
817673.000000
818400.000000
819150.000000
819912.000000
820669.000000
821419.000000
822177.000000
822924.000000
823659.000000
824382.000000
825115.000000
825853.000000
826587.000000
827323.000000
828066.000000
828812.000000
829577.000000
830320.000000
831050.000000
831780.000000
832502.000000
833237.000000
833969.000000
834720.000000
835485.000000
836263.000000
837012.000000
837774.000000
838520.000000
839265.000000
840003.000000
840756.000000
841509.000000
842243.000000
842958.000000
843671.000000
844391.000000
845122.000000
845854.000000
846584.000000
847335.000000
848105.000000
848873.000000
849620.000000
850365.000000
851116.000000
851870.000000
852602.000000
853327.000000
854067.000000
854802.000000
855554.000000
856291.000000
857020.000000
857746.000000
858479.000000
859202.000000
859941.000000
860678.000000
861444.000000
862217.000000
863002.000000
863779.000000
864558.000000
865325.000000
866084.000000
866843.000000
867584.000000
868321.000000
869047.000000
869774.000000
870495.000000
871215.000000
871931.000000
872641.000000
873346.000000
874090.000000
874833.000000
875571.000000
876311.000000
877040.000000
877779.000000
878508.000000
879252.000000
880001.000000
880761.000000
881534.000000
882304.000000
883057.000000
883786.000000
884520.000000
885253.000000
885975.000000
886707.000000
887452.000000
888198.000000
888941.000000
889676.000000
890431.000000
891175.000000
891925.000000
892660.000000
893406.000000
894157.000000
894908.000000
895647.000000
896388.000000
897126.000000
897849.000000
898564.000000
899298.000000
900041.000000
900794.000000
901529.000000
902258.000000
903000.000000
903742.000000
904478.000000
905213.000000
905963.000000
906700.000000
907447.000000
908245.000000
909037.000000
909825.000000
910598.000000
