ECG (ms)
105.000000
833.000000
1560.000000
2250.000000
2915.000000
3569.000000
4214.000000
5079.000000
5482.000000
6116.000000
6743.000000
7378.000000
8004.000000
8608.000000
9225.000000
9830.000000
10426.000000
11011.000000
11587.000000
12153.000000
12707.000000
13264.000000
13812.000000
14356.000000
14896.000000
15432.000000
15963.000000
16495.000000
17029.000000
17567.000000
18106.000000
18645.000000
19185.000000
19735.000000
20296.000000
20868.000000
21445.000000
22021.000000
22605.000000
23188.000000
23778.000000
24391.000000
25017.000000
25643.000000
26260.000000
26877.000000
27492.000000
28115.000000
28754.000000
29397.000000
30043.000000
30692.000000
31343.000000
32114.000000
32833.000000
33522.000000
34205.000000
34884.000000
35563.000000
36254.000000
36972.000000
37683.000000
38464.000000
39236.000000
40062.000000
40799.000000
41503.000000
42197.000000
42863.000000
43517.000000
44179.000000
44858.000000
45553.000000
46229.000000
46903.000000
47580.000000
48254.000000
48910.000000
49556.000000
50209.000000
50878.000000
51537.000000
52188.000000
52841.000000
53496.000000
54152.000000
54796.000000
55446.000000
56115.000000
56795.000000
57471.000000
58151.000000
58835.000000
59494.000000
60151.000000
60824.000000
61515.000000
62210.000000
62884.000000
63552.000000
64231.000000
64917.000000
65611.000000
66300.000000
66973.000000
67648.000000
68307.000000
68963.000000
69611.000000
70263.000000
70907.000000
71558.000000
72234.000000
72918.000000
73597.000000
74277.000000
74967.000000
75659.000000
76368.000000
77081.000000
77784.000000
78473.000000
79144.000000
79808.000000
80478.000000
81155.000000
81814.000000
82461.000000
83107.000000
83749.000000
84395.000000
85053.000000
85729.000000
86397.000000
87053.000000
87721.000000
88396.000000
89089.000000
89778.000000
90476.000000
91188.000000
91901.000000
92610.000000
93299.000000
93958.000000
94610.000000
95254.000000
95892.000000
96520.000000
97149.000000
97795.000000
98448.000000
99115.000000
99799.000000
100490.000000
101188.000000
101899.000000
102606.000000
103308.000000
104002.000000
104691.000000
105372.000000
106047.000000
106733.000000
107411.000000
108076.000000
108739.000000
109409.000000
110067.000000
110709.000000
111352.000000
111997.000000
112634.000000
113273.000000
113925.000000
114582.000000
115242.000000
115923.000000
116622.000000
117344.000000
118049.000000
118751.000000
119447.000000
120118.000000
120799.000000
121484.000000
122178.000000
122886.000000
123591.000000
124278.000000
124951.000000
125617.000000
126284.000000
126966.000000
127665.000000
128368.000000
129068.000000
129775.000000
130475.000000
131165.000000
131860.000000
132569.000000
133279.000000
133983.000000
134691.000000
135381.000000
136055.000000
136718.000000
137388.000000
138066.000000
138746.000000
139427.000000
140115.000000
140803.000000
141469.000000
142129.000000
142793.000000
143459.000000
144128.000000
144795.000000
145455.000000
146104.000000
146750.000000
147395.000000
148034.000000
148665.000000
149309.000000
149970.000000
150641.000000
151319.000000
151996.000000
152671.000000
153344.000000
154009.000000
154662.000000
155298.000000
155926.000000
156549.000000
157171.000000
157794.000000
158428.000000
159085.000000
159770.000000
160480.000000
161212.000000
161919.000000
162615.000000
163292.000000
163950.000000
164605.000000
165266.000000
165935.000000
166599.000000
167261.000000
167914.000000
168556.000000
169210.000000
169870.000000
170523.000000
171179.000000
171844.000000
172496.000000
173150.000000
173821.000000
174520.000000
175212.000000
175912.000000
176602.000000
177261.000000
177920.000000
178591.000000
179268.000000
179933.000000
180587.000000
181239.000000
181893.000000
182556.000000
183239.000000
183946.000000
184636.000000
185309.000000
185975.000000
186624.000000
187271.000000
187923.000000
188571.000000
189214.000000
189857.000000
190510.000000
191181.000000
191879.000000
192591.000000
193266.000000
193946.000000
194638.000000
195348.000000
196047.000000
196732.000000
197421.000000
198116.000000
198810.000000
199496.000000
200165.000000
200836.000000
201516.000000
202201.000000
202902.000000
203617.000000
204339.000000
205045.000000
205733.000000
206426.000000
207100.000000
207763.000000
208434.000000
209096.000000
209755.000000
210418.000000
211094.000000
211791.000000
212506.000000
213224.000000
213934.000000
214620.000000
215299.000000
215987.000000
216687.000000
217402.000000
218101.000000
218795.000000
219503.000000
220239.000000
221009.000000
221758.000000
222484.000000
223209.000000
223942.000000
224695.000000
225445.000000
226189.000000
226900.000000
227612.000000
228311.000000
228988.000000
229674.000000
230358.000000
231035.000000
231728.000000
232444.000000
233187.000000
233958.000000
234732.000000
235507.000000
236291.000000
237061.000000
237815.000000
238557.000000
239287.000000
240015.000000
240720.000000
241432.000000
242168.000000
242926.000000
243675.000000
244386.000000
245093.000000
245802.000000
246502.000000
247188.000000
247888.000000
248600.000000
249318.000000
250041.000000
250742.000000
251435.000000
252107.000000
252778.000000
253455.000000
254118.000000
254779.000000
255446.000000
256126.000000
256842.000000
257559.000000
258247.000000
258937.000000
259645.000000
260381.000000
261101.000000
261801.000000
262515.000000
263251.000000
263994.000000
264719.000000
265418.000000
266111.000000
266811.000000
267540.000000
268299.000000
269045.000000
269786.000000
270520.000000
271252.000000
271975.000000
272669.000000
273356.000000
274058.000000
274785.000000
275507.000000
276220.000000
276932.000000
277626.000000
278310.000000
279001.000000
279717.000000
280440.000000
281157.000000
281867.000000
282564.000000
283250.000000
283954.000000
284680.000000
285406.000000
286124.000000
286825.000000
287527.000000
288253.000000
288973.000000
289672.000000
290344.000000
291010.000000
291672.000000
292338.000000
293022.000000
293729.000000
294462.000000
295213.000000
295984.000000
296737.000000
297470.000000
298175.000000
298879.000000
299582.000000
300287.000000
300980.000000
301662.000000
302342.000000
303028.000000
303751.000000
304514.000000
305284.000000
306014.000000
306730.000000
307484.000000
308276.000000
309054.000000
309782.000000
310497.000000
311226.000000
311987.000000
312767.000000
313531.000000
314285.000000
315029.000000
315742.000000
316467.000000
317218.000000
317956.000000
318661.000000
319367.000000
320077.000000
320796.000000
321516.000000
322209.000000
322919.000000
323657.000000
324390.000000
325130.000000
325881.000000
326640.000000
327368.000000
328080.000000
328789.000000
329494.000000
330173.000000
330852.000000
331547.000000
332260.000000
332982.000000
333728.000000
334480.000000
335232.000000
335963.000000
336705.000000
337415.000000
338117.000000
338826.000000
339550.000000
340270.000000
340965.000000
341666.000000
342381.000000
343111.000000
343829.000000
344536.000000
345231.000000
345908.000000
346590.000000
347282.000000
347965.000000
348640.000000
349334.000000
350040.000000
350752.000000
351462.000000
352156.000000
352834.000000
353525.000000
354224.000000
354905.000000
355583.000000
356277.000000
356988.000000
357721.000000
358455.000000
359149.000000
359841.000000
360536.000000
361231.000000
361901.000000
362574.000000
363261.000000
363966.000000
364684.000000
365400.000000
366108.000000
366829.000000
367582.000000
368346.000000
369101.000000
369824.000000
370539.000000
371264.000000
371996.000000
372736.000000
373486.000000
374196.000000
374903.000000
375630.000000
376387.000000
377128.000000
377842.000000
378569.000000
379325.000000
380089.000000
380823.000000
381548.000000
382296.000000
383065.000000
383845.000000
384578.000000
385322.000000
386075.000000
386837.000000
387596.000000
388322.000000
389066.000000
389833.000000
390630.000000
391421.000000
392206.000000
392996.000000
393787.000000
394526.000000
395271.000000
396034.000000
396817.000000
397596.000000
398341.000000
399110.000000
399878.000000
400647.000000
401425.000000
402198.000000
402968.000000
403702.000000
404400.000000
405096.000000
405804.000000
406495.000000
407181.000000
407874.000000
408572.000000
409281.000000
409978.000000
410666.000000
411375.000000
412095.000000
412833.000000
413601.000000
414355.000000
415109.000000
415862.000000
416571.000000
417277.000000
417991.000000
418718.000000
419453.000000
420171.000000
420872.000000
421586.000000
422333.000000
423088.000000
423807.000000
424520.000000
425243.000000
425979.000000
426726.000000
427472.000000
428200.000000
428910.000000
429620.000000
430355.000000
431089.000000
431786.000000
432474.000000
433171.000000
433880.000000
434582.000000
435280.000000
435983.000000
436710.000000
437463.000000
438224.000000
438931.000000
439633.000000
440350.000000
441099.000000
441858.000000
442602.000000
443321.000000
444052.000000
444821.000000
445612.000000
446355.000000
447099.000000
447875.000000
448653.000000
449397.000000
450129.000000
450892.000000
451673.000000
452450.000000
453179.000000
453896.000000
454635.000000
455402.000000
456194.000000
456982.000000
457767.000000
458564.000000
459309.000000
460035.000000
460765.000000
461490.000000
462199.000000
462888.000000
463595.000000
464334.000000
465083.000000
465830.000000
466570.000000
467310.000000
468040.000000
468751.000000
469430.000000
470103.000000
470779.000000
471463.000000
472132.000000
472801.000000
473478.000000
474189.000000
474938.000000
475651.000000
476347.000000
477062.000000
477793.000000
478529.000000
479299.000000
480069.000000
480808.000000
481515.000000
482221.000000
482959.000000
483712.000000
484419.000000
485121.000000
485838.000000
486564.000000
487275.000000
487980.000000
488673.000000
489358.000000
490022.000000
490689.000000
491364.000000
492028.000000
492698.000000
493386.000000
494085.000000
494797.000000
495521.000000
496257.000000
496986.000000
497702.000000
498401.000000
499117.000000
499872.000000
500621.000000
501323.000000
502035.000000
502775.000000
503525.000000
504233.000000
504932.000000
505660.000000
506446.000000
507219.000000
507947.000000
508676.000000
509428.000000
510205.000000
510971.000000
511684.000000
512390.000000
513101.000000
513818.000000
514551.000000
515295.000000
516080.000000
516874.000000
517643.000000
518380.000000
519096.000000
519815.000000
520555.000000
521291.000000
521998.000000
522677.000000
523359.000000
524053.000000
524766.000000
525457.000000
526151.000000
526848.000000
527552.000000
528267.000000
529013.000000
529758.000000
530519.000000
531251.000000
531965.000000
532675.000000
533365.000000
534052.000000
534751.000000
535458.000000
536202.000000
536908.000000
537608.000000
538318.000000
539042.000000
539793.000000
540553.000000
541303.000000
542025.000000
542728.000000
543429.000000
544137.000000
544857.000000
545567.000000
546256.000000
546933.000000
547608.000000
548287.000000
548973.000000
549656.000000
550320.000000
550996.000000
551700.000000
552422.000000
553168.000000
553918.000000
554621.000000
555312.000000
556019.000000
556746.000000
557496.000000
558239.000000
558948.000000
559657.000000
560392.000000
561144.000000
561890.000000
562599.000000
563300.000000
564012.000000
564750.000000
565499.000000
566278.000000
567063.000000
567794.000000
568486.000000
569186.000000
569898.000000
570594.000000
571282.000000
571979.000000
572697.000000
573458.000000
574240.000000
575025.000000
575768.000000
576501.000000
577266.000000
578058.000000
578829.000000
579557.000000
580290.000000
581048.000000
581840.000000
582621.000000
583357.000000
584097.000000
584873.000000
585680.000000
586482.000000
587245.000000
587988.000000
588749.000000
589538.000000
590325.000000
591063.000000
591807.000000
592568.000000
593355.000000
594109.000000
594820.000000
595540.000000
596273.000000
597019.000000
597751.000000
598463.000000
599185.000000
599922.000000
600667.000000
601427.000000
602144.000000
602843.000000
603547.000000
604255.000000
604964.000000
605672.000000
606380.000000
607068.000000
607756.000000
608462.000000
609202.000000
609983.000000
610729.000000
611442.000000
612158.000000
612898.000000
613650.000000
614395.000000
615105.000000
615808.000000
616516.000000
617231.000000
617954.000000
618686.000000
619439.000000
620196.000000
620923.000000
621638.000000
622370.000000
623136.000000
623931.000000
624724.000000
625464.000000
626197.000000
626949.000000
627713.000000
628471.000000
629201.000000
629917.000000
630647.000000
631412.000000
632191.000000
632947.000000
633664.000000
634379.000000
635119.000000
635889.000000
636645.000000
637363.000000
638085.000000
638779.000000
639465.000000
640162.000000
640842.000000
641516.000000
642203.000000
642920.000000
643695.000000
644493.000000
645300.000000
646069.000000
646846.000000
647613.000000
648370.000000
649129.000000
649840.000000
650546.000000
651275.000000
652031.000000
652760.000000
653475.000000
654209.000000
654989.000000
655769.000000
656507.000000
657254.000000
658045.000000
658827.000000
659559.000000
660287.000000
661038.000000
661818.000000
662555.000000
663277.000000
664034.000000
664839.000000
665627.000000
666391.000000
667194.000000
668020.000000
668776.000000
669538.000000
670286.000000
671008.000000
671708.000000
672411.000000
673112.000000
673816.000000
674512.000000
675203.000000
675912.000000
676658.000000
677445.000000
678246.000000
679036.000000
679819.000000
680561.000000
681293.000000
682049.000000
682824.000000
683605.000000
684342.000000
685071.000000
685834.000000
686652.000000
687464.000000
688220.000000
688947.000000
689687.000000
690466.000000
691280.000000
692035.000000
692772.000000
693548.000000
694381.000000
695194.000000
695936.000000
696673.000000
697434.000000
698220.000000
698988.000000
699718.000000
700463.000000
701236.000000
702031.000000
702777.000000
703511.000000
704255.000000
705009.000000
705758.000000
706538.000000
707301.000000
708016.000000
708728.000000
709450.000000
710151.000000
710831.000000
711520.000000
712225.000000
712929.000000
713617.000000
714313.000000
715040.000000
715791.000000
716515.000000
717240.000000
717990.000000
718755.000000
719555.000000
720336.000000
721104.000000
721871.000000
722636.000000
723382.000000
724094.000000
724811.000000
725536.000000
726282.000000
727078.000000
727884.000000
728682.000000
729446.000000
730185.000000
730935.000000
731727.000000
732509.000000
733255.000000
733993.000000
734759.000000
735538.000000
736313.000000
737055.000000
737796.000000
738581.000000
739410.000000
740193.000000
740949.000000
741694.000000
742468.000000
743272.000000
744083.000000
744836.000000
745573.000000
746341.000000
747147.000000
747965.000000
748738.000000
749500.000000
750291.000000
751121.000000
751901.000000
752634.000000
753357.000000
754099.000000
754867.000000
755683.000000
756470.000000
757216.000000
757959.000000
758745.000000
759565.000000
760389.000000
761145.000000
761868.000000
762586.000000
763304.000000
764017.000000
764706.000000
765400.000000
766100.000000
766826.000000
767594.000000
768406.000000
769213.000000
770013.000000
770810.000000
771603.000000
772365.000000
773126.000000
773884.000000
774659.000000
775389.000000
776107.000000
776835.000000
777578.000000
778357.000000
779145.000000
779942.000000
780740.000000
781528.000000
782260.000000
782992.000000
783752.000000
784526.000000
785254.000000
785967.000000
786715.000000
787515.000000
788301.000000
789037.000000
789766.000000
790522.000000
791302.000000
792040.000000
792755.000000
793485.000000
794252.000000
795053.000000
795838.000000
796611.000000
797407.000000
798239.000000
799055.000000
799816.000000
800603.000000
801404.000000
802201.000000
802965.000000
803733.000000
804549.000000
805380.000000
806164.000000
806930.000000
807732.000000
808536.000000
809355.000000
810133.000000
810889.000000
811678.000000
812486.000000
813300.000000
814056.000000
814797.000000
815571.000000
816389.000000
817184.000000
817947.000000
818684.000000
819425.000000
820191.000000
820979.000000
821741.000000
822477.000000
823208.000000
823947.000000
824708.000000
825485.000000
826266.000000
827040.000000
827764.000000
828479.000000
829213.000000
829970.000000
830735.000000
831485.000000
832203.000000
832922.000000
833673.000000
834455.000000
835234.000000
835991.000000
836723.000000
837451.000000
838194.000000
838914.000000
839610.000000
840307.000000
841018.000000
841749.000000
842500.000000
843219.000000
843936.000000
844681.000000
845457.000000
846242.000000
847010.000000
847750.000000
848505.000000
849296.000000
850085.000000
850862.000000
851602.000000
852346.000000
853116.000000
853925.000000
854718.000000
855462.000000
856195.000000
856951.000000
857735.000000
858512.000000
859259.000000
859997.000000
860764.000000
861548.000000
862350.000000
863106.000000
863840.000000
864579.000000
865359.000000
866168.000000
866931.000000
867681.000000
868460.000000
869259.000000
870063.000000
870804.000000
871554.000000
872340.000000
873158.000000
873970.000000
874759.000000
875528.000000
876308.000000
877120.000000
877954.000000
878777.000000
879542.000000
880327.000000
881148.000000
881988.000000
882765.000000
883518.000000
884303.000000
885124.000000
885950.000000
886714.000000
887475.000000
888270.000000
889112.000000
889941.000000
890706.000000
891450.000000
892216.000000
893009.000000
893809.000000
894568.000000
895342.000000
896135.000000
896902.000000
897629.000000
898344.000000
899025.000000
899695.000000
900369.000000
901054.000000
901736.000000
902421.000000
903125.000000
903849.000000
904610.000000
905415.000000
906224.000000
907002.000000
907730.000000
908458.000000
909237.000000
910042.000000
910797.000000
911537.000000
912323.000000
913135.000000
913934.000000
914674.000000
915424.000000
916211.000000
917033.000000
917793.000000
918542.000000
919323.000000
920138.000000
920931.000000
921669.000000
922422.000000
923222.000000
924041.000000
924851.000000
925598.000000
926326.000000
927081.000000
927866.000000
928691.000000
929473.000000
930235.000000
931037.000000
931867.000000
932690.000000
933455.000000
934186.000000
934926.000000
935718.000000
936559.000000
937328.000000
938062.000000
938825.000000
939629.000000
940433.000000
941227.000000
941985.000000
942767.000000
943571.000000
944390.000000
945178.000000
945909.000000
946644.000000
947382.000000
948149.000000
948949.000000
949771.000000
950589.000000
951364.000000
952107.000000
952860.000000
953585.000000
954285.000000
954997.000000
955733.000000
956498.000000
957244.000000
957962.000000
958699.000000
959477.000000
960303.000000
961131.000000
961898.000000
962641.000000
963405.000000
964181.000000
964987.000000
965806.000000
966586.000000
967340.000000
968116.000000
968921.000000
969752.000000
970583.000000
971348.000000
972104.000000
972885.000000
973669.000000
974448.000000
975245.000000
976057.000000
976848.000000
977593.000000
978347.000000
979135.000000
979934.000000
980699.000000
981426.000000
982150.000000
982889.000000
983641.000000
984434.000000
985255.000000
986011.000000
986746.000000
987504.000000
988287.000000
989072.000000
989824.000000
990575.000000
991368.000000
992174.000000
992942.000000
993685.000000
994449.000000
995232.000000
996037.000000
996780.000000
997514.000000
998250.000000
998992.000000
999692.000000
1000395.000000
1001128.000000
1001908.000000
1002680.000000
1003459.000000
1004358.000000
1005319.000000
1006178.000000
1006979.000000
1007811.000000
1008667.000000
1009457.000000
1010251.000000
1011113.000000
1011975.000000
1012823.000000
1013687.000000
1014608.000000
1015456.000000
1016258.000000
1017096.000000
1017950.000000
1018769.000000
1019569.000000
1020405.000000
1021260.000000
1022098.000000
1022882.000000
1023664.000000
1024489.000000
1025351.000000
1026189.000000
1026997.000000
1027842.000000
1028718.000000
1029584.000000
1030393.000000
1031230.000000
1032101.000000
1033006.000000
1033926.000000
1034782.000000
1035609.000000
1036453.000000
1037308.000000
1038196.000000
1039024.000000
1039804.000000
1040588.000000
1041383.000000
1042174.000000
1043000.000000
1043806.000000
1044572.000000
1045367.000000
1046189.000000
1046991.000000
1047764.000000
1048570.000000
1049393.000000
1050176.000000
1050937.000000
1051736.000000
1052538.000000
1053325.000000
1054073.000000
1054824.000000
1055613.000000
1056431.000000
1057254.000000
1058028.000000
1058790.000000
1059586.000000
1060408.000000
1061204.000000
1061959.000000
1062727.000000
1063526.000000
1064346.000000
1065149.000000
1065903.000000
1066650.000000
1067434.000000
1068252.000000
1069061.000000
1069823.000000
1070576.000000
1071385.000000
1072230.000000
1073058.000000
1073826.000000
1074594.000000
1075381.000000
1076207.000000
1077016.000000
1077791.000000
1078568.000000
1079408.000000
1080267.000000
1081078.000000
1081824.000000
1082565.000000
1083320.000000
1084070.000000
1084831.000000
1085550.000000
1086245.000000
1086953.000000
1087675.000000
1088418.000000
1089170.000000
1089895.000000
1090611.000000
1091361.000000
1092147.000000
1092983.000000
1093825.000000
1094597.000000
1095354.000000
1096134.000000
1096939.000000
1097730.000000
1098482.000000
1099261.000000
1100091.000000
1100901.000000
1101663.000000
1102451.000000
1103280.000000
1104122.000000
1104927.000000
1105740.000000
1106594.000000
1107445.000000
1108221.000000
1108984.000000
1109770.000000
1110569.000000
1111333.000000
1112086.000000
1112896.000000
1113750.000000
1114586.000000
1115368.000000
1116167.000000
1117008.000000
1117824.000000
1118580.000000
1119341.000000
1120137.000000
1120961.000000
1121742.000000
1122503.000000
1123311.000000
1124155.000000
1124962.000000
1125717.000000
1126480.000000
1127293.000000
1128126.000000
1128896.000000
1129639.000000
1130412.000000
1131236.000000
1132081.000000
1132879.000000
1133672.000000
1134437.000000
1135146.000000
1135840.000000
1136552.000000
1137273.000000
1137980.000000
1138681.000000
1139403.000000
1140158.000000
1140960.000000
1141788.000000
1142624.000000
1143402.000000
1144144.000000
1144892.000000
1145655.000000
1146421.000000
1147211.000000
1147962.000000
1148697.000000
1149445.000000
1150214.000000
1151004.000000
1151783.000000
1152547.000000
1153287.000000
1154042.000000
1154834.000000
1155643.000000
1156428.000000
1157173.000000
1157940.000000
1158744.000000
1159554.000000
1160310.000000
1161050.000000
1161814.000000
1162620.000000
1163430.000000
1164181.000000
1164926.000000
1165719.000000
1166548.000000
1167399.000000
1168229.000000
1169032.000000
1169779.000000
1170532.000000
1171324.000000
1172141.000000
1172952.000000
1173716.000000
1174494.000000
1175313.000000
1176150.000000
1176968.000000
1177736.000000
1178496.000000
1179285.000000
1180098.000000
1180897.000000
1181682.000000
1182475.000000
1183319.000000
1184175.000000
1185020.000000
1185842.000000
1186633.000000
1187386.000000
1188154.000000
1188929.000000
1189726.000000
1190520.000000
1191321.000000
1192136.000000
1192898.000000
1193639.000000
1194397.000000
1195204.000000
1196050.000000
1196883.000000
1197649.000000
1198395.000000
1199139.000000
1199890.000000
1200605.000000
1201335.000000
1202117.000000
1202920.000000
1203681.000000
1204460.000000
1205265.000000
1206092.000000
1206905.000000
1207719.000000
1208535.000000
1209339.000000
1210079.000000
1210813.000000
1211559.000000
1212315.000000
1213111.000000
1213946.000000
1214781.000000
1215565.000000
1216310.000000
1217079.000000
1217892.000000
1218736.000000
1219586.000000
1220358.000000
1221102.000000
1221882.000000
1222681.000000
1223490.000000
1224251.000000
1225022.000000
1225846.000000
1226708.000000
1227564.000000
1228363.000000
1229123.000000
1229933.000000
1230782.000000
1231660.000000
1232493.000000
1233273.000000
1234038.000000
1234851.000000
1235732.000000
1236605.000000
1237403.000000
1238180.000000
1239009.000000
1239886.000000
1240806.000000
1241637.000000
1242450.000000
1243330.000000
1244232.000000
1245098.000000
1245890.000000
1246708.000000
1247564.000000
1248419.000000
1249216.000000
1250001.000000
1250821.000000
1251669.000000
1252508.000000
1253297.000000
1254082.000000
1254920.000000
1255763.000000
1256543.000000
1257296.000000
1258107.000000
1258982.000000
1259871.000000
1260725.000000
1261571.000000
1262350.000000
1263118.000000
1263926.000000
1264783.000000
1265652.000000
1266470.000000
1267259.000000
1268096.000000
1268959.000000
1269789.000000
1270565.000000
1271343.000000
1272174.000000
1273061.000000
1273924.000000
1274734.000000
1275527.000000
1276394.000000
1277288.000000
1278119.000000
1278894.000000
1279700.000000
1280548.000000
1281413.000000
1282213.000000
1282976.000000
1283764.000000
1284560.000000
1285369.000000
1286197.000000
1286993.000000
1287766.000000
1288605.000000
1289519.000000
1290449.000000
1291285.000000
1292066.000000
1292865.000000
1293660.000000
1294461.000000
1295239.000000
1296025.000000
1296804.000000
1297530.000000
1298268.000000
1299035.000000
1299829.000000
1300579.000000
1301296.000000
1302028.000000
1302763.000000
1303515.000000
1304241.000000
1304965.000000
1305722.000000
1306540.000000
1307366.000000
1308139.000000
1308896.000000
1309678.000000
1310499.000000
1311315.000000
1312080.000000
1312832.000000
1313625.000000
1314455.000000
1315273.000000
1316039.000000
1316832.000000
1317672.000000
1318486.000000
1319249.000000
1320027.000000
1320830.000000
1321646.000000
1322446.000000
1323249.000000
1324061.000000
1324812.000000
1325538.000000
1326264.000000
1327001.000000
1327793.000000
1328598.000000
1329361.000000
1330072.000000
1330784.000000
1331503.000000
1332227.000000
1332938.000000
1333647.000000
1334391.000000
1335198.000000
1335990.000000
1336738.000000
1337523.000000
1338339.000000
1339132.000000
1339880.000000
1340638.000000
1341419.000000
1342237.000000
1343025.000000
1343766.000000
1344500.000000
1345263.000000
1346080.000000
1346921.000000
1347764.000000
1348594.000000
1349392.000000
1350159.000000
1350952.000000
1351784.000000
1352603.000000
