ECG (ms)
553.000000
1180.000000
1828.000000
2499.000000
3209.000000
3933.000000
4644.000000
5337.000000
6019.000000
6703.000000
7394.000000
8087.000000
8787.000000
9497.000000
10200.000000
10906.000000
11629.000000
12345.000000
13057.000000
13800.000000
14544.000000
15274.000000
15992.000000
16749.000000
17595.000000
18365.000000
19145.000000
19971.000000
20761.000000
21516.000000
22246.000000
22988.000000
23745.000000
24491.000000
25237.000000
26107.000000
26978.000000
27753.000000
28517.000000
29261.000000
29980.000000
30715.000000
31615.000000
32717.000000
33729.000000
34574.000000
35308.000000
36058.000000
36865.000000
37825.000000
38976.000000
39931.000000
40779.000000
41573.000000
42387.000000
43226.000000
44044.000000
45180.000000
46170.000000
47139.000000
48024.000000
48830.000000
49646.000000
50489.000000
51332.000000
52219.000000
53118.000000
53912.000000
54698.000000
55554.000000
56352.000000
57167.000000
58022.000000
58808.000000
59598.000000
60400.000000
61179.000000
61956.000000
62742.000000
63527.000000
64305.000000
65090.000000
65897.000000
66655.000000
67415.000000
68169.000000
68935.000000
69682.000000
70466.000000
71260.000000
72005.000000
72752.000000
73522.000000
74301.000000
75070.000000
75885.000000
76669.000000
77440.000000
78235.000000
79061.000000
79839.000000
80597.000000
81369.000000
82181.000000
82955.000000
83762.000000
84628.000000
85521.000000
86340.000000
87129.000000
87877.000000
88644.000000
89442.000000
90576.000000
91485.000000
92301.000000
93052.000000
93787.000000
94546.000000
95699.000000
96655.000000
97620.000000
98592.000000
99521.000000
100419.000000
101230.000000
101975.000000
102704.000000
103441.000000
104231.000000
105341.000000
106281.000000
107075.000000
107825.000000
108569.000000
109357.000000
110237.000000
111368.000000
112311.000000
113138.000000
113923.000000
114668.000000
115420.000000
116210.000000
117105.000000
117920.000000
118738.000000
119616.000000
120460.000000
121231.000000
121992.000000
122780.000000
123540.000000
124324.000000
125136.000000
125900.000000
126662.000000
127487.000000
128365.000000
129157.000000
129904.000000
130631.000000
131374.000000
132181.000000
132986.000000
133763.000000
134537.000000
135445.000000
136370.000000
137152.000000
137897.000000
138635.000000
139400.000000
140181.000000
140935.000000
141686.000000
142462.000000
143278.000000
144094.000000
144859.000000
145609.000000
146376.000000
147174.000000
147955.000000
148709.000000
149452.000000
150235.000000
151080.000000
151900.000000
152656.000000
153383.000000
154107.000000
154859.000000
155675.000000
156497.000000
157385.000000
158331.000000
159184.000000
159978.000000
160788.000000
161599.000000
162368.000000
163188.000000
164012.000000
164797.000000
165563.000000
166355.000000
167203.000000
168051.000000
169041.000000
170108.000000
170930.000000
171679.000000
172485.000000
173649.000000
174655.000000
175513.000000
176289.000000
177137.000000
178036.000000
178931.000000
179867.000000
180858.000000
181683.000000
182465.000000
183249.000000
184070.000000
184857.000000
185628.000000
186418.000000
187294.000000
188364.000000
189197.000000
189964.000000
190715.000000
191454.000000
192201.000000
193032.000000
194194.000000
195119.000000
195913.000000
196682.000000
197458.000000
198241.000000
199084.000000
200017.000000
201001.000000
201847.000000
202599.000000
203323.000000
204058.000000
204848.000000
206004.000000
207011.000000
207835.000000
208570.000000
209319.000000
210213.000000
211172.000000
211977.000000
212733.000000
213492.000000
214302.000000
215212.000000
216039.000000
216807.000000
217566.000000
218393.000000
219533.000000
220488.000000
221288.000000
222046.000000
222803.000000
223587.000000
224419.000000
225642.000000
226779.000000
227817.000000
228636.000000
229364.000000
230103.000000
231271.000000
232326.000000
233231.000000
233987.000000
234764.000000
235954.000000
237031.000000
237986.000000
238754.000000
239505.000000
240290.000000
241484.000000
242586.000000
243636.000000
244474.000000
245219.000000
245960.000000
246699.000000
247467.000000
248340.000000
249548.000000
250653.000000
251598.000000
252353.000000
253066.000000
253767.000000
254503.000000
255305.000000
256137.000000
256938.000000
257742.000000
258638.000000
259482.000000
260274.000000
261024.000000
261772.000000
262543.000000
263318.000000
264086.000000
264830.000000
265601.000000
266413.000000
267180.000000
267926.000000
268681.000000
269423.000000
270159.000000
270879.000000
271612.000000
272373.000000
273153.000000
273900.000000
274627.000000
275376.000000
276115.000000
276853.000000
277599.000000
278341.000000
279112.000000
279944.000000
280718.000000
281461.000000
282206.000000
282959.000000
283720.000000
284459.000000
285184.000000
285920.000000
286693.000000
287466.000000
288208.000000
288962.000000
289759.000000
290534.000000
291284.000000
292027.000000
292780.000000
293544.000000
294275.000000
294996.000000
295738.000000
296502.000000
297237.000000
297975.000000
298736.000000
299527.000000
300305.000000
301051.000000
301807.000000
302562.000000
303307.000000
304060.000000
304816.000000
305596.000000
306340.000000
307062.000000
307799.000000
308564.000000
309321.000000
310070.000000
310801.000000
311561.000000
312363.000000
313175.000000
313955.000000
314707.000000
315447.000000
316215.000000
316993.000000
317765.000000
318532.000000
319332.000000
320162.000000
320946.000000
321712.000000
322477.000000
323264.000000
324055.000000
324834.000000
325602.000000
326392.000000
327285.000000
328141.000000
328946.000000
329706.000000
330434.000000
331172.000000
331953.000000
332787.000000
333572.000000
334335.000000
335101.000000
335896.000000
336686.000000
337445.000000
338193.000000
338930.000000
339668.000000
340407.000000
341155.000000
341883.000000
342598.000000
343302.000000
344028.000000
344798.000000
345564.000000
346328.000000
347085.000000
347878.000000
348830.000000
349765.000000
350557.000000
351299.000000
352029.000000
352802.000000
353601.000000
354409.000000
355183.000000
355952.000000
356767.000000
357611.000000
358458.000000
359256.000000
359994.000000
360706.000000
361430.000000
362184.000000
363198.000000
364163.000000
365055.000000
365909.000000
366728.000000
367494.000000
368273.000000
369070.000000
369855.000000
370625.000000
371378.000000
372162.000000
372994.000000
373825.000000
374605.000000
375346.000000
376091.000000
376863.000000
377675.000000
378437.000000
379182.000000
379929.000000
380719.000000
381509.000000
382269.000000
383014.000000
383763.000000
384574.000000
385434.000000
386264.000000
387021.000000
387742.000000
388458.000000
389195.000000
389978.000000
390812.000000
391624.000000
392421.000000
393242.000000
394132.000000
394992.000000
395804.000000
396576.000000
397319.000000
398076.000000
398886.000000
399751.000000
400553.000000
401313.000000
402109.000000
402916.000000
403699.000000
404467.000000
405262.000000
406106.000000
406940.000000
407764.000000
408632.000000
409512.000000
410307.000000
411096.000000
411879.000000
412687.000000
413485.000000
414357.000000
415214.000000
416017.000000
416794.000000
417588.000000
418435.000000
419223.000000
420006.000000
420803.000000
421663.000000
422494.000000
423257.000000
423991.000000
424737.000000
425545.000000
426421.000000
427237.000000
428017.000000
428807.000000
429649.000000
430461.000000
431233.000000
431984.000000
432753.000000
433558.000000
434353.000000
435152.000000
435915.000000
436715.000000
437571.000000
438447.000000
439238.000000
440016.000000
440826.000000
441648.000000
442424.000000
443192.000000
443969.000000
444761.000000
445521.000000
446300.000000
447098.000000
447941.000000
448736.000000
449547.000000
450335.000000
451088.000000
451873.000000
452734.000000
453599.000000
454397.000000
455185.000000
455976.000000
456744.000000
457524.000000
458374.000000
459190.000000
459980.000000
460743.000000
461537.000000
462338.000000
463111.000000
463879.000000
464681.000000
465472.000000
466237.000000
467020.000000
467833.000000
468677.000000
469457.000000
470233.000000
471005.000000
471772.000000
472584.000000
473712.000000
474712.000000
475548.000000
476323.000000
477096.000000
477940.000000
478818.000000
479738.000000
480860.000000
481887.000000
482715.000000
483483.000000
484276.000000
485064.000000
485831.000000
486591.000000
487426.000000
488481.000000
489365.000000
490135.000000
490866.000000
491591.000000
492361.000000
493197.000000
494035.000000
494848.000000
495698.000000
496615.000000
497423.000000
498191.000000
498956.000000
499723.000000
500483.000000
501238.000000
502007.000000
502799.000000
503605.000000
504403.000000
505202.000000
505988.000000
506833.000000
507725.000000
508581.000000
509369.000000
510149.000000
510945.000000
511764.000000
512594.000000
513437.000000
514331.000000
515219.000000
516052.000000
516889.000000
517738.000000
518570.000000
519364.000000
520160.000000
520966.000000
521757.000000
522512.000000
523248.000000
523970.000000
524698.000000
525474.000000
526275.000000
527037.000000
527740.000000
528449.000000
529165.000000
529894.000000
530625.000000
531407.000000
532248.000000
533094.000000
533867.000000
534614.000000
535371.000000
536171.000000
536976.000000
537777.000000
538534.000000
539270.000000
540040.000000
540888.000000
541793.000000
542606.000000
543392.000000
544214.000000
545047.000000
545874.000000
546652.000000
547448.000000
548256.000000
549067.000000
549907.000000
550729.000000
551543.000000
552340.000000
553134.000000
553934.000000
554700.000000
555475.000000
556268.000000
557091.000000
557877.000000
558634.000000
559423.000000
560266.000000
561066.000000
561838.000000
562686.000000
563507.000000
564299.000000
565096.000000
565892.000000
566657.000000
567420.000000
568221.000000
569038.000000
569830.000000
570648.000000
571465.000000
572261.000000
573095.000000
573951.000000
574749.000000
575516.000000
576306.000000
577111.000000
577884.000000
578643.000000
579399.000000
580229.000000
581115.000000
581920.000000
582706.000000
583490.000000
584265.000000
585026.000000
585786.000000
586571.000000
587387.000000
588172.000000
588956.000000
589758.000000
590567.000000
591366.000000
592189.000000
593011.000000
593778.000000
594524.000000
595268.000000
596028.000000
596771.000000
597521.000000
598301.000000
599059.000000
599782.000000
600501.000000
601232.000000
601959.000000
602684.000000
603423.000000
604170.000000
604917.000000
605681.000000
606449.000000
607192.000000
607923.000000
608658.000000
609388.000000
610105.000000
610812.000000
611524.000000
612236.000000
612951.000000
613664.000000
614393.000000
615178.000000
615948.000000
616678.000000
617422.000000
618177.000000
618908.000000
619644.000000
620373.000000
621139.000000
621866.000000
622602.000000
623387.000000
624215.000000
625010.000000
625781.000000
626554.000000
627313.000000
628060.000000
628801.000000
629575.000000
630633.000000
631513.000000
632284.000000
633022.000000
633759.000000
634544.000000
635393.000000
636420.000000
637386.000000
638240.000000
639017.000000
639760.000000
640500.000000
641279.000000
642042.000000
642788.000000
643542.000000
644303.000000
645091.000000
645896.000000
646704.000000
647547.000000
648343.000000
649112.000000
649883.000000
650638.000000
651382.000000
652128.000000
652888.000000
653704.000000
654570.000000
655445.000000
656264.000000
657119.000000
658196.000000
659110.000000
659917.000000
660697.000000
661545.000000
662343.000000
663119.000000
663936.000000
664869.000000
665743.000000
666563.000000
667359.000000
668142.000000
668899.000000
669647.000000
670397.000000
671168.000000
671919.000000
672655.000000
673380.000000
674101.000000
674838.000000
675547.000000
676254.000000
676981.000000
677731.000000
678497.000000
679245.000000
679995.000000
680742.000000
681455.000000
682165.000000
682924.000000
684068.000000
685029.000000
685826.000000
686624.000000
687505.000000
688404.000000
689387.000000
690397.000000
691283.000000
692072.000000
692933.000000
693945.000000
694781.000000
695568.000000
696362.000000
697170.000000
698017.000000
698859.000000
699970.000000
701010.000000
701814.000000
702568.000000
703331.000000
704131.000000
704952.000000
706178.000000
707275.000000
708239.000000
709047.000000
709849.000000
710617.000000
711376.000000
712176.000000
713079.000000
713934.000000
714765.000000
715670.000000
716712.000000
717573.000000
718374.000000
719159.000000
719937.000000
720713.000000
721491.000000
722356.000000
723518.000000
724482.000000
725337.000000
726116.000000
726867.000000
727609.000000
728354.000000
729162.000000
730016.000000
730893.000000
731814.000000
732666.000000
733453.000000
734229.000000
734996.000000
735748.000000
736505.000000
737322.000000
738198.000000
739025.000000
739856.000000
740674.000000
741445.000000
742200.000000
742976.000000
743727.000000
744456.000000
745176.000000
745919.000000
746710.000000
747518.000000
748298.000000
749104.000000
749862.000000
750591.000000
751321.000000
752074.000000
752862.000000
753630.000000
754449.000000
755322.000000
756312.000000
757098.000000
757851.000000
758599.000000
759345.000000
760078.000000
760817.000000
761613.000000
762813.000000
763850.000000
764745.000000
765531.000000
766293.000000
767060.000000
767849.000000
768654.000000
769474.000000
770291.000000
771115.000000
771893.000000
772698.000000
773496.000000
774281.000000
775101.000000
775981.000000
776841.000000
777608.000000
778383.000000
779195.000000
780028.000000
780823.000000
781638.000000
782447.000000
783231.000000
784021.000000
784823.000000
785579.000000
786349.000000
787155.000000
787949.000000
788748.000000
789584.000000
790465.000000
791275.000000
792036.000000
792791.000000
793547.000000
794318.000000
795093.000000
795924.000000
796987.000000
797866.000000
798649.000000
799408.000000
800177.000000
801035.000000
802208.000000
803136.000000
803949.000000
804755.000000
805541.000000
806326.000000
807148.000000
808009.000000
808832.000000
809652.000000
810447.000000
811184.000000
811932.000000
812788.000000
813691.000000
814496.000000
815274.000000
816051.000000
816829.000000
817632.000000
818462.000000
819288.000000
820065.000000
820821.000000
821602.000000
822367.000000
823127.000000
823878.000000
824638.000000
825404.000000
826269.000000
827096.000000
827872.000000
828639.000000
829402.000000
830145.000000
830879.000000
831616.000000
832365.000000
833124.000000
833891.000000
834653.000000
835412.000000
836194.000000
836976.000000
837733.000000
838490.000000
839241.000000
839984.000000
840717.000000
841414.000000
842087.000000
842753.000000
843451.000000
844190.000000
844931.000000
845696.000000
846495.000000
847251.000000
847962.000000
848664.000000
849386.000000
850201.000000
851032.000000
851831.000000
852593.000000
853325.000000
854049.000000
854827.000000
855678.000000
856545.000000
857321.000000
858069.000000
858824.000000
859616.000000
860432.000000
861578.000000
862594.000000
863451.000000
864253.000000
865067.000000
865882.000000
866863.000000
867937.000000
868839.000000
869662.000000
870474.000000
871281.000000
872097.000000
872929.000000
873741.000000
874574.000000
875403.000000
876196.000000
876993.000000
877801.000000
878578.000000
879356.000000
880158.000000
880967.000000
881737.000000
882495.000000
883237.000000
883973.000000
884731.000000
885473.000000
886212.000000
887008.000000
887832.000000
889070.000000
890185.000000
891233.000000
892065.000000
892853.000000
893649.000000
894439.000000
895247.000000
896134.000000
897357.000000
898552.000000
899747.000000
900790.000000
901614.000000
902368.000000
903143.000000
904365.000000
905523.000000
906685.000000
907775.000000
908775.000000
909559.000000
910293.000000
911024.000000
911780.000000
913033.000000
914153.000000
915149.000000
916083.000000
916828.000000
917555.000000
918265.000000
918998.000000
919865.000000
921176.000000
922307.000000
923381.000000
924356.000000
925142.000000
925917.000000
926685.000000
927468.000000
928294.000000
929261.000000
930200.000000
931063.000000
931928.000000
932813.000000
933632.000000
934440.000000
935221.000000
935970.000000
936706.000000
937459.000000
938258.000000
939093.000000
939895.000000
940707.000000
941566.000000
942336.000000
943071.000000
943814.000000
944585.000000
945401.000000
946211.000000
947055.000000
947929.000000
948758.000000
949539.000000
950347.000000
951104.000000
951854.000000
952574.000000
953276.000000
953967.000000
954659.000000
955397.000000
956229.000000
957391.000000
958316.000000
959060.000000
959753.000000
960445.000000
961145.000000
961881.000000
962726.000000
963544.000000
964331.000000
965121.000000
965940.000000
966716.000000
967471.000000
968208.000000
968923.000000
969627.000000
970347.000000
971120.000000
971915.000000
972764.000000
973618.000000
974417.000000
975153.000000
975869.000000
976581.000000
977390.000000
978432.000000
979475.000000
980287.000000
981024.000000
981738.000000
982459.000000
983197.000000
983958.000000
984715.000000
985471.000000
986269.000000
987132.000000
987981.000000
988770.000000
989534.000000
990280.000000
990992.000000
991687.000000
992383.000000
993092.000000
993833.000000
994633.000000
995540.000000
996554.000000
997408.000000
998194.000000
998980.000000
999740.000000
1000461.000000
1001186.000000
1001951.000000
1002837.000000
1003655.000000
1004435.000000
1005215.000000
1005998.000000
1006765.000000
1007553.000000
1008323.000000
1009079.000000
1009820.000000
1010572.000000
1011336.000000
1012141.000000
1012920.000000
1013689.000000
1014437.000000
1015153.000000
1015863.000000
1016591.000000
1017423.000000
1018255.000000
1019050.000000
1019852.000000
1020635.000000
1021405.000000
1022127.000000
1022831.000000
1023557.000000
1024370.000000
1025214.000000
1026103.000000
1026982.000000
1027770.000000
1028532.000000
1029291.000000
1030060.000000
1030818.000000
1031562.000000
1032310.000000
1033124.000000
1033920.000000
1034700.000000
1035462.000000
1036194.000000
1036908.000000
1037625.000000
1038413.000000
1039343.000000
1040134.000000
1040877.000000
1041609.000000
1042349.000000
1043114.000000
1043897.000000
1044766.000000
1045650.000000
1046458.000000
1047197.000000
1047891.000000
1048582.000000
1049324.000000
1050065.000000
1050797.000000
1051539.000000
1052261.000000
1052965.000000
1053676.000000
1054434.000000
1055362.000000
1056398.000000
1057302.000000
1058175.000000
1059007.000000
1059816.000000
1060661.000000
1061532.000000
1062343.000000
1063217.000000
1064137.000000
1064983.000000
1065799.000000
1066648.000000
1067488.000000
1068292.000000
1069091.000000
1069879.000000
1070642.000000
1071404.000000
1072169.000000
1072985.000000
1073761.000000
1074517.000000
1075281.000000
1076063.000000
1076827.000000
1077573.000000
1078329.000000
1079084.000000
1079841.000000
1080568.000000
1081283.000000
1082005.000000
1082743.000000
1083496.000000
1084249.000000
1085002.000000
1085769.000000
1086528.000000
1087264.000000
1087989.000000
1088752.000000
1089556.000000
1090693.000000
1091611.000000
1092407.000000
1093153.000000
1093854.000000
1094560.000000
1095287.000000
1096057.000000
1097293.000000
1098407.000000
1099475.000000
1100293.000000
1101052.000000
1101806.000000
1102588.000000
1103518.000000
1104768.000000
1105808.000000
1106609.000000
1107374.000000
1108256.000000
1109415.000000
1110360.000000
1111345.000000
1112372.000000
1113298.000000
1114225.000000
1115222.000000
1116182.000000
1117084.000000
1117998.000000
1118780.000000
1119582.000000
1120427.000000
1121288.000000
1122254.000000
1123160.000000
1124001.000000
1124829.000000
1125707.000000
1126527.000000
1127312.000000
1128074.000000
1128842.000000
1129604.000000
1130381.000000
1131178.000000
1131994.000000
1132747.000000
1133496.000000
1134264.000000
1135062.000000
1135832.000000
1136595.000000
1137364.000000
1138125.000000
1138872.000000
1139635.000000
1140403.000000
1141202.000000
1141946.000000
1142693.000000
1143461.000000
1144221.000000
1144961.000000
1145715.000000
1146863.000000
1147882.000000
1148836.000000
1149687.000000
1150467.000000
1151233.000000
1151975.000000
1152733.000000
1153599.000000
1154624.000000
1155471.000000
1156257.000000
1157049.000000
1157824.000000
1158585.000000
1159379.000000
1160148.000000
1160897.000000
1161633.000000
1162376.000000
1163103.000000
1163793.000000
1164463.000000
1165132.000000
1165810.000000
1166482.000000
1167159.000000
1167879.000000
1168700.000000
1169463.000000
1170197.000000
1170917.000000
1171621.000000
1172329.000000
1173037.000000
1173749.000000
1174474.000000
1175271.000000
1176092.000000
1176870.000000
1177700.000000
1178487.000000
1179244.000000
1180014.000000
1180795.000000
1181604.000000
1182388.000000
1183158.000000
1184001.000000
1184856.000000
1185641.000000
1186379.000000
1187111.000000
1187864.000000
1188625.000000
1189384.000000
1190161.000000
1190964.000000
1191743.000000
1192545.000000
1193404.000000
1194217.000000
1195008.000000
1195830.000000
1196704.000000
1197560.000000
1198337.000000
1199114.000000
1199919.000000
1200797.000000
1201671.000000
1202524.000000
1203467.000000
1204372.000000
1205179.000000
1205947.000000
1206708.000000
1207441.000000
1208177.000000
1208928.000000
1209786.000000
1210625.000000
1211471.000000
1212477.000000
1213397.000000
1214169.000000
1214894.000000
1215603.000000
1216336.000000
1217130.000000
1217986.000000
1218800.000000
1219587.000000
1220346.000000
1221105.000000
1221837.000000
1222541.000000
1223244.000000
1224001.000000
1224762.000000
1225543.000000
1226363.000000
1227129.000000
1227839.000000
1228530.000000
1229210.000000
1229914.000000
1230757.000000
1231693.000000
1232615.000000
1233452.000000
1234211.000000
1234935.000000
1235651.000000
1236414.000000
1237261.000000
1238267.000000
1239357.000000
1240350.000000
1241223.000000
1241986.000000
1242697.000000
1243387.000000
1244083.000000
1244880.000000
1246189.000000
1247262.000000
1248187.000000
1248925.000000
1249638.000000
1250405.000000
1251205.000000
1251975.000000
1252886.000000
1254103.000000
1255096.000000
1255896.000000
1256634.000000
1257331.000000
1258051.000000
1258815.000000
1259562.000000
1260351.000000
1261130.000000
1262300.000000
1263365.000000
1264350.000000
1265146.000000
1265865.000000
1266574.000000
1267356.000000
1268142.000000
1269354.000000
1270435.000000
1271455.000000
1272473.000000
1273241.000000
1273965.000000
1274678.000000
1275407.000000
1276184.000000
1277022.000000
1277883.000000
1278711.000000
1279491.000000
1280249.000000
1280994.000000
1281836.000000
1282744.000000
1283617.000000
1284431.000000
1285200.000000
1285935.000000
1286681.000000
1287457.000000
1288263.000000
1289052.000000
1289819.000000
1290549.000000
