ECG (ms)
153.000000
882.000000
1595.000000
2323.000000
3068.000000
3824.000000
4606.000000
5369.000000
6120.000000
6866.000000
7621.000000
8381.000000
9142.000000
9888.000000
10623.000000
11361.000000
12112.000000
12872.000000
13657.000000
14432.000000
15178.000000
15930.000000
16668.000000
17417.000000
18174.000000
18939.000000
19692.000000
20437.000000
21165.000000
21903.000000
22669.000000
23454.000000
24255.000000
25062.000000
25840.000000
26590.000000
27315.000000
28034.000000
28757.000000
29490.000000
30248.000000
31025.000000
31800.000000
32557.000000
33310.000000
34075.000000
34851.000000
35626.000000
36413.000000
37197.000000
37967.000000
38725.000000
39470.000000
40226.000000
40986.000000
41746.000000
42507.000000
43258.000000
43999.000000
44729.000000
45457.000000
46196.000000
46952.000000
47725.000000
48504.000000
49277.000000
50023.000000
50751.000000
51475.000000
52199.000000
52940.000000
53702.000000
54478.000000
55255.000000
56018.000000
56790.000000
57569.000000
58353.000000
59138.000000
59903.000000
60644.000000
61373.000000
62101.000000
62829.000000
63564.000000
64311.000000
65054.000000
65804.000000
66571.000000
67344.000000
68124.000000
68898.000000
69659.000000
70418.000000
71174.000000
71934.000000
72699.000000
73477.000000
74248.000000
74999.000000
75726.000000
76441.000000
77155.000000
77886.000000
78649.000000
79434.000000
80226.000000
81015.000000
81781.000000
82524.000000
83261.000000
84007.000000
84755.000000
85517.000000
86298.000000
87075.000000
87844.000000
88617.000000
89393.000000
90169.000000
90946.000000
91707.000000
92468.000000
93230.000000
93994.000000
94762.000000
95531.000000
96307.000000
97064.000000
97797.000000
98527.000000
99261.000000
100019.000000
100804.000000
101601.000000
102382.000000
103169.000000
103971.000000
104772.000000
105574.000000
106365.000000
107132.000000
107873.000000
108610.000000
109350.000000
110107.000000
110890.000000
111663.000000
112422.000000
113194.000000
113974.000000
114759.000000
115545.000000
116319.000000
117071.000000
117821.000000
118571.000000
119333.000000
120109.000000
120879.000000
121641.000000
122417.000000
123209.000000
124021.000000
124831.000000
125615.000000
126382.000000
127155.000000
127934.000000
128734.000000
129553.000000
130351.000000
131143.000000
131959.000000
132779.000000
133593.000000
134380.000000
135142.000000
135901.000000
136653.000000
137411.000000
138172.000000
138918.000000
139683.000000
140477.000000
141301.000000
142132.000000
142935.000000
143707.000000
144481.000000
145257.000000
146044.000000
146827.000000
147595.000000
148348.000000
149113.000000
149889.000000
150674.000000
151444.000000
152201.000000
152970.000000
153752.000000
154536.000000
155323.000000
156095.000000
156841.000000
157582.000000
158326.000000
159075.000000
159836.000000
160594.000000
161339.000000
162089.000000
162838.000000
163588.000000
164339.000000
165089.000000
165828.000000
166573.000000
167341.000000
168131.000000
168941.000000
169735.000000
170508.000000
171273.000000
172037.000000
172803.000000
173573.000000
174348.000000
175114.000000
175862.000000
176620.000000
177395.000000
178185.000000
178988.000000
179789.000000
180554.000000
181293.000000
182018.000000
182750.000000
183483.000000
184244.000000
185028.000000
185811.000000
186583.000000
187367.000000
188154.000000
188940.000000
189719.000000
190479.000000
191218.000000
191957.000000
192692.000000
193436.000000
194191.000000
194949.000000
195700.000000
196445.000000
197200.000000
197957.000000
198733.000000
199503.000000
200252.000000
200975.000000
201694.000000
202413.000000
203161.000000
203940.000000
204725.000000
205505.000000
206312.000000
207132.000000
207967.000000
208782.000000
209557.000000
210303.000000
211052.000000
211793.000000
212554.000000
213330.000000
214117.000000
214911.000000
215686.000000
216435.000000
217187.000000
217947.000000
218719.000000
219495.000000
220262.000000
221010.000000
221759.000000
222502.000000
223247.000000
224001.000000
224758.000000
225515.000000
226259.000000
226996.000000
227742.000000
228495.000000
229257.000000
230033.000000
230801.000000
231559.000000
232325.000000
233101.000000
233894.000000
234697.000000
235508.000000
236310.000000
237089.000000
237849.000000
238604.000000
239360.000000
240128.000000
240887.000000
241632.000000
242376.000000
243122.000000
243880.000000
244639.000000
245386.000000
246132.000000
246879.000000
247631.000000
248387.000000
249131.000000
249866.000000
250607.000000
251356.000000
252114.000000
252880.000000
253632.000000
254369.000000
255112.000000
255864.000000
256626.000000
257390.000000
258142.000000
258892.000000
259643.000000
260396.000000
261147.000000
261886.000000
262617.000000
263361.000000
264120.000000
264902.000000
265695.000000
266480.000000
267244.000000
268023.000000
268798.000000
269586.000000
270365.000000
271131.000000
271881.000000
272634.000000
273390.000000
274151.000000
274902.000000
275645.000000
276396.000000
277154.000000
277923.000000
278690.000000
279449.000000
280222.000000
281000.000000
281788.000000
282572.000000
283330.000000
284082.000000
284822.000000
285570.000000
286324.000000
287100.000000
287867.000000
288628.000000
289404.000000
290188.000000
290979.000000
291762.000000
292531.000000
293284.000000
294038.000000
294801.000000
295585.000000
296374.000000
297152.000000
297914.000000
298683.000000
299464.000000
300250.000000
301042.000000
301824.000000
302586.000000
303329.000000
304083.000000
304842.000000
305606.000000
306383.000000
307151.000000
307910.000000
308684.000000
309468.000000
310268.000000
311081.000000
311904.000000
312709.000000
313496.000000
314281.000000
315060.000000
315846.000000
316637.000000
317420.000000
318187.000000
318958.000000
319749.000000
320555.000000
321369.000000
322177.000000
322956.000000
323726.000000
324493.000000
325254.000000
326022.000000
326788.000000
327545.000000
328310.000000
329088.000000
329877.000000
330677.000000
331459.000000
332234.000000
333016.000000
333800.000000
334589.000000
335370.000000
336138.000000
336908.000000
337686.000000
338484.000000
339294.000000
340090.000000
340868.000000
341649.000000
342422.000000
343193.000000
343971.000000
344759.000000
345536.000000
346295.000000
347052.000000
347802.000000
348556.000000
349318.000000
350067.000000
350806.000000
351550.000000
352309.000000
353084.000000
353864.000000
354635.000000
355391.000000
356147.000000
356901.000000
357654.000000
358404.000000
359145.000000
359884.000000
360628.000000
361387.000000
362140.000000
362881.000000
363608.000000
364333.000000
365053.000000
365777.000000
366501.000000
367225.000000
367941.000000
368665.000000
369405.000000
370165.000000
370934.000000
371692.000000
372449.000000
373201.000000
373965.000000
374735.000000
375499.000000
376252.000000
377017.000000
377784.000000
378562.000000
379333.000000
380106.000000
380868.000000
381612.000000
382360.000000
383112.000000
383871.000000
384633.000000
385385.000000
386128.000000
386886.000000
387655.000000
388442.000000
389242.000000
390029.000000
390798.000000
391558.000000
392313.000000
393077.000000
393850.000000
394609.000000
395364.000000
396118.000000
396880.000000
397659.000000
398451.000000
399248.000000
400030.000000
400800.000000
401571.000000
402353.000000
403150.000000
403939.000000
404700.000000
405443.000000
406184.000000
406928.000000
407680.000000
408441.000000
409191.000000
409937.000000
410703.000000
411477.000000
412270.000000
413066.000000
413844.000000
414599.000000
415347.000000
416101.000000
416866.000000
417643.000000
418402.000000
419148.000000
419904.000000
420671.000000
421447.000000
422207.000000
422950.000000
423698.000000
424443.000000
425199.000000
425956.000000
426704.000000
427449.000000
428201.000000
428960.000000
429726.000000
430485.000000
431227.000000
431970.000000
432710.000000
433458.000000
434210.000000
434962.000000
435717.000000
436449.000000
437173.000000
437903.000000
438639.000000
439391.000000
440161.000000
440930.000000
441685.000000
442431.000000
443176.000000
443917.000000
444660.000000
445404.000000
446149.000000
446900.000000
447671.000000
448471.000000
449294.000000
450127.000000
450939.000000
451728.000000
452511.000000
453292.000000
454078.000000
454872.000000
455650.000000
456408.000000
457169.000000
457946.000000
458732.000000
459537.000000
460323.000000
461084.000000
461839.000000
462603.000000
463372.000000
464157.000000
464933.000000
465694.000000
466471.000000
467258.000000
468057.000000
468852.000000
469629.000000
470402.000000
471179.000000
471962.000000
472756.000000
473553.000000
474339.000000
475112.000000
475891.000000
476666.000000
477450.000000
478228.000000
479002.000000
479787.000000
480582.000000
481385.000000
482176.000000
482952.000000
483734.000000
484520.000000
485311.000000
486104.000000
486892.000000
487668.000000
488460.000000
489264.000000
490088.000000
490922.000000
491729.000000
492506.000000
493261.000000
494033.000000
494838.000000
495701.000000
496559.000000
497388.000000
498205.000000
499037.000000
499885.000000
500743.000000
501576.000000
502372.000000
503144.000000
503921.000000
504702.000000
505493.000000
506285.000000
507063.000000
507839.000000
508629.000000
509430.000000
510237.000000
511031.000000
511802.000000
512575.000000
513349.000000
514131.000000
514921.000000
515698.000000
516461.000000
517230.000000
518001.000000
518779.000000
519551.000000
520312.000000
521091.000000
521879.000000
522682.000000
523473.000000
524246.000000
525027.000000
525816.000000
526609.000000
527404.000000
528177.000000
528930.000000
529691.000000
530451.000000
531223.000000
531989.000000
532741.000000
533491.000000
534257.000000
535031.000000
535808.000000
536577.000000
537337.000000
538100.000000
538860.000000
539623.000000
540368.000000
541096.000000
541831.000000
542568.000000
543322.000000
544094.000000
544861.000000
545622.000000
546410.000000
547213.000000
548016.000000
548801.000000
549570.000000
550349.000000
551133.000000
551928.000000
552721.000000
553499.000000
554260.000000
555035.000000
555821.000000
556629.000000
557413.000000
558180.000000
558958.000000
559750.000000
560552.000000
561347.000000
562124.000000
562905.000000
563685.000000
564473.000000
565277.000000
566093.000000
566885.000000
567652.000000
568425.000000
569199.000000
569995.000000
570803.000000
571606.000000
572387.000000
573161.000000
573949.000000
574746.000000
575552.000000
576367.000000
577175.000000
577967.000000
578739.000000
579513.000000
580293.000000
581079.000000
581867.000000
582637.000000
583386.000000
584135.000000
584892.000000
585656.000000
586426.000000
587185.000000
587932.000000
588699.000000
589473.000000
590265.000000
591045.000000
591808.000000
592569.000000
593334.000000
594111.000000
594894.000000
595670.000000
596426.000000
597200.000000
597978.000000
598754.000000
599511.000000
600251.000000
601005.000000
601765.000000
602537.000000
603326.000000
604118.000000
604886.000000
605647.000000
606413.000000
607187.000000
607987.000000
608803.000000
609613.000000
610399.000000
611162.000000
611934.000000
612716.000000
613499.000000
614287.000000
615052.000000
615797.000000
616545.000000
617290.000000
618043.000000
618789.000000
619522.000000
620274.000000
621040.000000
621822.000000
622614.000000
623407.000000
624174.000000
624917.000000
625649.000000
626377.000000
627117.000000
627885.000000
628669.000000
629459.000000
630278.000000
631128.000000
631972.000000
632778.000000
633596.000000
634409.000000
635211.000000
635981.000000
636731.000000
637472.000000
638223.000000
638997.000000
639795.000000
640579.000000
641366.000000
642162.000000
642964.000000
643772.000000
644579.000000
645358.000000
646123.000000
646904.000000
647697.000000
648496.000000
649285.000000
650053.000000
650834.000000
651623.000000
652429.000000
653251.000000
654067.000000
654877.000000
655683.000000
656473.000000
657240.000000
658021.000000
658803.000000
659597.000000
660390.000000
661171.000000
661940.000000
662717.000000
663496.000000
664280.000000
665052.000000
665810.000000
666575.000000
667345.000000
668134.000000
668926.000000
669704.000000
670477.000000
671264.000000
672052.000000
672856.000000
673642.000000
674406.000000
675175.000000
675942.000000
676717.000000
677510.000000
678292.000000
679060.000000
679846.000000
680647.000000
681471.000000
682282.000000
683071.000000
683868.000000
684672.000000
685476.000000
686276.000000
687053.000000
687833.000000
688619.000000
689415.000000
690221.000000
691009.000000
691786.000000
692574.000000
693372.000000
694187.000000
695019.000000
695823.000000
696615.000000
697417.000000
698247.000000
699078.000000
699923.000000
700740.000000
701546.000000
702381.000000
703231.000000
704086.000000
704948.000000
705808.000000
706657.000000
707467.000000
708272.000000
709076.000000
709888.000000
710710.000000
711525.000000
712314.000000
713089.000000
713880.000000
714681.000000
715505.000000
716315.000000
717099.000000
717884.000000
718668.000000
719467.000000
720270.000000
721073.000000
721858.000000
722622.000000
723393.000000
724170.000000
724959.000000
725752.000000
726534.000000
727319.000000
728109.000000
728902.000000
729691.000000
730464.000000
731231.000000
732008.000000
732795.000000
733602.000000
734398.000000
735176.000000
735968.000000
736763.000000
737573.000000
738385.000000
739181.000000
739982.000000
740790.000000
741606.000000
742424.000000
743238.000000
744024.000000
744801.000000
745577.000000
746357.000000
747146.000000
747931.000000
748693.000000
749464.000000
750240.000000
751037.000000
751831.000000
752624.000000
753419.000000
754227.000000
755046.000000
755858.000000
756642.000000
757405.000000
758182.000000
758965.000000
759772.000000
760596.000000
761397.000000
762185.000000
762986.000000
763783.000000
764576.000000
765356.000000
766120.000000
766903.000000
767692.000000
768492.000000
769269.000000
770030.000000
770791.000000
771554.000000
772325.000000
773102.000000
773864.000000
774611.000000
775368.000000
776128.000000
776895.000000
777665.000000
778422.000000
779174.000000
779937.000000
780710.000000
781496.000000
782302.000000
783101.000000
783879.000000
784641.000000
785396.000000
786158.000000
786937.000000
787708.000000
788464.000000
789236.000000
790013.000000
790817.000000
791622.000000
792415.000000
793200.000000
793994.000000
794799.000000
795606.000000
796386.000000
797135.000000
797889.000000
798638.000000
799408.000000
800188.000000
800969.000000
801764.000000
802580.000000
803414.000000
804224.000000
805016.000000
805821.000000
806629.000000
807454.000000
808257.000000
809037.000000
809820.000000
810592.000000
811360.000000
812121.000000
812875.000000
813642.000000
814424.000000
815218.000000
816001.000000
816771.000000
817549.000000
818320.000000
819099.000000
819872.000000
820628.000000
821386.000000
822140.000000
822901.000000
823668.000000
824423.000000
825165.000000
825910.000000
826653.000000
827404.000000
828163.000000
828916.000000
829677.000000
830445.000000
831227.000000
832010.000000
832775.000000
833527.000000
834272.000000
835019.000000
835774.000000
836520.000000
837257.000000
838013.000000
838785.000000
839588.000000
840391.000000
841186.000000
841985.000000
842786.000000
843588.000000
844375.000000
845143.000000
845904.000000
846670.000000
847442.000000
848217.000000
848985.000000
849747.000000
850516.000000
851291.000000
852073.000000
852846.000000
853613.000000
854397.000000
855193.000000
856020.000000
856871.000000
857687.000000
858500.000000
859329.000000
860175.000000
861037.000000
861858.000000
862638.000000
863413.000000
864174.000000
864958.000000
865761.000000
866579.000000
867452.000000
868372.000000
869328.000000
870267.000000
871143.000000
871989.000000
872813.000000
873626.000000
874435.000000
875229.000000
876017.000000
876846.000000
877714.000000
878637.000000
879562.000000
880470.000000
881332.000000
882155.000000
882984.000000
883818.000000
884670.000000
885508.000000
886322.000000
887161.000000
888017.000000
888885.000000
889721.000000
890526.000000
891345.000000
892156.000000
892983.000000
893812.000000
894617.000000
895425.000000
896248.000000
897071.000000
897892.000000
898693.000000
899477.000000
900275.000000
901083.000000
901911.000000
902749.000000
903578.000000
904382.000000
905176.000000
905970.000000
906775.000000
907595.000000
908415.000000
909213.000000
910004.000000
910803.000000
911610.000000
912415.000000
913211.000000
914034.000000
914874.000000
915735.000000
916564.000000
917361.000000
918161.000000
918950.000000
919734.000000
920507.000000
921265.000000
922047.000000
922857.000000
923715.000000
924588.000000
925437.000000
926278.000000
927120.000000
927960.000000
928803.000000
929632.000000
930437.000000
931250.000000
932077.000000
932920.000000
933771.000000
934615.000000
935429.000000
936245.000000
937063.000000
937890.000000
938727.000000
939557.000000
940371.000000
941167.000000
941969.000000
942785.000000
943616.000000
944449.000000
945274.000000
946131.000000
946998.000000
947858.000000
948697.000000
949504.000000
950289.000000
951080.000000
951876.000000
952679.000000
953467.000000
954239.000000
955027.000000
955821.000000
956625.000000
957437.000000
958222.000000
959014.000000
959809.000000
960612.000000
961399.000000
962174.000000
962964.000000
963765.000000
964587.000000
965417.000000
966235.000000
967058.000000
967885.000000
968716.000000
969546.000000
970362.000000
971169.000000
971995.000000
972824.000000
973661.000000
974496.000000
975315.000000
976136.000000
976956.000000
977766.000000
978563.000000
979363.000000
980154.000000
980922.000000
981706.000000
982502.000000
983312.000000
984119.000000
984906.000000
985704.000000
986502.000000
987313.000000
988115.000000
988890.000000
989647.000000
990413.000000
991182.000000
991970.000000
992757.000000
993540.000000
994349.000000
995170.000000
996011.000000
996827.000000
997630.000000
998434.000000
999232.000000
1000033.000000
1000815.000000
1001582.000000
1002364.000000
1003171.000000
1004001.000000
1004818.000000
1005609.000000
1006403.000000
1007211.000000
1008045.000000
1008888.000000
1009710.000000
1010514.000000
1011320.000000
1012140.000000
1012977.000000
1013825.000000
1014647.000000
1015454.000000
1016270.000000
1017087.000000
1017913.000000
1018728.000000
1019528.000000
1020327.000000
1021139.000000
1021965.000000
1022794.000000
1023607.000000
1024408.000000
1025221.000000
1026039.000000
1026858.000000
1027663.000000
1028451.000000
1029244.000000
1030038.000000
1030842.000000
1031646.000000
1032429.000000
1033195.000000
1033971.000000
1034756.000000
1035550.000000
1036346.000000
1037128.000000
1037888.000000
1038657.000000
1039437.000000
1040238.000000
1041050.000000
1041852.000000
1042639.000000
1043451.000000
1044285.000000
1045129.000000
1045966.000000
1046777.000000
1047592.000000
1048413.000000
1049239.000000
1050071.000000
1050900.000000
1051702.000000
1052492.000000
1053292.000000
1054111.000000
1054953.000000
1055784.000000
1056601.000000
1057429.000000
1058272.000000
1059129.000000
1059994.000000
1060832.000000
1061637.000000
1062458.000000
1063274.000000
1064095.000000
1064899.000000
1065681.000000
1066464.000000
1067238.000000
1068020.000000
1068827.000000
1069630.000000
1070411.000000
1071201.000000
1071990.000000
1072786.000000
1073601.000000
1074417.000000
1075224.000000
1076061.000000
1076918.000000
1077785.000000
1078644.000000
1079473.000000
1080272.000000
1081048.000000
1081822.000000
1082604.000000
1083416.000000
1084275.000000
1085118.000000
1085939.000000
1086765.000000
1087600.000000
1088454.000000
1089303.000000
1090125.000000
1090932.000000
1091743.000000
1092553.000000
1093370.000000
1094178.000000
1094967.000000
1095770.000000
1096579.000000
1097405.000000
1098222.000000
1099023.000000
1099823.000000
1100630.000000
1101441.000000
1102250.000000
1103050.000000
1103831.000000
1104622.000000
1105425.000000
1106253.000000
1107111.000000
1107983.000000
1108818.000000
1109616.000000
1110417.000000
1111220.000000
1112042.000000
1112862.000000
1113674.000000
1114501.000000
1115344.000000
1116200.000000
1117074.000000
1117919.000000
1118743.000000
1119568.000000
1120398.000000
1121233.000000
1122071.000000
1122892.000000
1123676.000000
1124450.000000
1125254.000000
1126094.000000
1126966.000000
1127837.000000
1128683.000000
1129529.000000
1130382.000000
1131245.000000
1132108.000000
1132945.000000
1133770.000000
1134598.000000
1135437.000000
1136292.000000
1137159.000000
1138022.000000
1138852.000000
1139697.000000
1140545.000000
1141399.000000
1142266.000000
1143124.000000
1143964.000000
1144795.000000
1145643.000000
1146496.000000
1147370.000000
1148221.000000
1149055.000000
1149895.000000
1150748.000000
1151619.000000
1152475.000000
1153307.000000
1154153.000000
1154989.000000
1155830.000000
1156661.000000
1157476.000000
1158279.000000
1159102.000000
1159962.000000
1160858.000000
1161751.000000
1162618.000000
1163501.000000
1164389.000000
1165263.000000
1166121.000000
1166950.000000
1167774.000000
1168603.000000
1169443.000000
1170292.000000
1171144.000000
1171963.000000
1172747.000000
1173524.000000
1174320.000000
1175130.000000
1175994.000000
1176862.000000
1177732.000000
1178642.000000
1179569.000000
1180493.000000
1181377.000000
1182217.000000
1183053.000000
1183879.000000
1184719.000000
1185562.000000
1186379.000000
1187183.000000
1188004.000000
1188850.000000
1189730.000000
1190614.000000
1191462.000000
1192283.000000
1193115.000000
1193936.000000
1194765.000000
1195578.000000
1196367.000000
1197153.000000
1197955.000000
1198767.000000
1199597.000000
1200404.000000
1201193.000000
1202001.000000
1202823.000000
1203662.000000
1204490.000000
1205307.000000
1206140.000000
1206964.000000
1207794.000000
1208624.000000
1209434.000000
1210242.000000
1211048.000000
1211865.000000
1212688.000000
1213505.000000
1214291.000000
1215060.000000
1215843.000000
1216634.000000
1217457.000000
1218281.000000
1219085.000000
1219890.000000
1220717.000000
1221549.000000
1222387.000000
1223216.000000
1224017.000000
1224828.000000
1225643.000000
1226462.000000
1227269.000000
1228053.000000
1228844.000000
1229635.000000
1230451.000000
1231277.000000
1232073.000000
1232851.000000
1233629.000000
