ECG (ms)
476.000000
1184.000000
1873.000000
2553.000000
3247.000000
3934.000000
4610.000000
5278.000000
5960.000000
6668.000000
7389.000000
8097.000000
8786.000000
9484.000000
10201.000000
10911.000000
11599.000000
12277.000000
12957.000000
13650.000000
14339.000000
15018.000000
15702.000000
16391.000000
17087.000000
17769.000000
18421.000000
19073.000000
19734.000000
20420.000000
21104.000000
21776.000000
22442.000000
23122.000000
23820.000000
24525.000000
25225.000000
25945.000000
26676.000000
27397.000000
28098.000000
28780.000000
29463.000000
30161.000000
30854.000000
31533.000000
32203.000000
32884.000000
33590.000000
34297.000000
34986.000000
35668.000000
36367.000000
37090.000000
37808.000000
38499.000000
39192.000000
39896.000000
40605.000000
41304.000000
41988.000000
42676.000000
43399.000000
44139.000000
44865.000000
45574.000000
46288.000000
47007.000000
47704.000000
48375.000000
49045.000000
49722.000000
50400.000000
51070.000000
51730.000000
52399.000000
53087.000000
53785.000000
54480.000000
55161.000000
55849.000000
56551.000000
57250.000000
57931.000000
58594.000000
59261.000000
59932.000000
60604.000000
61277.000000
61945.000000
62632.000000
63354.000000
64082.000000
64784.000000
65469.000000
66158.000000
66862.000000
67578.000000
68281.000000
68959.000000
69631.000000
70309.000000
70997.000000
71677.000000
72347.000000
73014.000000
73693.000000
74381.000000
75068.000000
75750.000000
76423.000000
77116.000000
77826.000000
78540.000000
79233.000000
79905.000000
80572.000000
81241.000000
81904.000000
82558.000000
83212.000000
83885.000000
84599.000000
85342.000000
86073.000000
86796.000000
87523.000000
88247.000000
88966.000000
89670.000000
90349.000000
91029.000000
91729.000000
92456.000000
93177.000000
93879.000000
94573.000000
95283.000000
96016.000000
96736.000000
97438.000000
98117.000000
98798.000000
99486.000000
100197.000000
100899.000000
101576.000000
102246.000000
102929.000000
103631.000000
104335.000000
105029.000000
105709.000000
106399.000000
107111.000000
107815.000000
108501.000000
109177.000000
109858.000000
110558.000000
111273.000000
111987.000000
112687.000000
113395.000000
114124.000000
114844.000000
115545.000000
116235.000000
116927.000000
117638.000000
118343.000000
119030.000000
119711.000000
120423.000000
121183.000000
121938.000000
122661.000000
123359.000000
124071.000000
124810.000000
125546.000000
126260.000000
126949.000000
127633.000000
128336.000000
129050.000000
129759.000000
130450.000000
131129.000000
131819.000000
132525.000000
133230.000000
133914.000000
134582.000000
135258.000000
135954.000000
136658.000000
137353.000000
138027.000000
138695.000000
139376.000000
140076.000000
140774.000000
141455.000000
142119.000000
142787.000000
143470.000000
144167.000000
144862.000000
145544.000000
146209.000000
146884.000000
147571.000000
148264.000000
148945.000000
149603.000000
150258.000000
150926.000000
151603.000000
152277.000000
152938.000000
153581.000000
154231.000000
154891.000000
155560.000000
156233.000000
156898.000000
157561.000000
158234.000000
158917.000000
159594.000000
160257.000000
160918.000000
161579.000000
162218.000000
162822.000000
163418.000000
164022.000000
164615.000000
165193.000000
165773.000000
166359.000000
166947.000000
167561.000000
168216.000000
168935.000000
169695.000000
170443.000000
171157.000000
171828.000000
172489.000000
173158.000000
173860.000000
174620.000000
175408.000000
176191.000000
176950.000000
177700.000000
178473.000000
179304.000000
180127.000000
180902.000000
181621.000000
182315.000000
183007.000000
183722.000000
184453.000000
185175.000000
185877.000000
186579.000000
187310.000000
188088.000000
188894.000000
189684.000000
190438.000000
191150.000000
191844.000000
192542.000000
193257.000000
193986.000000
194705.000000
195404.000000
196085.000000
196782.000000
197496.000000
198236.000000
198979.000000
199697.000000
200397.000000
201107.000000
201845.000000
202596.000000
203337.000000
204051.000000
204734.000000
205413.000000
206106.000000
206824.000000
207570.000000
208308.000000
209016.000000
209702.000000
210404.000000
211133.000000
211894.000000
212659.000000
213406.000000
214128.000000
214852.000000
215608.000000
216364.000000
217087.000000
217793.000000
218519.000000
219265.000000
220013.000000
220745.000000
221448.000000
222150.000000
222876.000000
223623.000000
224378.000000
225119.000000
225825.000000
226523.000000
227227.000000
227942.000000
228670.000000
229397.000000
230104.000000
230791.000000
231494.000000
232224.000000
232979.000000
233737.000000
234453.000000
235151.000000
235866.000000
236607.000000
237356.000000
238119.000000
238866.000000
239578.000000
240286.000000
241023.000000
241791.000000
242547.000000
243275.000000
243977.000000
244687.000000
245415.000000
246128.000000
246826.000000
247513.000000
248212.000000
248932.000000
249657.000000
250366.000000
251054.000000
251744.000000
252460.000000
253205.000000
253949.000000
254666.000000
255355.000000
256044.000000
256750.000000
257463.000000
258167.000000
258879.000000
259621.000000
260398.000000
261178.000000
261940.000000
262671.000000
263396.000000
264144.000000
264900.000000
265630.000000
266333.000000
267029.000000
267738.000000
268456.000000
269164.000000
269853.000000
270533.000000
271227.000000
271950.000000
272682.000000
273401.000000
274101.000000
274814.000000
275544.000000
276268.000000
276974.000000
277667.000000
278373.000000
279104.000000
279834.000000
280540.000000
281222.000000
281892.000000
282568.000000
283262.000000
283956.000000
284646.000000
285327.000000
286022.000000
286750.000000
287523.000000
288294.000000
289035.000000
289749.000000
290464.000000
291189.000000
291909.000000
292619.000000
293316.000000
294010.000000
294728.000000
295465.000000
296193.000000
296897.000000
297599.000000
298311.000000
299023.000000
299723.000000
300403.000000
301075.000000
301754.000000
302450.000000
303155.000000
303857.000000
304552.000000
305259.000000
305987.000000
306715.000000
307421.000000
308115.000000
308825.000000
309556.000000
310280.000000
310989.000000
311677.000000
312361.000000
313065.000000
313795.000000
314525.000000
315240.000000
315941.000000
316659.000000
317398.000000
318127.000000
318838.000000
319520.000000
320197.000000
320888.000000
321596.000000
322321.000000
323047.000000
323753.000000
324447.000000
325153.000000
325878.000000
326605.000000
327312.000000
328003.000000
328719.000000
329460.000000
330191.000000
330907.000000
331615.000000
332343.000000
333078.000000
333799.000000
334497.000000
335185.000000
335882.000000
336597.000000
337312.000000
338009.000000
338690.000000
339352.000000
340021.000000
340702.000000
341378.000000
342045.000000
342697.000000
343346.000000
344011.000000
344691.000000
345380.000000
346062.000000
346727.000000
347395.000000
348082.000000
348788.000000
349493.000000
350188.000000
350862.000000
351542.000000
352239.000000
352949.000000
353658.000000
354350.000000
355036.000000
355732.000000
356445.000000
357161.000000
357863.000000
358544.000000
359221.000000
359925.000000
360671.000000
361425.000000
362157.000000
362854.000000
363548.000000
364260.000000
364978.000000
365683.000000
366372.000000
367060.000000
367764.000000
368497.000000
369241.000000
369971.000000
370693.000000
371421.000000
372162.000000
372889.000000
373585.000000
374277.000000
374975.000000
375682.000000
376383.000000
377069.000000
377737.000000
378410.000000
379113.000000
379854.000000
380618.000000
381373.000000
382088.000000
382789.000000
383495.000000
384205.000000
384900.000000
385586.000000
386265.000000
386962.000000
387682.000000
388398.000000
389095.000000
389789.000000
390496.000000
391225.000000
391944.000000
392632.000000
393316.000000
394019.000000
394749.000000
395498.000000
396224.000000
396920.000000
397619.000000
398346.000000
399073.000000
399791.000000
400493.000000
401211.000000
401958.000000
402706.000000
403439.000000
404143.000000
404841.000000
405562.000000
406292.000000
407009.000000
407711.000000
408415.000000
409149.000000
409921.000000
410668.000000
411381.000000
412085.000000
412798.000000
413519.000000
414238.000000
414941.000000
415635.000000
416333.000000
417053.000000
417779.000000
418487.000000
419171.000000
419859.000000
420560.000000
421268.000000
421980.000000
422686.000000
423373.000000
424063.000000
424754.000000
425431.000000
426087.000000
426751.000000
427447.000000
428179.000000
428932.000000
429668.000000
430380.000000
431068.000000
431755.000000
432451.000000
433156.000000
433865.000000
434574.000000
435296.000000
436035.000000
436764.000000
437471.000000
438180.000000
438910.000000
439652.000000
440387.000000
441124.000000
441892.000000
442671.000000
443411.000000
444124.000000
444848.000000
445586.000000
446331.000000
447059.000000
447754.000000
448439.000000
449132.000000
449831.000000
450532.000000
451220.000000
451892.000000
452571.000000
453279.000000
453985.000000
454683.000000
455369.000000
456056.000000
456763.000000
457471.000000
458154.000000
458830.000000
459509.000000
460197.000000
460880.000000
461550.000000
462230.000000
462931.000000
463642.000000
464347.000000
465046.000000
465757.000000
466488.000000
467213.000000
467915.000000
468610.000000
469312.000000
470016.000000
470704.000000
471379.000000
472062.000000
472758.000000
473456.000000
474144.000000
474836.000000
475549.000000
476276.000000
476989.000000
477680.000000
478371.000000
479067.000000
479774.000000
480468.000000
481141.000000
481802.000000
482469.000000
483147.000000
483834.000000
484513.000000
485177.000000
485838.000000
486504.000000
487187.000000
487886.000000
488599.000000
489322.000000
490059.000000
490771.000000
491454.000000
492115.000000
492775.000000
493442.000000
494108.000000
494763.000000
495418.000000
496090.000000
496772.000000
497458.000000
498132.000000
498788.000000
499459.000000
500114.000000
500748.000000
501349.000000
501940.000000
502520.000000
503089.000000
503656.000000
504225.000000
504798.000000
505391.000000
506006.000000
506642.000000
507289.000000
507938.000000
508572.000000
509215.000000
509877.000000
510547.000000
511224.000000
511892.000000
512542.000000
513176.000000
513819.000000
514489.000000
515193.000000
515935.000000
516679.000000
517404.000000
518129.000000
518878.000000
519639.000000
520389.000000
521097.000000
521780.000000
522471.000000
523176.000000
523907.000000
524650.000000
525379.000000
526091.000000
526827.000000
527597.000000
528356.000000
529087.000000
529804.000000
530528.000000
531256.000000
531966.000000
532651.000000
533330.000000
534018.000000
534730.000000
535449.000000
536156.000000
536875.000000
537631.000000
538397.000000
539141.000000
539859.000000
540577.000000
541302.000000
542019.000000
542713.000000
543408.000000
544121.000000
544841.000000
545555.000000
546270.000000
547008.000000
547760.000000
548502.000000
549222.000000
549937.000000
550664.000000
551377.000000
552067.000000
552751.000000
553438.000000
554135.000000
554827.000000
555506.000000
556177.000000
556859.000000
557565.000000
558279.000000
558979.000000
559673.000000
560373.000000
561087.000000
561795.000000
562481.000000
563160.000000
563846.000000
564530.000000
565209.000000
565879.000000
566558.000000
567265.000000
567993.000000
568727.000000
569453.000000
570188.000000
570914.000000
571608.000000
572296.000000
572996.000000
573699.000000
574393.000000
575079.000000
575775.000000
576485.000000
577186.000000
577875.000000
578566.000000
579271.000000
579974.000000
580672.000000
581376.000000
582085.000000
582784.000000
583469.000000
584154.000000
584853.000000
585556.000000
586246.000000
586919.000000
587586.000000
588261.000000
588935.000000
589599.000000
590268.000000
590969.000000
591715.000000
592474.000000
593217.000000
593953.000000
594688.000000
595416.000000
596133.000000
596833.000000
597532.000000
598235.000000
598921.000000
599588.000000
600263.000000
600944.000000
601616.000000
602278.000000
602959.000000
603663.000000
604365.000000
605047.000000
605721.000000
606407.000000
607101.000000
607777.000000
608434.000000
609091.000000
609758.000000
610430.000000
611096.000000
611757.000000
612432.000000
613134.000000
613836.000000
614522.000000
615210.000000
615912.000000
616618.000000
617315.000000
617991.000000
618648.000000
619311.000000
619987.000000
620674.000000
621364.000000
622042.000000
622726.000000
623416.000000
624103.000000
624778.000000
625451.000000
626143.000000
626849.000000
627557.000000
628244.000000
628919.000000
629615.000000
630337.000000
631051.000000
631747.000000
632425.000000
633093.000000
633770.000000
634458.000000
635140.000000
635811.000000
636478.000000
637156.000000
637859.000000
638573.000000
639282.000000
639981.000000
640689.000000
641416.000000
642138.000000
642844.000000
643541.000000
644240.000000
644935.000000
645614.000000
646282.000000
646954.000000
647643.000000
648353.000000
649064.000000
649762.000000
650450.000000
651149.000000
651870.000000
652591.000000
653302.000000
653999.000000
654705.000000
655428.000000
656149.000000
656862.000000
657554.000000
658251.000000
658955.000000
659662.000000
660343.000000
661025.000000
661729.000000
662447.000000
663155.000000
663838.000000
664510.000000
665191.000000
665882.000000
666563.000000
667226.000000
667891.000000
668565.000000
669247.000000
669921.000000
670596.000000
671287.000000
672004.000000
672724.000000
673427.000000
674124.000000
674832.000000
675548.000000
676251.000000
676932.000000
677602.000000
678281.000000
678979.000000
679698.000000
680427.000000
681145.000000
681873.000000
682637.000000
683397.000000
684136.000000
684854.000000
685557.000000
686242.000000
686914.000000
687590.000000
688298.000000
689059.000000
689841.000000
690606.000000
691364.000000
692121.000000
692854.000000
693560.000000
694247.000000
694940.000000
695646.000000
696345.000000
697026.000000
697688.000000
698359.000000
699034.000000
699706.000000
700366.000000
701028.000000
701706.000000
702402.000000
703106.000000
703802.000000
704504.000000
705232.000000
705982.000000
706710.000000
707409.000000
708092.000000
708771.000000
709447.000000
710123.000000
710796.000000
711482.000000
712197.000000
712930.000000
713659.000000
714385.000000
715133.000000
715890.000000
716624.000000
717330.000000
718024.000000
718719.000000
719411.000000
720096.000000
720791.000000
721510.000000
722230.000000
722935.000000
723644.000000
724366.000000
725089.000000
725793.000000
726493.000000
727195.000000
727881.000000
728551.000000
729215.000000
729878.000000
730553.000000
731235.000000
731910.000000
732577.000000
733255.000000
733950.000000
734652.000000
735346.000000
736026.000000
736711.000000
737404.000000
738100.000000
738783.000000
739447.000000
740115.000000
740794.000000
741475.000000
742148.000000
742821.000000
743522.000000
744270.000000
745019.000000
745753.000000
746498.000000
747238.000000
747957.000000
748648.000000
749332.000000
750022.000000
750716.000000
751401.000000
752070.000000
752750.000000
753439.000000
754129.000000
754817.000000
755502.000000
756198.000000
756918.000000
757637.000000
758331.000000
759014.000000
759701.000000
760398.000000
761098.000000
761796.000000
762489.000000
763205.000000
763946.000000
764681.000000
765395.000000
766108.000000
766827.000000
767531.000000
768222.000000
768906.000000
769594.000000
770291.000000
770984.000000
771667.000000
772352.000000
773056.000000
773771.000000
774471.000000
775156.000000
775833.000000
776518.000000
777211.000000
777906.000000
778594.000000
779298.000000
780016.000000
780730.000000
781432.000000
782127.000000
782823.000000
783514.000000
784198.000000
784876.000000
785565.000000
786276.000000
786985.000000
787680.000000
788372.000000
789070.000000
789782.000000
790478.000000
791147.000000
791814.000000
792486.000000
793164.000000
793835.000000
794499.000000
795160.000000
795810.000000
796424.000000
797019.000000
797614.000000
798209.000000
798808.000000
799425.000000
800066.000000
800724.000000
801379.000000
802033.000000
802698.000000
803370.000000
804034.000000
804683.000000
805334.000000
805998.000000
806678.000000
807362.000000
808041.000000
808708.000000
809386.000000
810079.000000
810787.000000
811494.000000
812195.000000
812912.000000
813646.000000
814373.000000
815075.000000
815753.000000
816432.000000
817130.000000
817861.000000
818588.000000
819289.000000
819983.000000
820706.000000
821469.000000
822255.000000
823058.000000
823889.000000
824748.000000
825565.000000
826328.000000
827067.000000
827813.000000
828541.000000
829239.000000
829945.000000
830685.000000
831432.000000
832166.000000
832900.000000
833655.000000
834416.000000
835158.000000
835878.000000
836601.000000
837335.000000
838051.000000
838738.000000
839424.000000
840132.000000
840860.000000
841588.000000
842312.000000
843044.000000
843794.000000
844553.000000
845294.000000
846024.000000
846772.000000
847539.000000
848285.000000
848983.000000
849681.000000
850386.000000
851102.000000
851832.000000
852548.000000
853261.000000
854017.000000
854808.000000
855569.000000
856283.000000
856979.000000
857684.000000
858401.000000
859110.000000
859810.000000
860521.000000
861257.000000
862001.000000
862737.000000
863475.000000
864227.000000
864970.000000
865685.000000
866389.000000
867102.000000
867825.000000
868533.000000
869233.000000
869941.000000
870667.000000
871393.000000
872102.000000
872810.000000
873528.000000
874248.000000
874957.000000
875651.000000
876353.000000
877070.000000
877777.000000
878474.000000
879160.000000
879858.000000
880569.000000
881290.000000
882002.000000
882692.000000
883382.000000
884092.000000
884815.000000
885534.000000
886233.000000
886937.000000
887646.000000
888354.000000
889063.000000
889756.000000
890444.000000
891151.000000
891864.000000
892562.000000
893251.000000
893959.000000
894687.000000
895404.000000
896091.000000
896754.000000
897420.000000
898091.000000
898775.000000
899461.000000
900144.000000
900822.000000
901509.000000
902233.000000
902987.000000
903753.000000
904484.000000
905188.000000
905882.000000
906584.000000
907279.000000
907969.000000
908665.000000
