ECG (ms)
797.000000
1615.000000
2450.000000
3264.000000
4019.000000
4780.000000
5584.000000
6453.000000
7351.000000
8157.000000
8886.000000
9601.000000
10364.000000
11184.000000
12037.000000
12871.000000
13712.000000
14544.000000
15360.000000
16127.000000
16878.000000
17647.000000
18417.000000
19115.000000
19820.000000
20658.000000
21479.000000
22279.000000
23079.000000
23901.000000
24743.000000
25587.000000
26430.000000
27263.000000
28126.000000
29006.000000
29879.000000
30766.000000
31616.000000
32407.000000
33151.000000
33879.000000
34634.000000
35483.000000
36368.000000
37278.000000
38190.000000
39100.000000
40014.000000
40918.000000
41811.000000
42698.000000
43588.000000
44488.000000
45352.000000
46160.000000
46922.000000
47692.000000
48548.000000
49489.000000
50451.000000
51383.000000
52308.000000
53190.000000
54066.000000
54858.000000
55566.000000
56389.000000
57279.000000
58121.000000
58938.000000
59765.000000
60608.000000
61483.000000
62389.000000
63291.000000
64181.000000
65049.000000
65906.000000
66769.000000
67644.000000
68523.000000
69368.000000
70176.000000
70946.000000
71689.000000
72443.000000
73246.000000
74123.000000
75047.000000
75987.000000
76905.000000
77801.000000
78679.000000
79564.000000
80455.000000
81345.000000
82242.000000
83156.000000
84036.000000
84814.000000
85576.000000
86389.000000
87195.000000
87964.000000
88705.000000
89441.000000
90208.000000
91050.000000
91942.000000
92844.000000
93735.000000
94627.000000
95509.000000
96385.000000
97261.000000
98085.000000
98865.000000
99668.000000
100534.000000
101337.000000
102150.000000
102997.000000
103860.000000
104734.000000
105623.000000
106506.000000
107322.000000
108124.000000
108930.000000
109795.000000
110680.000000
111532.000000
112419.000000
113333.000000
114239.000000
115083.000000
115952.000000
116864.000000
117778.000000
118638.000000
119474.000000
120346.000000
121244.000000
122106.000000
122962.000000
123860.000000
124794.000000
125669.000000
126521.000000
127404.000000
128283.000000
129162.000000
130089.000000
130959.000000
131787.000000
132685.000000
133619.000000
134562.000000
135430.000000
136217.000000
136990.000000
137782.000000
138649.000000
139590.000000
140553.000000
141500.000000
142416.000000
143309.000000
144208.000000
145134.000000
146063.000000
146943.000000
147749.000000
148551.000000
149373.000000
150304.000000
151313.000000
152383.000000
153451.000000
154475.000000
155463.000000
156445.000000
157405.000000
158333.000000
159245.000000
160128.000000
160970.000000
161825.000000
162755.000000
163696.000000
164637.000000
165549.000000
166399.000000
167183.000000
167973.000000
168836.000000
169764.000000
170714.000000
171636.000000
172478.000000
173337.000000
174216.000000
175124.000000
175977.000000
176851.000000
177776.000000
178731.000000
179670.000000
180583.000000
181425.000000
182240.000000
183094.000000
184008.000000
184946.000000
185902.000000
186840.000000
187722.000000
188558.000000
189405.000000
190314.000000
191221.000000
192133.000000
193037.000000
193922.000000
194798.000000
195619.000000
196393.000000
197160.000000
197954.000000
198779.000000
199636.000000
200529.000000
201440.000000
202371.000000
203297.000000
204232.000000
205144.000000
206047.000000
206914.000000
207775.000000
208623.000000
209517.000000
210393.000000
211259.000000
212097.000000
212944.000000
213733.000000
214494.000000
215364.000000
216278.000000
217149.000000
218037.000000
218871.000000
219639.000000
220391.000000
221149.000000
221956.000000
222825.000000
223720.000000
224663.000000
225625.000000
226596.000000
227554.000000
228491.000000
229397.000000
230315.000000
231240.000000
232163.000000
233073.000000
233994.000000
234900.000000
235781.000000
236607.000000
237401.000000
238139.000000
238890.000000
239714.000000
240577.000000
241474.000000
242409.000000
243348.000000
244285.000000
245201.000000
246125.000000
247021.000000
247885.000000
248762.000000
249651.000000
250545.000000
251435.000000
252298.000000
253092.000000
253834.000000
254559.000000
255311.000000
256144.000000
257026.000000
257898.000000
258769.000000
259649.000000
260518.000000
261372.000000
262126.000000
262860.000000
263646.000000
264446.000000
265207.000000
265935.000000
266671.000000
267469.000000
268322.000000
269182.000000
270045.000000
270899.000000
271707.000000
272460.000000
273184.000000
273917.000000
274732.000000
275642.000000
276573.000000
277525.000000
278452.000000
279374.000000
280271.000000
281155.000000
282018.000000
282834.000000
283588.000000
284317.000000
285059.000000
285918.000000
286833.000000
287792.000000
288740.000000
289671.000000
290599.000000
291504.000000
292391.000000
293289.000000
294182.000000
295080.000000
295988.000000
296909.000000
297823.000000
298724.000000
299592.000000
300397.000000
301151.000000
301923.000000
302719.000000
303527.000000
304359.000000
305172.000000
306059.000000
306968.000000
307894.000000
308816.000000
309752.000000
310644.000000
311523.000000
312385.000000
313251.000000
314186.000000
315133.000000
316001.000000
316787.000000
317676.000000
318611.000000
319509.000000
320445.000000
321336.000000
322227.000000
323056.000000
323829.000000
324590.000000
325368.000000
326208.000000
327138.000000
328134.000000
329128.000000
330085.000000
331027.000000
331946.000000
332843.000000
333746.000000
334673.000000
335582.000000
336472.000000
337349.000000
338173.000000
338954.000000
339728.000000
340580.000000
341511.000000
342449.000000
343358.000000
344258.000000
345125.000000
345951.000000
346726.000000
347469.000000
348215.000000
348986.000000
349832.000000
350762.000000
351688.000000
352616.000000
353523.000000
354418.000000
355290.000000
356162.000000
357042.000000
357916.000000
358769.000000
359575.000000
360411.000000
361330.000000
362290.000000
363246.000000
364129.000000
364957.000000
365789.000000
366669.000000
367594.000000
368526.000000
369463.000000
370412.000000
371352.000000
372208.000000
373006.000000
373801.000000
374661.000000
375583.000000
376498.000000
377411.000000
378294.000000
379140.000000
379955.000000
380696.000000
381483.000000
382389.000000
383298.000000
384142.000000
384931.000000
385691.000000
386448.000000
387220.000000
388067.000000
388953.000000
389824.000000
390707.000000
391581.000000
392457.000000
393330.000000
394212.000000
395150.000000
396142.000000
397181.000000
398221.000000
399222.000000
400194.000000
401159.000000
402101.000000
403039.000000
403936.000000
404767.000000
405558.000000
406335.000000
407159.000000
408084.000000
409045.000000
410012.000000
410969.000000
411936.000000
412893.000000
413829.000000
414754.000000
415669.000000
416576.000000
417471.000000
418333.000000
419223.000000
420163.000000
421182.000000
422228.000000
423251.000000
424238.000000
425227.000000
426194.000000
427146.000000
428083.000000
429018.000000
429944.000000
430848.000000
431699.000000
432512.000000
433311.000000
434147.000000
435040.000000
435953.000000
436870.000000
437767.000000
438655.000000
439552.000000
440467.000000
441398.000000
442324.000000
443220.000000
444048.000000
444829.000000
445602.000000
446427.000000
447326.000000
448289.000000
449281.000000
450251.000000
451198.000000
452128.000000
453042.000000
453945.000000
454815.000000
455628.000000
456407.000000
457188.000000
458018.000000
458926.000000
459882.000000
460835.000000
461774.000000
462701.000000
463608.000000
464516.000000
465404.000000
466276.000000
467100.000000
467901.000000
468713.000000
469583.000000
470495.000000
471449.000000
472378.000000
473235.000000
473991.000000
474728.000000
475480.000000
476205.000000
476906.000000
477618.000000
478361.000000
479177.000000
480071.000000
481010.000000
481930.000000
482822.000000
483687.000000
484529.000000
485377.000000
486218.000000
487062.000000
487895.000000
488691.000000
489454.000000
490194.000000
490949.000000
491786.000000
492730.000000
493641.000000
494534.000000
495358.000000
496121.000000
496913.000000
497769.000000
498647.000000
499509.000000
500434.000000
501463.000000
502431.000000
503345.000000
504317.000000
505289.000000
506217.000000
507124.000000
508039.000000
508920.000000
509817.000000
510731.000000
511664.000000
512584.000000
513478.000000
514336.000000
515193.000000
516011.000000
516837.000000
517750.000000
518705.000000
519620.000000
520506.000000
521351.000000
522168.000000
522928.000000
523665.000000
524566.000000
525525.000000
526411.000000
527239.000000
528028.000000
528819.000000
529619.000000
530448.000000
531332.000000
532258.000000
533180.000000
534097.000000
535002.000000
535897.000000
536789.000000
537687.000000
538600.000000
539504.000000
540397.000000
541275.000000
542143.000000
543025.000000
543930.000000
544820.000000
545643.000000
546429.000000
547225.000000
548044.000000
548908.000000
549823.000000
550752.000000
551648.000000
552526.000000
553396.000000
554254.000000
555128.000000
555988.000000
556864.000000
557706.000000
558479.000000
559248.000000
560044.000000
560903.000000
561799.000000
562713.000000
563602.000000
564468.000000
565342.000000
566205.000000
567057.000000
567912.000000
568785.000000
569631.000000
570450.000000
571277.000000
572118.000000
572979.000000
573849.000000
574739.000000
575615.000000
576488.000000
577373.000000
578249.000000
579117.000000
579980.000000
580782.000000
581544.000000
582398.000000
583285.000000
584120.000000
584927.000000
585723.000000
586530.000000
587378.000000
588273.000000
589161.000000
590050.000000
590917.000000
591790.000000
592674.000000
593605.000000
594498.000000
595346.000000
596203.000000
597080.000000
597979.000000
598883.000000
599779.000000
600682.000000
601573.000000
602457.000000
603338.000000
604165.000000
604978.000000
605755.000000
606622.000000
607543.000000
608451.000000
609353.000000
610213.000000
611116.000000
612040.000000
612956.000000
613870.000000
614749.000000
615591.000000
616438.000000
617300.000000
618188.000000
619096.000000
619999.000000
620899.000000
621804.000000
622696.000000
623559.000000
624404.000000
625266.000000
626149.000000
627036.000000
627913.000000
628812.000000
629726.000000
630623.000000
631487.000000
632368.000000
633274.000000
634168.000000
635060.000000
635964.000000
636884.000000
637817.000000
638794.000000
639751.000000
640651.000000
641523.000000
642380.000000
643243.000000
644131.000000
645029.000000
645931.000000
646843.000000
647729.000000
648632.000000
649533.000000
650407.000000
651280.000000
652091.000000
652878.000000
653707.000000
654547.000000
655335.000000
656111.000000
656896.000000
657774.000000
658680.000000
659591.000000
660484.000000
661362.000000
662240.000000
663067.000000
663832.000000
664578.000000
665341.000000
666192.000000
667218.000000
668222.000000
669174.000000
670133.000000
671104.000000
672038.000000
672961.000000
673916.000000
674836.000000
675748.000000
676637.000000
677476.000000
678324.000000
679176.000000
680038.000000
680907.000000
681803.000000
682696.000000
683583.000000
684476.000000
685371.000000
686289.000000
687183.000000
688095.000000
688994.000000
689890.000000
690746.000000
691568.000000
692396.000000
693253.000000
694125.000000
694994.000000
695862.000000
696733.000000
697584.000000
698405.000000
699202.000000
700004.000000
700814.000000
701686.000000
702532.000000
703385.000000
704226.000000
705050.000000
705845.000000
706594.000000
707357.000000
708168.000000
709052.000000
709911.000000
710771.000000
711634.000000
712508.000000
713384.000000
714267.000000
715146.000000
716026.000000
716897.000000
717768.000000
718655.000000
719525.000000
720346.000000
721163.000000
721953.000000
722759.000000
723635.000000
724553.000000
725419.000000
726290.000000
727155.000000
728020.000000
728874.000000
729756.000000
730650.000000
731525.000000
732378.000000
733249.000000
734123.000000
735007.000000
735909.000000
736797.000000
737649.000000
738465.000000
739288.000000
740096.000000
740957.000000
741832.000000
742686.000000
743541.000000
744374.000000
745175.000000
745925.000000
746675.000000
747490.000000
748386.000000
749290.000000
750160.000000
751038.000000
751921.000000
752783.000000
753617.000000
754470.000000
755349.000000
756254.000000
757147.000000
758019.000000
758881.000000
759780.000000
760712.000000
761621.000000
762540.000000
763422.000000
764262.000000
765111.000000
765981.000000
766887.000000
767779.000000
768657.000000
769580.000000
770510.000000
771446.000000
772386.000000
773315.000000
774224.000000
775106.000000
776012.000000
776917.000000
777815.000000
778737.000000
779650.000000
780557.000000
781467.000000
782392.000000
783307.000000
784227.000000
785151.000000
786030.000000
786872.000000
787728.000000
788625.000000
789536.000000
790441.000000
791346.000000
792249.000000
793103.000000
793933.000000
794772.000000
795578.000000
796434.000000
797350.000000
798249.000000
799154.000000
800081.000000
800943.000000
801765.000000
802617.000000
803581.000000
804542.000000
805514.000000
806429.000000
807317.000000
808224.000000
809167.000000
810104.000000
811041.000000
811922.000000
812799.000000
813702.000000
814604.000000
815497.000000
816417.000000
817346.000000
818268.000000
819160.000000
820035.000000
820942.000000
821857.000000
822780.000000
823689.000000
824596.000000
825492.000000
826390.000000
827252.000000
828081.000000
828912.000000
829774.000000
830637.000000
831504.000000
832361.000000
833197.000000
834004.000000
834815.000000
835658.000000
836532.000000
837431.000000
838352.000000
839279.000000
840183.000000
841038.000000
841914.000000
842832.000000
843758.000000
844668.000000
845579.000000
846451.000000
847293.000000
848155.000000
849049.000000
849949.000000
850812.000000
851683.000000
852581.000000
853489.000000
854393.000000
855259.000000
856106.000000
856911.000000
857676.000000
858552.000000
859437.000000
860246.000000
861103.000000
862014.000000
862919.000000
863764.000000
864586.000000
865386.000000
866201.000000
867073.000000
867992.000000
868895.000000
869790.000000
870684.000000
871569.000000
872412.000000
873245.000000
874087.000000
874945.000000
875819.000000
876698.000000
877577.000000
878423.000000
879269.000000
880129.000000
881010.000000
881900.000000
882778.000000
883662.000000
884540.000000
885391.000000
886220.000000
887062.000000
887915.000000
888780.000000
889654.000000
890528.000000
891402.000000
892249.000000
893102.000000
893965.000000
894831.000000
895697.000000
896544.000000
897373.000000
898235.000000
899115.000000
900003.000000
900878.000000
901725.000000
902580.000000
903451.000000
904325.000000
905202.000000
906049.000000
906883.000000
907742.000000
908631.000000
909505.000000
910353.000000
911237.000000
