ECG (ms)
559.000000
1357.000000
2112.000000
2857.000000
3610.000000
4367.000000
5091.000000
5796.000000
6500.000000
7213.000000
7923.000000
8614.000000
9312.000000
10044.000000
10791.000000
11509.000000
12234.000000
12986.000000
13730.000000
14440.000000
15148.000000
15883.000000
16667.000000
17420.000000
18141.000000
18891.000000
19666.000000
20432.000000
21161.000000
21881.000000
22618.000000
23383.000000
24160.000000
24930.000000
25658.000000
26392.000000
27148.000000
27909.000000
28646.000000
29382.000000
30156.000000
30994.000000
31791.000000
32536.000000
33273.000000
34027.000000
34768.000000
35485.000000
36226.000000
37045.000000
37874.000000
38650.000000
39443.000000
40253.000000
41035.000000
41774.000000
42527.000000
43329.000000
44151.000000
44958.000000
45727.000000
46514.000000
47337.000000
48139.000000
48895.000000
49645.000000
50424.000000
51223.000000
51992.000000
52757.000000
53561.000000
54404.000000
55223.000000
55963.000000
56707.000000
57473.000000
58242.000000
58986.000000
59757.000000
60598.000000
61452.000000
62231.000000
62992.000000
63767.000000
64546.000000
65287.000000
66045.000000
66844.000000
67648.000000
68412.000000
69199.000000
70001.000000
70781.000000
71525.000000
72299.000000
73111.000000
73898.000000
74655.000000
75440.000000
76264.000000
77050.000000
77806.000000
78585.000000
79380.000000
80146.000000
80910.000000
81710.000000
82540.000000
83318.000000
84100.000000
84913.000000
85762.000000
86549.000000
87341.000000
88176.000000
89042.000000
89841.000000
90641.000000
91482.000000
92329.000000
93119.000000
93944.000000
94807.000000
95648.000000
96432.000000
97244.000000
98099.000000
98974.000000
99787.000000
100572.000000
101379.000000
102206.000000
103008.000000
103783.000000
104606.000000
105487.000000
106325.000000
107114.000000
107929.000000
108774.000000
109577.000000
110401.000000
111247.000000
112086.000000
112873.000000
113681.000000
114501.000000
115286.000000
116053.000000
116858.000000
117716.000000
118531.000000
119376.000000
120279.000000
121148.000000
121950.000000
122761.000000
123583.000000
124381.000000
125141.000000
125927.000000
126771.000000
127687.000000
128518.000000
129332.000000
130179.000000
131059.000000
131896.000000
132697.000000
133520.000000
134365.000000
135193.000000
135975.000000
136764.000000
137587.000000
138387.000000
139162.000000
139953.000000
140779.000000
141569.000000
142323.000000
143094.000000
143907.000000
144730.000000
145498.000000
146270.000000
147067.000000
147880.000000
148649.000000
149429.000000
150228.000000
151031.000000
151785.000000
152540.000000
153315.000000
154102.000000
154856.000000
155626.000000
156426.000000
157268.000000
158059.000000
158835.000000
159617.000000
160413.000000
161173.000000
161945.000000
162741.000000
163563.000000
164333.000000
165086.000000
165861.000000
166674.000000
167460.000000
168228.000000
169028.000000
169858.000000
170664.000000
171415.000000
172171.000000
172976.000000
173831.000000
174644.000000
175467.000000
176326.000000
177211.000000
178023.000000
178810.000000
179607.000000
180419.000000
181187.000000
181965.000000
182788.000000
183627.000000
184416.000000
185209.000000
186002.000000
186737.000000
187449.000000
188168.000000
188888.000000
189662.000000
190504.000000
191346.000000
192119.000000
192901.000000
193731.000000
194562.000000
195335.000000
196110.000000
196912.000000
197710.000000
198462.000000
199242.000000
200049.000000
200855.000000
201612.000000
202392.000000
203209.000000
204002.000000
204754.000000
205515.000000
206289.000000
207053.000000
207791.000000
208554.000000
209394.000000
210262.000000
211066.000000
211883.000000
212711.000000
213532.000000
214308.000000
215093.000000
215906.000000
216717.000000
217480.000000
218253.000000
219053.000000
219854.000000
220611.000000
221377.000000
222167.000000
222976.000000
223748.000000
224512.000000
225304.000000
226120.000000
226889.000000
227662.000000
228464.000000
229281.000000
230050.000000
230833.000000
231648.000000
232460.000000
233228.000000
234008.000000
234814.000000
235605.000000
236360.000000
237142.000000
237957.000000
238767.000000
239528.000000
240309.000000
241119.000000
241914.000000
242691.000000
243489.000000
244301.000000
245080.000000
245838.000000
246623.000000
247441.000000
248241.000000
249004.000000
249789.000000
250581.000000
251377.000000
252146.000000
252938.000000
253750.000000
254555.000000
255319.000000
256084.000000
256874.000000
257698.000000
258476.000000
259268.000000
260095.000000
260924.000000
261702.000000
262497.000000
263306.000000
264129.000000
264893.000000
265660.000000
266449.000000
267262.000000
268032.000000
268825.000000
269690.000000
270601.000000
271471.000000
272262.000000
273056.000000
273872.000000
274701.000000
275498.000000
276264.000000
277082.000000
277968.000000
278880.000000
279695.000000
280499.000000
281316.000000
282158.000000
282971.000000
283784.000000
284636.000000
285525.000000
286353.000000
287193.000000
288064.000000
288922.000000
289713.000000
290507.000000
291327.000000
292167.000000
292959.000000
293789.000000
294740.000000
295700.000000
296541.000000
297373.000000
298221.000000
299059.000000
299833.000000
300612.000000
301418.000000
302229.000000
303004.000000
303789.000000
304605.000000
305427.000000
306198.000000
306986.000000
307797.000000
308599.000000
309354.000000
310131.000000
310918.000000
311716.000000
312494.000000
313282.000000
314095.000000
314943.000000
315748.000000
316525.000000
317311.000000
318136.000000
318955.000000
319726.000000
320512.000000
321333.000000
322168.000000
322968.000000
323735.000000
324537.000000
325402.000000
326292.000000
327107.000000
327929.000000
328787.000000
329671.000000
330487.000000
331278.000000
332084.000000
332922.000000
333762.000000
334544.000000
335356.000000
336248.000000
337184.000000
338014.000000
338822.000000
339642.000000
340463.000000
341247.000000
342052.000000
342913.000000
343823.000000
344684.000000
345482.000000
346284.000000
347087.000000
347875.000000
348623.000000
349404.000000
350265.000000
351188.000000
352036.000000
352866.000000
353707.000000
354569.000000
355418.000000
356215.000000
357014.000000
357827.000000
358637.000000
359403.000000
360190.000000
361009.000000
361856.000000
362655.000000
363464.000000
364287.000000
365116.000000
365899.000000
366658.000000
367434.000000
368238.000000
369022.000000
369805.000000
370620.000000
371468.000000
372273.000000
373063.000000
373879.000000
374687.000000
375452.000000
376202.000000
376969.000000
377779.000000
378590.000000
379373.000000
380225.000000
381144.000000
381990.000000
382804.000000
383640.000000
384475.000000
385267.000000
386069.000000
386901.000000
387742.000000
388515.000000
389284.000000
390076.000000
390884.000000
391648.000000
392409.000000
393205.000000
394012.000000
394771.000000
395536.000000
396327.000000
397124.000000
397889.000000
398655.000000
399465.000000
400286.000000
401065.000000
401853.000000
402668.000000
403493.000000
404266.000000
405024.000000
405797.000000
406585.000000
407339.000000
408079.000000
408835.000000
409609.000000
410359.000000
411105.000000
411877.000000
412688.000000
413461.000000
414211.000000
414983.000000
415777.000000
416535.000000
417278.000000
418049.000000
418858.000000
419629.000000
420392.000000
421187.000000
422001.000000
422766.000000
423526.000000
424304.000000
425108.000000
425883.000000
426642.000000
427429.000000
428247.000000
429046.000000
429803.000000
430586.000000
431380.000000
432153.000000
432894.000000
433664.000000
434462.000000
435249.000000
436002.000000
436780.000000
437585.000000
438388.000000
439139.000000
439908.000000
440736.000000
441573.000000
442370.000000
443142.000000
443938.000000
444747.000000
445544.000000
446290.000000
447047.000000
447836.000000
448638.000000
449400.000000
450177.000000
450987.000000
451797.000000
452565.000000
453346.000000
454163.000000
454958.000000
455711.000000
456481.000000
457278.000000
458088.000000
458849.000000
459604.000000
460373.000000
461165.000000
461935.000000
462692.000000
463471.000000
464284.000000
465072.000000
465834.000000
466618.000000
467436.000000
468225.000000
468986.000000
469777.000000
470616.000000
471446.000000
472221.000000
473002.000000
473806.000000
474619.000000
475384.000000
476158.000000
476961.000000
477800.000000
478600.000000
479391.000000
480247.000000
481157.000000
481994.000000
482823.000000
483662.000000
484498.000000
485284.000000
486078.000000
486887.000000
487727.000000
488541.000000
489333.000000
490161.000000
491003.000000
491794.000000
492523.000000
493225.000000
493932.000000
494714.000000
495535.000000
496311.000000
497165.000000
498115.000000
499009.000000
499804.000000
500602.000000
501426.000000
502252.000000
503028.000000
503830.000000
504708.000000
505642.000000
506491.000000
507343.000000
508236.000000
509118.000000
509906.000000
510695.000000
511504.000000
512326.000000
513112.000000
513937.000000
514826.000000
515711.000000
516517.000000
517332.000000
518172.000000
519005.000000
519780.000000
520571.000000
521399.000000
522251.000000
523045.000000
523812.000000
524593.000000
525402.000000
526210.000000
526993.000000
527814.000000
528699.000000
529538.000000
530336.000000
531151.000000
532014.000000
532862.000000
533647.000000
534434.000000
535239.000000
536046.000000
536817.000000
537606.000000
538442.000000
539335.000000
540155.000000
540977.000000
541823.000000
542685.000000
543484.000000
544266.000000
545075.000000
545929.000000
546751.000000
547557.000000
548397.000000
549272.000000
550099.000000
550888.000000
551695.000000
552535.000000
553375.000000
554159.000000
554999.000000
555939.000000
556865.000000
557685.000000
558494.000000
559319.000000
560186.000000
561020.000000
561944.000000
562934.000000
563885.000000
564784.000000
565732.000000
566686.000000
567531.000000
568338.000000
569155.000000
569991.000000
570802.000000
571583.000000
572402.000000
573273.000000
574116.000000
574907.000000
575734.000000
576594.000000
577461.000000
578277.000000
579088.000000
579914.000000
580743.000000
581530.000000
582312.000000
583118.000000
583954.000000
584758.000000
585542.000000
586371.000000
587257.000000
588122.000000
588921.000000
589719.000000
590545.000000
591387.000000
592191.000000
593017.000000
593906.000000
594852.000000
595700.000000
596533.000000
597390.000000
598273.000000
599093.000000
599875.000000
600702.000000
601598.000000
602480.000000
603291.000000
604138.000000
605054.000000
605983.000000
606813.000000
607643.000000
608494.000000
609379.000000
610204.000000
611008.000000
611844.000000
612709.000000
613525.000000
614341.000000
615220.000000
616124.000000
616953.000000
617786.000000
618648.000000
619525.000000
620334.000000
621125.000000
621940.000000
622763.000000
623544.000000
624325.000000
625143.000000
626008.000000
626812.000000
627611.000000
628421.000000
629252.000000
630040.000000
630816.000000
631607.000000
632432.000000
633233.000000
634025.000000
634878.000000
635757.000000
636567.000000
637344.000000
638159.000000
639018.000000
639823.000000
640596.000000
641402.000000
642224.000000
643002.000000
643744.000000
644505.000000
645293.000000
646081.000000
646831.000000
647611.000000
648453.000000
649292.000000
650067.000000
650865.000000
651690.000000
652489.000000
653245.000000
654015.000000
654815.000000
655603.000000
656358.000000
657131.000000
657945.000000
658770.000000
659543.000000
660326.000000
661165.000000
662004.000000
662783.000000
663563.000000
664362.000000
665153.000000
665907.000000
666684.000000
667499.000000
668334.000000
669110.000000
669884.000000
670683.000000
671483.000000
672264.000000
673013.000000
673790.000000
674635.000000
675497.000000
676341.000000
677140.000000
677949.000000
678774.000000
679609.000000
680433.000000
681208.000000
681995.000000
682812.000000
683637.000000
684419.000000
685186.000000
685976.000000
686787.000000
687581.000000
688345.000000
689135.000000
689957.000000
690753.000000
691517.000000
692296.000000
693106.000000
693884.000000
694642.000000
695434.000000
696277.000000
697105.000000
697856.000000
698579.000000
699321.000000
700201.000000
701254.000000
702249.000000
703161.000000
703968.000000
704760.000000
705570.000000
706417.000000
707239.000000
708020.000000
708843.000000
709715.000000
710602.000000
711425.000000
712267.000000
713130.000000
713960.000000
714739.000000
715537.000000
716359.000000
717192.000000
717978.000000
718761.000000
719590.000000
720470.000000
721324.000000
722114.000000
722921.000000
723760.000000
724608.000000
725404.000000
726210.000000
727054.000000
727938.000000
728759.000000
729582.000000
730437.000000
731307.000000
732134.000000
732921.000000
733740.000000
734592.000000
735443.000000
736243.000000
737046.000000
737906.000000
738803.000000
739655.000000
740455.000000
741279.000000
742102.000000
742902.000000
743663.000000
744447.000000
745314.000000
746210.000000
747035.000000
747868.000000
748752.000000
749645.000000
750454.000000
751248.000000
752051.000000
752852.000000
753619.000000
754406.000000
755206.000000
756009.000000
756771.000000
757546.000000
758358.000000
759163.000000
759927.000000
760697.000000
761491.000000
762278.000000
763028.000000
763791.000000
764586.000000
765399.000000
766164.000000
766935.000000
767729.000000
768532.000000
769301.000000
770058.000000
770845.000000
771664.000000
772441.000000
773199.000000
773981.000000
774803.000000
775595.000000
776357.000000
777146.000000
777946.000000
778731.000000
779481.000000
780246.000000
781033.000000
781830.000000
782596.000000
783374.000000
784189.000000
785025.000000
785806.000000
786602.000000
787415.000000
788233.000000
789010.000000
789802.000000
790640.000000
791491.000000
792291.000000
793109.000000
793952.000000
794781.000000
795558.000000
796355.000000
797191.000000
798051.000000
798859.000000
799647.000000
800467.000000
801329.000000
802187.000000
802978.000000
803798.000000
804662.000000
805540.000000
806340.000000
807126.000000
807939.000000
808793.000000
809631.000000
810403.000000
811213.000000
812089.000000
812987.000000
813808.000000
814644.000000
815510.000000
816358.000000
817148.000000
817941.000000
818759.000000
819618.000000
820431.000000
821260.000000
822157.000000
823113.000000
824012.000000
824847.000000
825693.000000
826577.000000
827482.000000
828324.000000
829224.000000
830200.000000
831152.000000
832017.000000
832875.000000
833754.000000
834673.000000
835540.000000
836359.000000
837199.000000
838103.000000
839044.000000
839884.000000
840727.000000
841601.000000
842515.000000
843428.000000
844254.000000
845066.000000
845909.000000
846813.000000
847659.000000
848515.000000
849438.000000
850442.000000
851332.000000
852204.000000
853075.000000
853933.000000
854731.000000
855508.000000
856320.000000
857206.000000
858061.000000
858893.000000
859757.000000
860657.000000
861493.000000
862289.000000
863107.000000
863962.000000
864810.000000
865589.000000
866390.000000
867232.000000
868098.000000
868904.000000
869733.000000
870611.000000
871527.000000
872369.000000
873204.000000
874069.000000
874961.000000
875785.000000
876589.000000
877440.000000
878336.000000
879170.000000
879961.000000
880787.000000
881643.000000
882525.000000
883369.000000
884237.000000
885132.000000
886033.000000
886865.000000
887690.000000
888523.000000
889393.000000
890217.000000
891001.000000
891810.000000
892678.000000
893523.000000
894315.000000
895126.000000
895985.000000
896819.000000
897618.000000
898446.000000
899300.000000
900108.000000
900897.000000
901700.000000
902506.000000
903280.000000
904053.000000
904862.000000
905699.000000
906494.000000
907275.000000
908084.000000
908919.000000
909708.000000
910478.000000
911263.000000
912082.000000
912872.000000
913627.000000
914405.000000
915223.000000
916022.000000
916787.000000
917581.000000
918413.000000
919269.000000
920063.000000
920854.000000
921667.000000
922513.000000
923319.000000
924111.000000
924935.000000
925831.000000
926687.000000
927471.000000
928276.000000
929127.000000
930006.000000
930824.000000
931641.000000
932496.000000
933389.000000
934230.000000
935063.000000
935964.000000
936894.000000
937732.000000
938556.000000
939412.000000
940282.000000
941076.000000
941855.000000
942672.000000
943523.000000
944327.000000
945141.000000
946010.000000
946896.000000
947718.000000
948515.000000
949334.000000
950182.000000
950996.000000
951783.000000
952626.000000
953597.000000
954465.000000
955291.000000
956125.000000
956972.000000
957802.000000
958608.000000
959444.000000
960321.000000
961224.000000
962040.000000
962849.000000
963683.000000
964564.000000
965462.000000
966293.000000
967210.000000
968336.000000
969293.000000
970119.000000
970939.000000
971828.000000
972780.000000
973646.000000
974518.000000
975509.000000
976464.000000
977301.000000
978135.000000
978983.000000
979854.000000
980678.000000
981480.000000
982320.000000
983235.000000
984118.000000
984931.000000
985768.000000
986639.000000
987505.000000
988311.000000
989121.000000
989971.000000
990882.000000
991738.000000
992529.000000
993338.000000
994206.000000
995157.000000
996001.000000
996838.000000
997705.000000
998603.000000
999432.000000
1000264.000000
1001144.000000
1002062.000000
1002900.000000
1003726.000000
1004589.000000
1005517.000000
1006418.000000
1007230.000000
1008037.000000
1008855.000000
1009673.000000
1010462.000000
1011250.000000
1012050.000000
1012798.000000
1013537.000000
1014350.000000
1015170.000000
1015973.000000
1016831.000000
1017719.000000
1018547.000000
1019319.000000
1020110.000000
1020920.000000
1021730.000000
1022490.000000
1023257.000000
1024062.000000
1024924.000000
1025734.000000
1026546.000000
1027397.000000
1028269.000000
1029072.000000
1029877.000000
1030698.000000
1031513.000000
1032285.000000
1033068.000000
1033884.000000
1034720.000000
1035510.000000
1036323.000000
1037172.000000
1037997.000000
1038785.000000
1039588.000000
1040385.000000
1041165.000000
1041973.000000
1042812.000000
1043656.000000
1044443.000000
1045226.000000
1046031.000000
1046862.000000
1047653.000000
1048436.000000
1049260.000000
1050096.000000
1050895.000000
1051674.000000
1052484.000000
1053347.000000
1054164.000000
1054962.000000
1055796.000000
1056664.000000
1057480.000000
1058289.000000
1059127.000000
1060043.000000
1060881.000000
1061655.000000
1062443.000000
1063256.000000
1064071.000000
1064851.000000
1065678.000000
1066586.000000
1067556.000000
1068431.000000
1069251.000000
1070091.000000
1070959.000000
1071809.000000
1072615.000000
1073454.000000
1074381.000000
1075346.000000
1076275.000000
1077107.000000
1077927.000000
1078783.000000
1079692.000000
1080591.000000
1081417.000000
1082272.000000
1083228.000000
1084225.000000
1085116.000000
1085965.000000
1086877.000000
1087835.000000
1088758.000000
1089591.000000
1090424.000000
1091311.000000
1092239.000000
1093153.000000
1093965.000000
1094789.000000
1095646.000000
1096550.000000
1097440.000000
1098266.000000
1099057.000000
1099891.000000
1100770.000000
1101643.000000
1102443.000000
1103255.000000
1104092.000000
1104947.000000
1105746.000000
1106531.000000
1107344.000000
1108178.000000
1108993.000000
1109759.000000
1110550.000000
1111391.000000
1112256.000000
1113077.000000
1113894.000000
1114747.000000
1115626.000000
1116496.000000
1117294.000000
1118089.000000
1118906.000000
1119756.000000
1120578.000000
1121367.000000
1122201.000000
1123110.000000
1124046.000000
1124897.000000
1125760.000000
1126637.000000
1127548.000000
1128390.000000
1129215.000000
1130072.000000
1130964.000000
1131816.000000
1132620.000000
1133465.000000
1134371.000000
1135262.000000
1136077.000000
1136907.000000
1137799.000000
1138703.000000
1139528.000000
1140348.000000
1141174.000000
1142024.000000
1142821.000000
1143561.000000
1144312.000000
1145134.000000
1146049.000000
1146987.000000
1147828.000000
1148646.000000
1149500.000000
1150376.000000
1151200.000000
1151998.000000
1152838.000000
1153740.000000
1154625.000000
1155424.000000
1156219.000000
1157011.000000
1157813.000000
1158592.000000
1159369.000000
1160224.000000
1161178.000000
1162051.000000
1162892.000000
1163761.000000
1164648.000000
1165459.000000
1166255.000000
1167057.000000
1167894.000000
1168702.000000
1169491.000000
1170334.000000
1171237.000000
1172115.000000
1172914.000000
1173736.000000
1174621.000000
1175472.000000
1176260.000000
1177054.000000
1177880.000000
1178722.000000
1179522.000000
1180320.000000
1181170.000000
1182092.000000
1182941.000000
1183798.000000
1184704.000000
1185544.000000
1186356.000000
1187185.000000
1188021.000000
1188874.000000
1189683.000000
1190484.000000
1191347.000000
1192289.000000
1193156.000000
1193953.000000
1194774.000000
1195638.000000
1196527.000000
1197334.000000
1198137.000000
1198980.000000
1199852.000000
1200675.000000
1201473.000000
1202314.000000
1203215.000000
1204102.000000
1204929.000000
1205770.000000
1206658.000000
1207588.000000
