ECG (ms)
324.000000
1104.000000
1873.000000
2696.000000
3531.000000
4371.000000
5191.000000
5958.000000
6729.000000
7561.000000
8416.000000
9280.000000
10121.000000
10963.000000
11789.000000
12587.000000
13450.000000
14346.000000
15213.000000
16052.000000
16794.000000
17560.000000
18369.000000
19177.000000
19943.000000
20746.000000
21610.000000
22495.000000
23310.000000
24067.000000
24859.000000
25663.000000
26604.000000
27498.000000
28422.000000
29227.000000
29986.000000
30813.000000
31715.000000
32538.000000
33324.000000
34094.000000
34959.000000
35825.000000
36701.000000
37471.000000
38200.000000
38975.000000
39780.000000
40683.000000
41576.000000
42433.000000
43205.000000
43943.000000
44714.000000
45549.000000
46431.000000
47229.000000
48032.000000
48965.000000
49920.000000
50814.000000
51731.000000
52548.000000
53303.000000
54122.000000
55132.000000
56119.000000
57070.000000
57964.000000
58823.000000
59671.000000
60622.000000
61558.000000
62439.000000
63211.000000
63913.000000
64612.000000
65356.000000
66193.000000
66971.000000
67724.000000
68444.000000
69129.000000
70103.000000
71023.000000
71945.000000
72868.000000
73774.000000
74617.000000
75344.000000
76105.000000
77228.000000
78243.000000
79212.000000
80142.000000
80979.000000
81724.000000
82503.000000
83520.000000
84523.000000
85413.000000
86300.000000
87248.000000
88185.000000
89139.000000
90098.000000
90950.000000
91747.000000
92565.000000
93462.000000
94462.000000
95362.000000
96237.000000
97170.000000
98172.000000
99153.000000
100100.000000
101036.000000
101965.000000
102880.000000
103707.000000
104474.000000
105337.000000
106460.000000
107484.000000
108467.000000
109442.000000
110305.000000
111077.000000
111875.000000
112979.000000
113934.000000
114811.000000
115702.000000
116725.000000
117804.000000
118811.000000
119755.000000
120612.000000
121418.000000
122315.000000
123259.000000
124145.000000
124951.000000
125780.000000
126757.000000
127718.000000
128653.000000
129526.000000
130326.000000
131146.000000
132189.000000
133142.000000
134146.000000
135080.000000
135895.000000
136675.000000
137527.000000
138457.000000
139295.000000
140107.000000
141038.000000
141984.000000
142924.000000
143853.000000
144685.000000
145445.000000
146219.000000
147103.000000
148115.000000
149004.000000
149822.000000
150661.000000
151527.000000
152413.000000
153252.000000
154059.000000
154816.000000
155729.000000
156731.000000
157730.000000
158594.000000
159402.000000
160284.000000
161229.000000
162207.000000
163054.000000
163826.000000
164668.000000
165582.000000
166612.000000
167502.000000
168303.000000
169158.000000
170031.000000
170896.000000
171684.000000
172453.000000
173273.000000
174336.000000
175321.000000
176227.000000
177074.000000
177878.000000
178637.000000
179371.000000
180132.000000
181236.000000
182221.000000
183174.000000
184068.000000
184823.000000
185544.000000
186270.000000
187074.000000
187934.000000
188724.000000
189475.000000
190229.000000
191033.000000
191961.000000
192910.000000
193733.000000
194487.000000
195272.000000
196130.000000
197008.000000
197833.000000
198587.000000
199315.000000
200035.000000
200823.000000
201656.000000
202419.000000
203143.000000
203869.000000
204681.000000
205511.000000
206269.000000
206970.000000
207661.000000
208364.000000
209089.000000
209813.000000
210566.000000
211356.000000
212186.000000
212965.000000
213711.000000
214478.000000
215300.000000
216119.000000
216947.000000
217706.000000
218440.000000
219166.000000
219936.000000
220786.000000
221604.000000
222375.000000
223227.000000
224087.000000
224951.000000
225784.000000
226636.000000
227488.000000
228278.000000
229017.000000
229788.000000
230606.000000
231361.000000
232098.000000
232849.000000
233658.000000
234465.000000
235292.000000
236066.000000
236895.000000
237845.000000
238755.000000
239545.000000
240289.000000
241073.000000
241925.000000
242709.000000
243509.000000
244536.000000
245524.000000
246358.000000
247084.000000
247783.000000
248520.000000
249332.000000
250103.000000
250924.000000
251906.000000
252836.000000
253728.000000
254531.000000
255321.000000
256094.000000
256917.000000
257766.000000
258731.000000
259641.000000
260431.000000
261161.000000
261911.000000
262737.000000
263637.000000
264529.000000
265391.000000
266182.000000
266916.000000
267688.000000
268645.000000
269586.000000
270435.000000
271201.000000
271942.000000
272661.000000
273445.000000
274239.000000
275058.000000
275861.000000
276629.000000
277387.000000
278178.000000
278973.000000
279702.000000
280416.000000
281163.000000
281948.000000
282717.000000
283553.000000
284297.000000
285054.000000
285803.000000
286626.000000
287372.000000
288075.000000
288760.000000
289464.000000
290177.000000
290886.000000
291621.000000
292351.000000
293117.000000
293934.000000
294745.000000
295480.000000
296198.000000
296902.000000
297599.000000
298295.000000
298962.000000
299595.000000
300261.000000
301055.000000
301817.000000
302528.000000
303225.000000
303976.000000
304788.000000
305638.000000
306420.000000
307178.000000
307972.000000
308866.000000
309745.000000
310554.000000
311312.000000
312149.000000
313172.000000
314142.000000
314999.000000
315780.000000
316503.000000
317260.000000
318278.000000
319178.000000
320069.000000
320985.000000
321795.000000
322556.000000
323374.000000
324332.000000
325234.000000
326042.000000
326800.000000
327590.000000
328358.000000
329119.000000
329920.000000
330887.000000
331866.000000
332694.000000
333467.000000
334211.000000
335045.000000
335935.000000
336776.000000
337676.000000
338655.000000
339674.000000
340640.000000
341472.000000
342237.000000
342991.000000
343719.000000
344480.000000
345301.000000
346027.000000
346756.000000
347873.000000
348734.000000
349503.000000
350275.000000
351102.000000
351978.000000
352846.000000
353642.000000
354512.000000
355473.000000
356415.000000
357226.000000
358018.000000
358924.000000
360032.000000
360941.000000
361729.000000
362531.000000
363427.000000
364312.000000
365159.000000
366032.000000
366985.000000
367986.000000
368932.000000
369878.000000
370741.000000
371567.000000
372426.000000
373470.000000
374497.000000
375391.000000
376203.000000
377043.000000
377930.000000
378833.000000
379732.000000
380589.000000
381339.000000
382087.000000
382890.000000
383777.000000
384655.000000
385432.000000
386211.000000
387010.000000
387860.000000
388689.000000
389507.000000
390251.000000
390983.000000
391759.000000
392673.000000
393566.000000
394394.000000
395158.000000
395871.000000
396596.000000
397383.000000
398204.000000
399026.000000
399818.000000
400686.000000
401600.000000
402488.000000
403259.000000
404022.000000
404815.000000
405607.000000
406428.000000
407224.000000
408000.000000
408781.000000
409688.000000
410596.000000
411472.000000
412251.000000
412990.000000
413708.000000
414417.000000
415160.000000
416132.000000
417086.000000
417942.000000
418678.000000
419396.000000
420114.000000
420930.000000
421766.000000
422629.000000
423480.000000
424299.000000
425074.000000
425814.000000
426569.000000
427373.000000
428269.000000
429133.000000
429912.000000
430688.000000
431448.000000
432253.000000
433075.000000
433856.000000
434595.000000
435345.000000
436170.000000
437034.000000
437848.000000
438663.000000
439388.000000
440089.000000
440823.000000
441585.000000
442435.000000
443325.000000
444117.000000
444869.000000
445656.000000
446497.000000
447400.000000
448226.000000
449011.000000
449780.000000
450597.000000
451481.000000
452310.000000
453086.000000
453848.000000
454708.000000
455542.000000
456317.000000
457084.000000
457870.000000
458660.000000
459424.000000
460138.000000
460889.000000
461757.000000
462615.000000
463432.000000
464159.000000
464882.000000
465634.000000
466507.000000
467320.000000
468115.000000
468875.000000
469692.000000
470526.000000
471342.000000
472078.000000
472809.000000
473590.000000
474383.000000
475179.000000
475948.000000
476696.000000
477455.000000
478236.000000
479094.000000
479950.000000
480734.000000
481508.000000
482234.000000
482963.000000
483773.000000
484747.000000
485667.000000
486519.000000
487260.000000
487974.000000
488715.000000
489801.000000
490744.000000
491627.000000
492524.000000
493380.000000
494206.000000
494989.000000
495734.000000
496470.000000
497319.000000
498240.000000
499246.000000
500097.000000
500904.000000
501682.000000
502503.000000
503340.000000
504171.000000
505055.000000
506016.000000
506958.000000
507802.000000
508581.000000
509336.000000
510203.000000
511192.000000
512118.000000
512921.000000
513706.000000
514521.000000
515511.000000
516488.000000
517372.000000
518189.000000
518961.000000
519775.000000
520689.000000
521527.000000
522308.000000
523125.000000
524039.000000
524885.000000
525668.000000
526426.000000
527222.000000
528176.000000
529089.000000
529935.000000
530717.000000
531436.000000
532122.000000
532813.000000
533477.000000
534447.000000
535410.000000
536278.000000
537077.000000
537847.000000
538639.000000
539564.000000
540521.000000
541308.000000
542054.000000
542822.000000
543653.000000
544523.000000
545368.000000
546181.000000
547048.000000
548021.000000
548894.000000
549680.000000
550515.000000
551422.000000
552417.000000
553381.000000
554324.000000
555215.000000
556015.000000
556825.000000
557692.000000
558835.000000
559850.000000
560775.000000
561579.000000
562336.000000
563129.000000
564278.000000
565277.000000
566202.000000
567053.000000
567826.000000
568582.000000
569556.000000
570596.000000
571531.000000
572392.000000
573180.000000
573934.000000
574740.000000
575813.000000
576758.000000
577737.000000
578599.000000
579362.000000
580154.000000
581015.000000
581883.000000
582701.000000
583459.000000
584218.000000
585088.000000
586090.000000
587032.000000
587852.000000
588622.000000
589454.000000
590320.000000
591144.000000
591914.000000
592697.000000
593551.000000
594439.000000
595270.000000
596056.000000
596915.000000
597819.000000
598696.000000
599505.000000
600296.000000
601188.000000
602089.000000
602921.000000
603709.000000
604513.000000
605379.000000
606240.000000
607093.000000
607849.000000
608617.000000
609379.000000
610162.000000
611111.000000
612002.000000
612826.000000
613604.000000
614426.000000
615240.000000
616039.000000
616795.000000
617585.000000
618433.000000
619285.000000
620069.000000
620869.000000
621730.000000
622541.000000
623337.000000
624120.000000
624984.000000
625800.000000
626624.000000
627381.000000
628127.000000
628877.000000
629727.000000
630747.000000
631703.000000
632566.000000
633330.000000
634063.000000
634831.000000
635783.000000
636812.000000
637750.000000
638575.000000
639373.000000
640188.000000
641267.000000
642254.000000
643178.000000
643983.000000
644714.000000
645446.000000
646371.000000
647289.000000
648244.000000
649148.000000
649970.000000
650801.000000
651768.000000
652796.000000
653753.000000
654614.000000
655418.000000
656221.000000
657066.000000
657921.000000
658763.000000
659594.000000
660361.000000
661187.000000
662302.000000
663228.000000
664004.000000
664717.000000
665427.000000
666108.000000
666836.000000
667924.000000
668795.000000
669542.000000
670315.000000
671126.000000
671991.000000
672832.000000
673625.000000
674427.000000
675487.000000
676429.000000
677329.000000
678142.000000
678977.000000
679929.000000
680883.000000
681735.000000
682530.000000
683331.000000
684311.000000
685299.000000
686223.000000
687119.000000
687912.000000
688669.000000
689737.000000
690726.000000
691637.000000
692450.000000
693261.000000
694173.000000
695087.000000
695849.000000
696598.000000
697456.000000
698469.000000
699444.000000
700295.000000
701057.000000
701848.000000
702571.000000
703249.000000
704045.000000
704832.000000
705765.000000
706711.000000
707569.000000
708420.000000
709306.000000
710252.000000
711145.000000
711942.000000
712720.000000
713587.000000
714530.000000
715412.000000
716272.000000
717252.000000
718246.000000
719126.000000
719916.000000
720726.000000
721583.000000
722507.000000
723387.000000
724214.000000
725192.000000
726180.000000
727161.000000
728085.000000
728924.000000
729788.000000
730724.000000
731709.000000
732583.000000
733453.000000
734470.000000
735337.000000
736154.000000
737094.000000
738043.000000
738930.000000
739752.000000
740555.000000
741380.000000
742332.000000
743339.000000
744302.000000
745228.000000
746078.000000
746894.000000
747711.000000
748604.000000
749513.000000
750455.000000
751308.000000
752145.000000
753153.000000
754101.000000
754940.000000
755705.000000
756446.000000
757261.000000
758262.000000
759173.000000
760027.000000
760825.000000
761564.000000
762366.000000
763303.000000
764217.000000
765043.000000
765804.000000
766569.000000
767373.000000
768309.000000
769172.000000
769916.000000
770658.000000
771381.000000
772163.000000
772994.000000
773828.000000
774731.000000
775553.000000
776336.000000
777087.000000
777818.000000
778585.000000
779404.000000
780372.000000
781309.000000
782121.000000
782902.000000
783684.000000
784491.000000
785596.000000
786572.000000
787467.000000
788217.000000
788936.000000
789706.000000
790740.000000
791675.000000
792519.000000
793296.000000
794178.000000
795144.000000
796044.000000
796863.000000
797633.000000
798379.000000
799183.000000
800141.000000
801134.000000
802070.000000
802888.000000
803655.000000
804393.000000
805143.000000
805966.000000
806743.000000
807552.000000
808386.000000
809314.000000
810236.000000
811099.000000
811854.000000
812612.000000
813420.000000
814490.000000
815370.000000
816151.000000
816947.000000
817807.000000
818603.000000
819350.000000
820144.000000
820986.000000
821789.000000
822590.000000
823352.000000
824113.000000
825043.000000
825986.000000
826782.000000
827519.000000
828239.000000
828992.000000
829728.000000
830467.000000
831254.000000
832111.000000
833051.000000
833961.000000
834747.000000
835478.000000
836196.000000
836948.000000
837761.000000
838512.000000
839302.000000
840201.000000
841205.000000
842051.000000
842817.000000
843607.000000
844406.000000
845237.000000
846061.000000
846871.000000
847758.000000
848807.000000
849701.000000
850493.000000
851303.000000
852159.000000
853018.000000
853852.000000
854613.000000
855397.000000
856334.000000
857151.000000
857913.000000
858710.000000
859591.000000
860409.000000
861149.000000
861909.000000
862731.000000
863566.000000
864407.000000
865219.000000
865966.000000
866738.000000
867578.000000
868341.000000
869142.000000
869999.000000
870837.000000
871625.000000
872377.000000
873121.000000
873935.000000
874767.000000
875646.000000
876525.000000
877381.000000
878206.000000
878964.000000
879696.000000
880432.000000
881276.000000
882375.000000
883288.000000
884062.000000
884861.000000
885651.000000
886448.000000
887264.000000
888136.000000
889035.000000
889940.000000
890803.000000
891661.000000
892600.000000
893535.000000
894348.000000
895092.000000
895806.000000
896506.000000
897228.000000
897997.000000
898758.000000
899449.000000
900507.000000
901468.000000
902311.000000
903117.000000
904001.000000
904957.000000
905893.000000
906687.000000
907458.000000
908571.000000
909614.000000
910593.000000
911463.000000
912296.000000
913165.000000
914219.000000
915252.000000
916254.000000
917239.000000
918160.000000
919009.000000
919900.000000
920869.000000
921851.000000
922853.000000
923840.000000
924773.000000
925658.000000
926568.000000
927483.000000
928386.000000
929296.000000
930207.000000
931217.000000
932234.000000
933180.000000
934068.000000
935015.000000
935967.000000
936890.000000
937742.000000
938589.000000
939521.000000
940530.000000
941530.000000
942468.000000
943430.000000
944429.000000
945408.000000
946365.000000
947349.000000
948260.000000
949152.000000
950109.000000
951128.000000
952111.000000
953059.000000
954015.000000
954937.000000
955833.000000
956727.000000
957648.000000
958591.000000
959559.000000
960521.000000
961423.000000
962318.000000
963298.000000
964299.000000
965206.000000
966069.000000
966938.000000
967870.000000
968860.000000
969880.000000
970863.000000
971778.000000
972631.000000
973525.000000
974514.000000
975536.000000
976536.000000
977467.000000
978353.000000
979296.000000
980270.000000
981239.000000
982128.000000
982990.000000
983883.000000
984825.000000
985809.000000
986733.000000
987697.000000
988703.000000
989683.000000
990616.000000
991576.000000
992531.000000
993459.000000
994339.000000
995189.000000
996087.000000
997055.000000
998002.000000
998874.000000
999701.000000
1000579.000000
1001447.000000
1002402.000000
1003291.000000
1004142.000000
1005177.000000
1006188.000000
1007154.000000
1008056.000000
1009089.000000
1010077.000000
1010994.000000
1011843.000000
1012669.000000
1013644.000000
1014610.000000
1015469.000000
1016283.000000
1017051.000000
1017888.000000
1018920.000000
1019873.000000
1020712.000000
1021508.000000
1022367.000000
1023307.000000
1024275.000000
1025172.000000
1026012.000000
1026803.000000
1027712.000000
1028545.000000
1029342.000000
1030160.000000
1030956.000000
1031722.000000
1032511.000000
1033301.000000
1034126.000000
1034969.000000
1035786.000000
1036584.000000
1037407.000000
1038292.000000
1039105.000000
1039861.000000
1040590.000000
1041336.000000
1042114.000000
1042865.000000
1043665.000000
1044428.000000
1045195.000000
1045939.000000
1046741.000000
1047714.000000
1048675.000000
1049517.000000
1050303.000000
1051092.000000
1051870.000000
1052674.000000
1053802.000000
1054741.000000
1055578.000000
1056367.000000
1057113.000000
1057862.000000
1058840.000000
1059807.000000
1060769.000000
1061638.000000
1062408.000000
1063257.000000
1064253.000000
1065167.000000
1066010.000000
1066800.000000
1067593.000000
1068516.000000
1069517.000000
1070413.000000
1071235.000000
1072056.000000
1072915.000000
1073760.000000
1074538.000000
1075317.000000
1076089.000000
1076916.000000
1077823.000000
1078783.000000
1079642.000000
1080406.000000
1081156.000000
1081944.000000
1082790.000000
1083649.000000
1084466.000000
1085233.000000
1086064.000000
1086928.000000
1087689.000000
1088459.000000
1089229.000000
1090026.000000
1090820.000000
1091541.000000
1092243.000000
1093038.000000
1093878.000000
1094649.000000
1095427.000000
1096454.000000
1097407.000000
1098320.000000
1099192.000000
1099987.000000
1100739.000000
1101569.000000
1102627.000000
1103613.000000
1104536.000000
1105349.000000
1106155.000000
1107283.000000
1108308.000000
1109286.000000
1110178.000000
1111018.000000
1111911.000000
1112951.000000
1113961.000000
1114885.000000
1115752.000000
1116594.000000
1117513.000000
1118567.000000
1119465.000000
1120303.000000
1121387.000000
1122348.000000
1123228.000000
1124046.000000
1124954.000000
1125960.000000
1126862.000000
1127706.000000
1128511.000000
1129330.000000
1130435.000000
1131430.000000
1132423.000000
1133389.000000
1134275.000000
1135120.000000
1136062.000000
1136974.000000
1137812.000000
1138652.000000
1139680.000000
1140632.000000
1141627.000000
1142537.000000
1143421.000000
1144382.000000
1145262.000000
1146099.000000
1146948.000000
1147927.000000
1148778.000000
1149496.000000
1150324.000000
1151272.000000
1152244.000000
1153222.000000
1154100.000000
1154976.000000
1155880.000000
1156827.000000
1157680.000000
1158477.000000
1159283.000000
1160265.000000
1161317.000000
1162272.000000
1163130.000000
1164041.000000
1165052.000000
1166014.000000
1166949.000000
1167849.000000
1168889.000000
1169917.000000
1170923.000000
1171898.000000
1172802.000000
1173671.000000
1174530.000000
1175662.000000
1176690.000000
1177623.000000
1178491.000000
1179431.000000
1180388.000000
1181355.000000
1182303.000000
1183219.000000
1184152.000000
1185103.000000
1186033.000000
1186921.000000
1187820.000000
1188775.000000
1189708.000000
1190608.000000
1191482.000000
1192394.000000
1193289.000000
1194149.000000
