ECG (ms)
206.000000
1270.000000
2239.000000
3175.000000
4114.000000
5112.000000
6177.000000
7281.000000
8377.000000
9448.000000
10488.000000
11443.000000
12365.000000
13308.000000
14279.000000
15295.000000
16301.000000
17311.000000
18346.000000
19383.000000
20389.000000
21387.000000
22353.000000
23281.000000
24186.000000
25125.000000
26132.000000
27152.000000
28186.000000
29249.000000
30281.000000
31304.000000
32323.000000
33314.000000
34268.000000
35192.000000
36103.000000
37055.000000
38121.000000
39272.000000
40374.000000
41448.000000
42528.000000
43551.000000
44575.000000
45615.000000
46661.000000
47713.000000
48747.000000
49788.000000
50820.000000
51823.000000
52778.000000
53697.000000
54603.000000
55512.000000
56535.000000
57693.000000
58839.000000
59984.000000
61111.000000
62200.000000
63276.000000
64335.000000
65387.000000
66386.000000
67369.000000
68361.000000
69377.000000
70394.000000
71406.000000
72412.000000
73364.000000
74284.000000
75165.000000
76026.000000
76911.000000
77866.000000
78958.000000
80003.000000
81075.000000
82116.000000
83138.000000
84161.000000
85136.000000
86086.000000
87045.000000
88041.000000
89041.000000
90074.000000
91122.000000
92173.000000
93200.000000
94188.000000
95162.000000
96112.000000
97050.000000
98027.000000
99036.000000
100091.000000
101156.000000
102194.000000
103197.000000
104152.000000
105096.000000
106070.000000
107105.000000
108140.000000
109212.000000
110270.000000
111331.000000
112344.000000
113329.000000
114328.000000
115401.000000
116447.000000
117473.000000
118555.000000
119577.000000
120567.000000
121509.000000
122464.000000
123467.000000
124449.000000
125429.000000
126433.000000
127459.000000
128421.000000
129374.000000
130333.000000
131304.000000
132275.000000
133246.000000
134203.000000
135143.000000
136048.000000
136915.000000
137770.000000
138611.000000
139526.000000
140555.000000
141633.000000
142704.000000
143772.000000
144802.000000
145797.000000
146748.000000
147644.000000
148499.000000
149343.000000
150213.000000
151187.000000
152206.000000
153251.000000
154253.000000
155171.000000
156050.000000
156884.000000
157675.000000
158499.000000
159372.000000
160327.000000
161332.000000
162307.000000
163291.000000
164251.000000
165194.000000
166191.000000
167211.000000
168246.000000
169303.000000
170330.000000
171321.000000
172275.000000
173275.000000
174260.000000
175274.000000
176302.000000
177305.000000
178277.000000
179256.000000
180290.000000
181303.000000
182339.000000
183331.000000
184305.000000
185224.000000
186122.000000
187047.000000
188049.000000
189112.000000
190211.000000
191258.000000
192270.000000
193235.000000
194140.000000
195070.000000
195972.000000
196947.000000
198047.000000
199169.000000
200206.000000
201261.000000
202280.000000
203255.000000
204230.000000
205209.000000
206205.000000
207205.000000
208209.000000
209200.000000
210165.000000
211146.000000
212147.000000
213141.000000
214111.000000
215049.000000
215937.000000
216819.000000
217714.000000
218624.000000
219558.000000
220499.000000
221437.000000
222428.000000
223467.000000
224499.000000
225504.000000
226462.000000
227425.000000
228372.000000
229354.000000
230345.000000
231325.000000
232287.000000
233321.000000
234399.000000
235439.000000
236416.000000
237333.000000
238260.000000
239225.000000
240204.000000
241172.000000
242096.000000
242995.000000
243963.000000
244957.000000
245937.000000
246894.000000
247817.000000
248780.000000
249781.000000
250775.000000
251726.000000
252624.000000
253506.000000
254429.000000
255417.000000
256431.000000
257397.000000
258305.000000
259228.000000
260168.000000
261125.000000
262057.000000
262959.000000
263843.000000
264782.000000
265744.000000
266720.000000
267683.000000
268608.000000
269536.000000
270475.000000
271407.000000
272339.000000
273229.000000
274103.000000
275010.000000
275955.000000
276916.000000
277856.000000
278769.000000
279678.000000
280611.000000
281565.000000
282503.000000
283434.000000
284356.000000
285333.000000
286322.000000
287313.000000
288275.000000
289191.000000
290080.000000
290987.000000
291926.000000
292878.000000
293865.000000
294834.000000
295782.000000
296729.000000
297687.000000
298627.000000
299563.000000
300482.000000
301416.000000
302375.000000
303367.000000
304357.000000
305305.000000
306235.000000
307179.000000
308115.000000
309055.000000
310004.000000
310970.000000
311923.000000
312893.000000
313871.000000
314860.000000
315807.000000
316717.000000
317600.000000
318503.000000
319435.000000
320395.000000
321341.000000
322293.000000
323257.000000
324265.000000
325270.000000
326238.000000
327177.000000
328106.000000
329082.000000
330056.000000
331092.000000
332066.000000
333048.000000
334074.000000
335124.000000
336133.000000
337119.000000
338049.000000
339018.000000
340009.000000
341028.000000
342007.000000
342957.000000
343859.000000
344730.000000
345639.000000
346605.000000
347605.000000
348624.000000
349617.000000
350579.000000
351560.000000
352549.000000
353531.000000
354508.000000
355464.000000
356420.000000
357395.000000
358365.000000
359355.000000
360310.000000
361233.000000
362157.000000
363080.000000
364024.000000
364984.000000
365931.000000
366851.000000
367753.000000
368684.000000
369615.000000
370558.000000
371488.000000
372395.000000
373317.000000
374261.000000
375236.000000
376201.000000
377125.000000
378024.000000
378939.000000
379876.000000
380839.000000
381789.000000
382717.000000
383626.000000
384560.000000
385498.000000
386426.000000
387356.000000
388264.000000
389138.000000
390009.000000
390909.000000
391831.000000
392804.000000
393799.000000
394779.000000
395735.000000
396703.000000
397683.000000
398640.000000
399596.000000
400498.000000
401373.000000
402216.000000
403035.000000
403850.000000
404708.000000
405737.000000
406818.000000
407981.000000
409071.000000
410151.000000
411231.000000
412252.000000
413250.000000
414299.000000
415356.000000
416408.000000
417429.000000
418426.000000
419377.000000
420301.000000
421207.000000
422142.000000
423142.000000
424171.000000
425228.000000
426277.000000
427270.000000
428214.000000
429162.000000
430128.000000
431099.000000
432100.000000
433094.000000
434090.000000
435055.000000
436037.000000
437018.000000
437992.000000
438987.000000
439997.000000
441004.000000
442061.000000
443139.000000
444149.000000
445145.000000
446107.000000
447044.000000
448031.000000
449059.000000
450084.000000
451078.000000
452031.000000
453019.000000
454122.000000
455289.000000
456396.000000
457495.000000
458614.000000
459743.000000
460870.000000
462032.000000
463133.000000
464263.000000
465374.000000
466446.000000
467472.000000
468426.000000
469369.000000
470472.000000
471616.000000
472748.000000
473853.000000
474922.000000
475930.000000
476915.000000
477953.000000
479022.000000
480090.000000
481164.000000
482279.000000
483359.000000
484389.000000
485396.000000
486363.000000
487352.000000
488315.000000
489295.000000
490325.000000
491438.000000
492481.000000
493488.000000
494456.000000
495441.000000
496437.000000
497429.000000
498397.000000
499333.000000
500282.000000
501233.000000
502196.000000
503136.000000
504066.000000
504962.000000
505874.000000
506846.000000
507916.000000
508941.000000
509934.000000
510877.000000
511836.000000
512810.000000
513771.000000
514724.000000
515646.000000
516533.000000
517417.000000
518345.000000
519343.000000
520335.000000
521378.000000
522352.000000
523288.000000
524220.000000
525206.000000
526218.000000
527226.000000
528237.000000
529195.000000
530113.000000
530989.000000
531878.000000
532804.000000
533838.000000
534910.000000
535992.000000
537070.000000
538094.000000
539081.000000
540052.000000
541075.000000
542083.000000
543109.000000
544140.000000
545166.000000
546160.000000
547164.000000
548187.000000
549233.000000
550299.000000
551338.000000
552437.000000
553470.000000
554454.000000
555443.000000
556458.000000
557471.000000
558473.000000
559466.000000
560411.000000
561322.000000
562272.000000
563276.000000
564291.000000
565303.000000
566259.000000
567173.000000
568046.000000
568936.000000
569894.000000
570879.000000
571893.000000
572871.000000
573808.000000
574711.000000
575628.000000
576578.000000
577558.000000
578547.000000
579518.000000
580455.000000
581369.000000
582301.000000
583272.000000
584252.000000
585228.000000
586166.000000
587072.000000
588022.000000
588990.000000
589963.000000
590922.000000
591849.000000
592805.000000
593785.000000
594759.000000
595728.000000
596654.000000
597540.000000
598452.000000
599380.000000
600320.000000
601263.000000
602210.000000
603135.000000
604069.000000
605011.000000
605949.000000
606885.000000
607778.000000
608664.000000
609576.000000
610536.000000
611488.000000
612435.000000
613364.000000
614367.000000
615355.000000
616341.000000
617287.000000
618205.000000
619070.000000
619937.000000
620821.000000
621723.000000
622651.000000
623577.000000
624474.000000
625331.000000
626171.000000
627079.000000
628271.000000
629424.000000
630499.000000
631638.000000
632681.000000
633701.000000
634707.000000
635712.000000
636730.000000
637738.000000
638746.000000
639729.000000
640694.000000
641644.000000
642651.000000
643829.000000
644974.000000
646056.000000
647116.000000
648130.000000
649123.000000
650096.000000
651102.000000
652151.000000
653288.000000
654391.000000
655465.000000
656504.000000
657461.000000
658359.000000
659205.000000
660024.000000
660799.000000
661624.000000
662717.000000
663710.000000
664734.000000
665720.000000
666700.000000
667688.000000
668747.000000
669817.000000
670867.000000
671850.000000
672792.000000
673715.000000
674684.000000
675689.000000
676731.000000
677773.000000
678770.000000
679785.000000
680804.000000
681839.000000
682857.000000
683843.000000
684812.000000
685782.000000
686802.000000
687847.000000
688858.000000
689841.000000
690831.000000
691880.000000
692929.000000
693981.000000
694990.000000
695955.000000
696923.000000
697925.000000
698943.000000
699951.000000
700951.000000
701928.000000
702907.000000
703922.000000
704939.000000
705934.000000
706901.000000
707840.000000
708798.000000
709807.000000
710816.000000
711812.000000
712771.000000
713672.000000
714539.000000
715381.000000
716208.000000
717043.000000
718133.000000
719231.000000
720353.000000
721450.000000
722526.000000
723551.000000
724518.000000
725474.000000
726411.000000
727371.000000
728356.000000
729371.000000
730366.000000
731336.000000
732263.000000
733163.000000
734119.000000
735123.000000
736159.000000
737177.000000
738218.000000
739246.000000
740247.000000
741221.000000
742172.000000
743135.000000
744151.000000
745208.000000
746277.000000
747348.000000
748390.000000
749397.000000
750388.000000
751367.000000
752364.000000
753359.000000
754344.000000
755294.000000
756209.000000
757144.000000
758156.000000
759198.000000
760262.000000
761318.000000
762385.000000
763453.000000
764477.000000
765503.000000
766537.000000
767556.000000
768545.000000
769517.000000
770455.000000
771349.000000
772260.000000
773235.000000
774226.000000
775264.000000
776311.000000
777319.000000
778278.000000
779167.000000
780040.000000
780952.000000
781936.000000
782998.000000
784073.000000
785139.000000
786166.000000
787155.000000
788164.000000
789167.000000
790159.000000
791143.000000
792110.000000
793070.000000
794087.000000
795199.000000
796282.000000
797363.000000
798405.000000
799407.000000
800443.000000
801490.000000
802576.000000
803654.000000
804693.000000
805689.000000
806683.000000
807699.000000
808754.000000
809817.000000
810846.000000
811836.000000
812839.000000
813846.000000
814850.000000
815852.000000
816846.000000
817814.000000
818732.000000
819615.000000
820467.000000
821326.000000
822242.000000
823265.000000
824336.000000
825455.000000
826538.000000
827591.000000
828644.000000
829644.000000
830649.000000
831671.000000
832682.000000
833671.000000
834640.000000
835572.000000
836485.000000
837362.000000
838211.000000
839036.000000
839861.000000
840721.000000
841637.000000
842648.000000
843708.000000
844762.000000
845818.000000
846840.000000
847809.000000
848735.000000
849642.000000
850593.000000
851553.000000
852553.000000
853560.000000
854572.000000
855589.000000
856623.000000
857626.000000
858595.000000
859527.000000
860424.000000
861324.000000
862288.000000
863328.000000
864405.000000
865455.000000
866544.000000
867570.000000
868568.000000
869582.000000
870607.000000
871598.000000
872589.000000
873573.000000
874538.000000
875451.000000
876345.000000
877248.000000
878215.000000
879255.000000
880285.000000
881318.000000
882335.000000
883328.000000
884295.000000
885276.000000
886265.000000
887285.000000
888297.000000
889300.000000
890281.000000
891226.000000
892154.000000
893121.000000
894113.000000
895113.000000
