ECG (ms)
-1.000000
596.000000
1175.000000
1770.000000
2364.000000
2974.000000
3569.000000
4208.000000
4832.000000
5502.000000
6134.000000
6796.000000
7470.000000
8202.000000
8882.000000
9582.000000
10267.000000
10952.000000
11617.000000
12250.000000
12890.000000
13547.000000
14209.000000
14888.000000
15595.000000
16342.000000
17140.000000
17914.000000
18692.000000
19521.000000
20332.000000
21068.000000
21776.000000
22453.000000
23129.000000
23855.000000
24619.000000
25447.000000
26342.000000
27220.000000
28028.000000
28764.000000
29491.000000
30207.000000
30921.000000
31603.000000
32302.000000
33016.000000
33776.000000
34523.000000
35249.000000
35961.000000
36675.000000
37381.000000
38052.000000
38710.000000
39366.000000
40039.000000
40696.000000
41356.000000
42006.000000
42646.000000
43293.000000
43929.000000
44556.000000
45198.000000
45837.000000
46487.000000
47130.000000
47749.000000
48370.000000
48971.000000
49556.000000
50138.000000
50729.000000
51352.000000
52006.000000
52690.000000
53379.000000
54051.000000
54705.000000
55326.000000
55969.000000
56593.000000
56962.000000
57550.000000
58155.000000
58772.000000
59381.000000
60003.000000
60621.000000
61250.000000
61887.000000
62502.000000
63140.000000
63773.000000
64419.000000
65037.000000
65673.000000
66308.000000
66931.000000
67559.000000
68167.000000
68767.000000
69356.000000
69946.000000
70563.000000
71178.000000
71827.000000
72479.000000
73132.000000
73755.000000
74362.000000
74974.000000
75594.000000
76219.000000
76839.000000
77469.000000
78102.000000
78725.000000
79329.000000
79934.000000
80575.000000
81208.000000
81861.000000
82498.000000
83123.000000
83731.000000
84348.000000
84966.000000
85593.000000
86222.000000
86845.000000
87459.000000
88076.000000
88718.000000
89408.000000
90096.000000
90752.000000
91377.000000
92002.000000
92619.000000
93236.000000
93846.000000
94487.000000
95096.000000
95726.000000
96379.000000
97060.000000
97737.000000
98414.000000
99057.000000
99713.000000
100374.000000
101051.000000
101726.000000
102415.000000
103071.000000
103759.000000
104444.000000
105129.000000
105789.000000
106440.000000
107099.000000
107786.000000
108469.000000
109167.000000
109852.000000
110592.000000
111310.000000
112018.000000
112698.000000
113367.000000
114051.000000
114735.000000
115454.000000
116151.000000
116843.000000
117558.000000
118269.000000
118973.000000
119658.000000
120354.000000
121042.000000
121748.000000
122464.000000
123170.000000
123864.000000
124559.000000
125236.000000
125916.000000
126578.000000
127245.000000
127946.000000
128679.000000
129372.000000
130034.000000
130678.000000
131361.000000
132052.000000
132759.000000
133469.000000
134172.000000
134869.000000
135573.000000
136304.000000
136979.000000
137654.000000
138334.000000
139047.000000
139758.000000
140455.000000
141131.000000
141834.000000
142558.000000
143272.000000
144014.000000
144723.000000
145413.000000
146114.000000
146832.000000
147539.000000
148247.000000
148944.000000
149681.000000
150431.000000
151208.000000
151983.000000
152728.000000
153483.000000
154269.000000
155023.000000
155722.000000
156404.000000
157103.000000
157826.000000
158618.000000
159333.000000
160048.000000
160820.000000
161623.000000
162432.000000
163189.000000
163918.000000
164653.000000
165385.000000
166099.000000
166798.000000
167535.000000
168272.000000
169030.000000
169740.000000
170437.000000
171098.000000
171724.000000
172365.000000
173048.000000
173739.000000
174439.000000
175162.000000
175883.000000
176615.000000
177289.000000
177974.000000
178667.000000
179357.000000
180066.000000
180745.000000
181420.000000
182114.000000
182795.000000
183492.000000
184167.000000
184839.000000
185537.000000
186292.000000
187034.000000
187758.000000
188475.000000
189192.000000
189905.000000
190604.000000
191282.000000
191944.000000
192615.000000
193312.000000
194027.000000
194751.000000
195451.000000
196121.000000
196829.000000
197522.000000
198244.000000
198937.000000
199622.000000
200306.000000
201025.000000
201740.000000
202478.000000
203190.000000
203889.000000
204626.000000
205344.000000
206084.000000
206793.000000
207445.000000
208142.000000
208842.000000
209591.000000
210316.000000
211023.000000
211746.000000
212495.000000
213246.000000
213964.000000
214632.000000
215303.000000
216006.000000
216743.000000
217485.000000
218207.000000
218936.000000
219666.000000
220414.000000
221088.000000
221833.000000
222553.000000
223245.000000
223969.000000
224688.000000
225405.000000
226131.000000
226852.000000
227577.000000
228290.000000
229016.000000
229721.000000
230397.000000
231076.000000
231827.000000
232600.000000
233390.000000
234169.000000
234898.000000
235643.000000
236365.000000
237101.000000
237822.000000
238492.000000
239179.000000
239888.000000
240639.000000
241396.000000
242131.000000
242860.000000
243578.000000
244291.000000
245000.000000
245676.000000
246343.000000
247028.000000
247715.000000
248433.000000
249139.000000
249836.000000
250564.000000
251287.000000
252035.000000
252743.000000
253418.000000
254111.000000
254803.000000
255505.000000
256184.000000
256861.000000
257536.000000
258216.000000
258902.000000
259612.000000
260296.000000
260987.000000
261674.000000
262397.000000
263131.000000
263840.000000
264534.000000
265238.000000
265925.000000
266608.000000
267263.000000
267919.000000
268588.000000
269281.000000
269986.000000
270702.000000
271380.000000
272066.000000
272749.000000
273450.000000
274138.000000
274804.000000
275470.000000
276143.000000
276840.000000
277580.000000
278294.000000
279001.000000
279715.000000
280444.000000
281157.000000
281859.000000
282553.000000
283257.000000
283949.000000
284647.000000
285342.000000
286021.000000
286701.000000
287403.000000
288138.000000
288914.000000
289656.000000
290361.000000
291074.000000
291797.000000
292522.000000
293237.000000
293974.000000
294762.000000
295587.000000
296358.000000
297066.000000
297762.000000
298458.000000
299174.000000
299892.000000
300570.000000
301265.000000
301977.000000
302691.000000
303456.000000
304243.000000
304988.000000
305719.000000
306449.000000
307191.000000
307874.000000
308529.000000
309167.000000
309788.000000
310411.000000
311183.000000
311996.000000
312778.000000
313563.000000
314380.000000
315200.000000
315981.000000
316732.000000
317503.000000
318355.000000
319210.000000
319996.000000
320716.000000
321434.000000
322151.000000
322917.000000
323686.000000
324466.000000
325244.000000
326030.000000
326798.000000
327549.000000
328312.000000
329133.000000
329984.000000
330794.000000
331561.000000
332296.000000
333034.000000
333796.000000
334539.000000
335270.000000
335988.000000
336733.000000
337471.000000
338232.000000
338959.000000
339684.000000
340435.000000
341195.000000
341961.000000
342690.000000
343403.000000
344114.000000
344835.000000
345567.000000
346277.000000
346975.000000
347703.000000
348475.000000
349211.000000
349930.000000
350649.000000
351344.000000
352064.000000
352762.000000
353488.000000
354236.000000
354972.000000
355722.000000
356496.000000
357261.000000
358017.000000
358768.000000
359487.000000
360257.000000
361005.000000
361741.000000
362432.000000
363083.000000
363736.000000
364437.000000
365166.000000
365925.000000
366702.000000
367482.000000
368243.000000
368966.000000
369696.000000
370445.000000
371171.000000
371917.000000
372608.000000
373325.000000
374120.000000
374961.000000
375781.000000
376566.000000
377343.000000
378102.000000
378863.000000
379604.000000
380353.000000
381112.000000
381902.000000
382703.000000
383514.000000
384303.000000
385058.000000
385812.000000
386615.000000
387400.000000
388192.000000
388967.000000
389699.000000
390437.000000
391213.000000
392008.000000
392817.000000
393620.000000
394337.000000
395048.000000
395736.000000
396440.000000
397174.000000
397952.000000
398760.000000
399571.000000
400400.000000
401200.000000
401963.000000
402731.000000
403488.000000
404278.000000
405027.000000
405747.000000
406447.000000
407150.000000
407847.000000
408578.000000
409337.000000
410099.000000
410860.000000
411601.000000
412333.000000
413084.000000
413830.000000
414554.000000
415269.000000
415980.000000
416710.000000
417470.000000
418242.000000
419000.000000
419724.000000
420433.000000
421144.000000
421849.000000
422541.000000
423228.000000
423899.000000
424599.000000
425311.000000
426052.000000
426773.000000
427473.000000
428153.000000
428841.000000
429591.000000
430329.000000
431037.000000
431737.000000
432409.000000
433100.000000
433808.000000
434538.000000
435237.000000
435920.000000
436617.000000
437351.000000
438080.000000
438802.000000
439485.000000
440163.000000
440857.000000
441601.000000
442332.000000
443060.000000
443780.000000
444496.000000
445214.000000
445931.000000
446638.000000
447315.000000
447983.000000
448665.000000
449361.000000
450085.000000
450789.000000
451472.000000
452148.000000
452838.000000
453542.000000
454220.000000
454893.000000
455550.000000
456211.000000
456902.000000
457595.000000
458314.000000
459003.000000
459673.000000
460360.000000
461072.000000
461792.000000
462500.000000
463185.000000
463872.000000
464573.000000
465275.000000
466008.000000
466704.000000
467401.000000
468105.000000
468817.000000
469532.000000
470253.000000
470955.000000
471645.000000
472337.000000
473009.000000
473687.000000
474362.000000
475041.000000
475708.000000
476347.000000
477056.000000
477804.000000
478589.000000
479369.000000
480084.000000
480788.000000
481506.000000
482228.000000
482982.000000
483698.000000
484405.000000
485143.000000
485908.000000
486700.000000
487544.000000
488353.000000
489108.000000
489861.000000
490597.000000
491370.000000
492176.000000
492961.000000
493739.000000
494535.000000
495362.000000
496166.000000
496928.000000
497657.000000
498404.000000
499176.000000
499940.000000
500732.000000
501489.000000
502204.000000
502932.000000
503655.000000
504423.000000
505203.000000
505969.000000
506748.000000
507539.000000
508346.000000
509170.000000
509938.000000
510669.000000
511398.000000
512117.000000
512896.000000
513647.000000
514387.000000
515136.000000
515900.000000
516683.000000
517439.000000
518163.000000
518890.000000
519618.000000
520352.000000
521073.000000
521770.000000
522456.000000
523152.000000
523854.000000
524570.000000
525271.000000
525955.000000
526635.000000
527336.000000
528050.000000
528775.000000
529479.000000
530177.000000
530886.000000
531587.000000
532284.000000
532960.000000
533622.000000
534292.000000
534975.000000
535688.000000
536425.000000
537127.000000
537818.000000
538536.000000
539257.000000
539997.000000
540710.000000
541415.000000
542137.000000
542866.000000
543580.000000
544267.000000
544938.000000
545616.000000
546311.000000
547022.000000
547762.000000
548501.000000
549222.000000
549945.000000
550666.000000
551375.000000
552062.000000
552738.000000
553418.000000
554112.000000
554833.000000
555546.000000
556248.000000
556925.000000
557638.000000
558350.000000
559082.000000
559816.000000
560510.000000
561180.000000
561852.000000
562522.000000
563200.000000
563882.000000
564589.000000
565316.000000
566073.000000
566835.000000
567595.000000
568307.000000
568998.000000
569708.000000
570417.000000
571145.000000
571881.000000
572593.000000
573306.000000
574035.000000
574799.000000
575581.000000
576343.000000
577102.000000
577826.000000
578542.000000
579257.000000
579954.000000
580637.000000
581308.000000
582003.000000
582722.000000
583505.000000
584286.000000
585049.000000
585785.000000
586512.000000
587258.000000
588003.000000
588754.000000
589479.000000
590190.000000
590915.000000
591691.000000
592476.000000
593262.000000
594009.000000
594731.000000
595449.000000
596188.000000
596937.000000
597724.000000
598497.000000
599276.000000
600056.000000
600850.000000
601629.000000
602363.000000
603089.000000
603807.000000
604547.000000
605324.000000
606086.000000
606834.000000
607597.000000
608407.000000
609189.000000
609932.000000
610655.000000
611389.000000
612132.000000
612905.000000
613681.000000
614430.000000
615187.000000
615932.000000
616659.000000
617386.000000
618121.000000
618828.000000
619539.000000
620274.000000
621035.000000
621821.000000
622605.000000
623351.000000
624100.000000
624856.000000
625621.000000
626401.000000
627181.000000
627954.000000
628718.000000
629495.000000
630302.000000
631099.000000
631847.000000
632554.000000
633301.000000
634078.000000
634917.000000
635771.000000
636609.000000
637408.000000
638164.000000
638923.000000
639681.000000
640492.000000
641339.000000
642165.000000
642957.000000
643740.000000
644520.000000
645290.000000
646058.000000
646810.000000
647547.000000
648306.000000
649117.000000
649936.000000
650756.000000
651535.000000
652299.000000
653092.000000
653882.000000
654660.000000
655422.000000
656168.000000
656902.000000
657694.000000
658567.000000
659451.000000
660291.000000
661100.000000
661913.000000
662742.000000
663541.000000
664358.000000
665153.000000
665900.000000
666644.000000
667423.000000
668252.000000
669076.000000
669873.000000
670707.000000
671634.000000
672545.000000
673400.000000
674204.000000
