ECG (ms)
171.000000
1011.000000
1827.000000
2632.000000
3456.000000
4287.000000
5099.000000
5908.000000
6737.000000
7575.000000
8393.000000
9204.000000
10020.000000
10851.000000
11666.000000
12476.000000
13305.000000
14148.000000
14978.000000
15785.000000
16608.000000
17431.000000
18240.000000
19053.000000
19894.000000
20746.000000
21592.000000
22426.000000
23277.000000
24126.000000
24954.000000
25777.000000
26619.000000
27481.000000
28335.000000
29179.000000
30033.000000
30882.000000
31709.000000
32518.000000
33339.000000
34161.000000
34987.000000
35790.000000
36598.000000
37417.000000
38232.000000
39040.000000
39868.000000
40694.000000
41519.000000
42319.000000
43125.000000
43948.000000
44789.000000
45601.000000
46410.000000
47239.000000
48073.000000
48885.000000
49690.000000
50509.000000
51332.000000
52138.000000
52937.000000
53743.000000
54567.000000
55378.000000
56178.000000
56993.000000
57812.000000
58617.000000
59421.000000
60237.000000
61068.000000
61875.000000
62680.000000
63495.000000
64322.000000
65133.000000
65954.000000
66798.000000
67646.000000
68480.000000
69326.000000
70185.000000
71050.000000
71895.000000
72748.000000
73615.000000
74470.000000
75300.000000
76144.000000
76997.000000
77843.000000
78683.000000
79542.000000
80412.000000
81271.000000
82114.000000
82982.000000
83837.000000
84666.000000
85509.000000
86366.000000
87227.000000
88076.000000
88919.000000
89769.000000
90640.000000
91492.000000
92333.000000
93183.000000
94028.000000
94861.000000
95686.000000
96534.000000
97377.000000
98200.000000
99027.000000
99868.000000
100703.000000
101533.000000
102345.000000
103160.000000
103989.000000
104812.000000
105631.000000
106457.000000
107311.000000
108152.000000
108973.000000
109807.000000
110648.000000
111494.000000
112323.000000
113158.000000
114005.000000
114859.000000
115696.000000
116544.000000
117403.000000
118255.000000
119072.000000
119891.000000
120712.000000
121538.000000
122351.000000
123187.000000
124035.000000
124939.000000
125785.000000
126626.000000
127483.000000
128333.000000
129169.000000
129983.000000
130799.000000
131630.000000
132455.000000
133263.000000
134080.000000
134911.000000
135744.000000
136560.000000
137368.000000
138201.000000
139045.000000
139874.000000
140692.000000
141516.000000
142344.000000
143160.000000
143969.000000
144794.000000
145639.000000
146485.000000
147311.000000
148145.000000
148988.000000
149827.000000
150646.000000
151470.000000
152314.000000
153180.000000
154039.000000
154893.000000
155764.000000
156643.000000
157495.000000
158320.000000
159129.000000
159950.000000
160771.000000
161575.000000
162377.000000
163223.000000
164077.000000
164920.000000
165759.000000
166609.000000
167458.000000
168285.000000
169102.000000
169921.000000
170728.000000
171520.000000
172321.000000
173139.000000
173946.000000
174750.000000
175555.000000
176371.000000
177174.000000
177969.000000
178771.000000
179577.000000
180376.000000
181168.000000
181981.000000
182796.000000
183605.000000
184404.000000
185222.000000
186044.000000
186855.000000
187644.000000
188436.000000
189241.000000
190043.000000
190843.000000
191670.000000
192510.000000
193348.000000
194170.000000
195005.000000
195859.000000
196701.000000
197517.000000
198343.000000
199175.000000
200011.000000
200813.000000
201614.000000
202422.000000
203242.000000
204046.000000
204850.000000
205662.000000
206479.000000
207276.000000
208069.000000
208875.000000
209690.000000
210497.000000
211290.000000
212097.000000
212911.000000
213719.000000
214512.000000
215308.000000
216125.000000
216941.000000
217751.000000
218547.000000
219345.000000
220161.000000
220977.000000
221774.000000
222571.000000
223372.000000
224179.000000
224973.000000
225750.000000
226531.000000
227325.000000
228111.000000
228892.000000
229682.000000
230475.000000
231268.000000
232060.000000
232869.000000
233690.000000
234506.000000
235298.000000
236096.000000
236900.000000
237713.000000
238507.000000
239293.000000
240091.000000
240897.000000
241689.000000
242474.000000
243264.000000
244063.000000
244854.000000
245637.000000
246420.000000
247218.000000
248022.000000
248810.000000
249597.000000
250393.000000
251187.000000
251967.000000
252744.000000
253528.000000
254315.000000
255091.000000
255862.000000
256640.000000
257425.000000
258209.000000
258988.000000
259774.000000
260564.000000
261351.000000
262132.000000
262923.000000
263713.000000
264496.000000
265271.000000
266047.000000
266833.000000
267622.000000
268409.000000
269204.000000
270013.000000
270825.000000
271614.000000
272400.000000
273192.000000
273991.000000
274785.000000
275588.000000
276392.000000
277211.000000
278018.000000
278816.000000
279631.000000
280455.000000
281253.000000
282044.000000
282836.000000
283625.000000
284415.000000
285200.000000
285999.000000
286808.000000
287605.000000
288391.000000
289193.000000
290001.000000
290795.000000
291584.000000
292374.000000
293175.000000
293974.000000
294766.000000
295571.000000
296384.000000
297207.000000
298019.000000
298817.000000
299618.000000
300422.000000
301211.000000
301983.000000
302760.000000
303553.000000
304352.000000
305157.000000
305999.000000
306840.000000
307667.000000
308475.000000
309286.000000
310091.000000
310885.000000
311665.000000
312449.000000
313241.000000
314056.000000
314859.000000
315661.000000
316477.000000
317295.000000
318094.000000
318882.000000
319675.000000
320475.000000
321266.000000
322049.000000
322836.000000
323627.000000
324428.000000
325219.000000
325995.000000
326785.000000
327590.000000
328390.000000
329182.000000
329990.000000
330808.000000
331626.000000
332429.000000
333250.000000
334080.000000
334917.000000
335730.000000
336534.000000
337353.000000
338176.000000
338992.000000
339799.000000
340614.000000
341437.000000
342244.000000
343042.000000
343856.000000
344674.000000
345478.000000
346265.000000
347051.000000
347845.000000
348629.000000
349403.000000
350192.000000
350994.000000
351804.000000
352601.000000
353405.000000
354203.000000
354999.000000
355810.000000
356630.000000
357466.000000
358268.000000
359070.000000
359871.000000
360685.000000
361482.000000
362273.000000
363069.000000
363869.000000
364656.000000
365435.000000
366230.000000
367050.000000
367863.000000
368656.000000
369467.000000
370286.000000
371085.000000
371886.000000
372703.000000
373525.000000
374325.000000
375116.000000
375914.000000
376714.000000
377498.000000
378274.000000
379053.000000
379840.000000
380620.000000
381393.000000
382175.000000
382965.000000
383743.000000
384515.000000
385297.000000
386083.000000
386865.000000
387641.000000
388422.000000
389214.000000
389996.000000
390771.000000
391547.000000
392331.000000
393106.000000
393873.000000
394642.000000
395419.000000
396197.000000
396968.000000
397757.000000
398544.000000
399332.000000
400112.000000
400888.000000
401672.000000
402471.000000
403258.000000
404035.000000
404825.000000
405624.000000
406421.000000
407208.000000
408001.000000
408796.000000
409589.000000
410369.000000
411150.000000
411935.000000
412738.000000
413529.000000
414321.000000
415139.000000
415966.000000
416777.000000
417584.000000
418391.000000
419205.000000
419997.000000
420778.000000
421572.000000
422378.000000
423177.000000
423963.000000
424766.000000
425597.000000
426424.000000
427229.000000
428036.000000
428851.000000
429658.000000
430450.000000
431254.000000
432075.000000
432900.000000
433705.000000
434507.000000
435335.000000
436159.000000
436975.000000
437770.000000
438575.000000
439384.000000
440195.000000
440988.000000
441787.000000
442598.000000
443406.000000
444201.000000
445004.000000
445812.000000
446618.000000
447408.000000
448205.000000
449008.000000
449817.000000
450613.000000
451420.000000
452238.000000
453049.000000
453852.000000
454659.000000
455473.000000
456273.000000
457059.000000
457864.000000
458688.000000
459503.000000
460299.000000
461100.000000
461905.000000
462708.000000
463497.000000
464288.000000
465087.000000
465893.000000
466684.000000
467486.000000
468289.000000
469095.000000
469888.000000
470681.000000
471483.000000
472280.000000
473068.000000
473854.000000
474646.000000
475442.000000
476223.000000
477008.000000
477793.000000
478576.000000
479350.000000
480131.000000
480921.000000
481704.000000
482479.000000
483271.000000
484067.000000
484852.000000
485634.000000
486420.000000
487223.000000
488012.000000
488796.000000
489592.000000
490392.000000
491184.000000
491969.000000
492754.000000
493546.000000
494341.000000
495126.000000
495927.000000
496737.000000
497559.000000
498346.000000
499135.000000
499933.000000
500730.000000
501513.000000
502297.000000
503097.000000
503910.000000
504703.000000
505490.000000
506295.000000
507103.000000
507902.000000
508697.000000
509494.000000
510297.000000
511093.000000
511880.000000
512677.000000
513483.000000
514287.000000
515079.000000
515874.000000
516685.000000
517505.000000
518315.000000
519122.000000
519950.000000
520766.000000
521568.000000
522357.000000
523150.000000
523958.000000
524759.000000
525551.000000
526344.000000
527147.000000
527953.000000
528756.000000
529538.000000
530334.000000
531139.000000
531944.000000
532729.000000
533526.000000
534309.000000
535062.000000
535807.000000
536561.000000
537320.000000
538092.000000
538893.000000
539716.000000
540505.000000
541298.000000
542097.000000
542911.000000
543724.000000
544522.000000
545338.000000
546160.000000
546981.000000
547784.000000
548597.000000
549422.000000
550231.000000
551026.000000
551829.000000
552646.000000
553474.000000
554287.000000
555112.000000
555956.000000
556785.000000
557600.000000
558430.000000
559259.000000
560074.000000
560871.000000
561663.000000
562451.000000
563235.000000
564004.000000
564772.000000
565547.000000
566339.000000
567127.000000
567929.000000
568752.000000
569580.000000
570387.000000
571201.000000
572012.000000
572829.000000
573625.000000
574435.000000
575251.000000
576077.000000
576882.000000
577673.000000
578479.000000
579286.000000
580091.000000
580882.000000
581679.000000
582478.000000
583277.000000
584036.000000
584722.000000
585599.000000
586444.000000
587297.000000
588158.000000
588995.000000
589832.000000
590668.000000
591516.000000
592346.000000
593185.000000
594031.000000
594882.000000
595701.000000
596536.000000
597387.000000
598252.000000
599090.000000
599910.000000
600732.000000
601568.000000
602399.000000
603225.000000
604066.000000
604931.000000
605779.000000
606605.000000
607427.000000
608245.000000
609068.000000
609889.000000
610684.000000
611482.000000
612293.000000
613109.000000
613937.000000
614772.000000
615605.000000
616419.000000
617225.000000
618041.000000
618873.000000
619668.000000
620433.000000
621200.000000
621982.000000
622757.000000
623551.000000
624373.000000
625229.000000
626070.000000
626897.000000
627746.000000
628594.000000
629433.000000
630251.000000
631073.000000
631901.000000
632735.000000
633551.000000
634377.000000
635212.000000
636042.000000
636846.000000
637658.000000
638486.000000
639316.000000
640125.000000
640940.000000
641755.000000
642579.000000
643379.000000
644169.000000
644969.000000
645777.000000
646578.000000
647366.000000
648165.000000
648974.000000
649793.000000
650598.000000
651402.000000
652214.000000
653034.000000
653838.000000
654638.000000
655448.000000
656267.000000
657071.000000
657869.000000
658684.000000
659512.000000
660321.000000
661115.000000
661906.000000
662707.000000
663510.000000
664302.000000
665099.000000
665907.000000
666730.000000
667552.000000
668359.000000
669174.000000
669991.000000
670810.000000
671612.000000
672424.000000
673246.000000
674064.000000
674870.000000
675673.000000
676485.000000
677294.000000
678092.000000
678881.000000
679676.000000
680474.000000
681266.000000
682060.000000
682862.000000
683673.000000
684471.000000
685261.000000
686058.000000
686854.000000
687643.000000
688427.000000
689220.000000
690024.000000
690816.000000
691602.000000
692396.000000
693191.000000
693978.000000
694756.000000
695536.000000
696324.000000
697107.000000
697885.000000
698670.000000
699459.000000
700239.000000
701014.000000
701803.000000
702606.000000
703399.000000
704188.000000
704978.000000
705778.000000
706578.000000
707368.000000
708153.000000
708946.000000
709742.000000
710526.000000
711306.000000
712098.000000
712889.000000
713682.000000
714465.000000
715254.000000
716042.000000
716823.000000
717597.000000
718374.000000
719151.000000
719921.000000
720703.000000
721494.000000
722283.000000
723070.000000
723880.000000
724694.000000
725492.000000
726277.000000
727064.000000
727844.000000
728608.000000
729377.000000
730154.000000
730932.000000
731707.000000
732505.000000
733312.000000
734119.000000
734919.000000
735728.000000
736535.000000
737335.000000
738115.000000
738874.000000
739635.000000
740418.000000
741212.000000
741994.000000
742747.000000
743492.000000
744248.000000
745001.000000
745762.000000
746535.000000
747317.000000
748100.000000
748880.000000
749669.000000
750471.000000
751276.000000
752065.000000
752862.000000
753660.000000
754461.000000
755245.000000
756031.000000
756834.000000
757651.000000
758448.000000
759257.000000
760082.000000
760912.000000
761728.000000
762532.000000
763342.000000
764149.000000
764941.000000
765727.000000
766519.000000
767335.000000
768154.000000
768958.000000
769746.000000
770542.000000
771341.000000
772141.000000
772924.000000
773713.000000
774505.000000
775302.000000
776091.000000
776889.000000
777695.000000
778504.000000
779305.000000
780113.000000
780937.000000
781747.000000
782538.000000
783339.000000
784141.000000
784949.000000
785748.000000
786539.000000
787346.000000
788157.000000
788950.000000
789740.000000
790535.000000
791346.000000
792148.000000
792947.000000
793755.000000
794570.000000
795370.000000
796161.000000
796957.000000
797759.000000
798565.000000
799357.000000
800158.000000
800965.000000
801773.000000
802568.000000
803369.000000
804177.000000
804995.000000
805815.000000
806611.000000
807415.000000
808227.000000
809031.000000
809816.000000
810604.000000
811394.000000
812184.000000
812966.000000
813753.000000
814544.000000
815342.000000
816131.000000
816916.000000
817700.000000
818481.000000
819247.000000
820012.000000
820785.000000
821571.000000
822350.000000
823124.000000
823905.000000
824688.000000
825466.000000
826234.000000
827009.000000
827787.000000
828569.000000
829345.000000
830124.000000
830919.000000
831720.000000
832513.000000
833316.000000
834125.000000
834926.000000
835717.000000
836503.000000
837289.000000
838087.000000
838884.000000
839679.000000
840492.000000
841317.000000
842130.000000
842930.000000
843739.000000
844556.000000
845368.000000
846166.000000
846962.000000
847769.000000
848580.000000
849383.000000
850172.000000
850974.000000
851769.000000
852559.000000
853347.000000
854141.000000
854941.000000
855743.000000
856528.000000
857313.000000
858106.000000
858898.000000
859676.000000
860450.000000
861235.000000
862025.000000
862812.000000
863590.000000
864376.000000
865171.000000
865965.000000
866748.000000
867541.000000
868338.000000
869140.000000
869935.000000
870743.000000
871553.000000
872360.000000
873147.000000
873932.000000
874728.000000
875521.000000
876306.000000
877095.000000
877889.000000
878699.000000
879495.000000
880294.000000
881111.000000
881931.000000
882736.000000
883535.000000
884343.000000
885153.000000
885954.000000
886745.000000
887541.000000
888354.000000
889167.000000
889988.000000
890836.000000
891692.000000
892547.000000
893378.000000
894213.000000
895040.000000
895856.000000
896650.000000
897448.000000
898251.000000
899047.000000
899832.000000
900618.000000
901419.000000
902214.000000
902997.000000
903785.000000
904582.000000
905397.000000
906204.000000
907001.000000
907803.000000
908609.000000
909403.000000
910188.000000
910985.000000
911789.000000
912589.000000
913377.000000
914173.000000
914992.000000
915808.000000
916606.000000
917402.000000
918195.000000
918979.000000
919746.000000
920497.000000
921242.000000
922009.000000
922803.000000
923605.000000
924432.000000
925241.000000
926057.000000
926883.000000
927712.000000
928523.000000
929347.000000
930179.000000
931006.000000
931813.000000
932618.000000
933438.000000
934267.000000
935090.000000
935901.000000
936711.000000
937513.000000
938300.000000
939084.000000
939882.000000
940691.000000
941498.000000
942294.000000
943099.000000
943913.000000
944744.000000
945548.000000
946345.000000
947149.000000
947961.000000
948762.000000
949548.000000
950341.000000
951134.000000
951930.000000
952712.000000
953493.000000
954279.000000
955089.000000
955887.000000
956690.000000
957500.000000
958329.000000
959139.000000
959952.000000
960778.000000
961605.000000
962413.000000
963204.000000
964011.000000
964826.000000
965631.000000
966421.000000
967228.000000
968049.000000
968868.000000
969676.000000
970475.000000
971281.000000
972097.000000
972893.000000
973686.000000
974483.000000
975282.000000
976070.000000
976853.000000
977646.000000
978442.000000
979226.000000
980015.000000
980816.000000
981625.000000
982418.000000
983201.000000
983986.000000
984768.000000
985539.000000
986308.000000
987086.000000
987866.000000
988641.000000
989416.000000
990203.000000
991006.000000
991804.000000
992604.000000
993419.000000
994252.000000
995061.000000
995870.000000
996682.000000
997491.000000
998279.000000
999049.000000
999831.000000
1000624.000000
1001415.000000
1002201.000000
1002999.000000
1003821.000000
1004651.000000
1005458.000000
1006256.000000
1007064.000000
1007877.000000
1008679.000000
1009475.000000
1010282.000000
1011097.000000
1011897.000000
1012689.000000
1013486.000000
1014287.000000
1015077.000000
1015866.000000
1016660.000000
1017462.000000
1018258.000000
1019055.000000
1019867.000000
1020687.000000
1021499.000000
1022293.000000
1023086.000000
1023879.000000
1024666.000000
1025439.000000
1026214.000000
1026995.000000
1027793.000000
1028578.000000
1029363.000000
1030157.000000
1030952.000000
1031742.000000
1032532.000000
1033353.000000
1034171.000000
1034977.000000
1035779.000000
1036603.000000
1037439.000000
1038263.000000
1039089.000000
1039921.000000
1040751.000000
1041558.000000
1042364.000000
1043169.000000
1043964.000000
1044747.000000
1045538.000000
1046343.000000
1047162.000000
1047964.000000
1048760.000000
1049574.000000
1050398.000000
1051205.000000
1052004.000000
1052816.000000
1053625.000000
1054419.000000
1055209.000000
1056016.000000
1056822.000000
1057601.000000
1058375.000000
1059150.000000
1059936.000000
1060714.000000
1061487.000000
1062273.000000
1063077.000000
1063879.000000
1064677.000000
1065494.000000
1066323.000000
1067131.000000
1067934.000000
1068782.000000
1069618.000000
1070493.000000
1071313.000000
1072113.000000
1072914.000000
1073710.000000
1074488.000000
1075263.000000
1076041.000000
1076827.000000
1077602.000000
1078380.000000
1079169.000000
1079957.000000
1080743.000000
1081539.000000
1082346.000000
1083148.000000
1083942.000000
1084743.000000
1085554.000000
1086350.000000
1087142.000000
1087939.000000
1088741.000000
1089532.000000
1090333.000000
1091137.000000
1091931.000000
1092735.000000
1093553.000000
1094362.000000
1095162.000000
1095978.000000
1096794.000000
1097599.000000
1098416.000000
1099242.000000
1100064.000000
1100872.000000
1101687.000000
1102504.000000
1103304.000000
1104108.000000
1104918.000000
1105752.000000
1106562.000000
1107365.000000
1108168.000000
1108979.000000
1109777.000000
1110576.000000
1111378.000000
1112187.000000
1112984.000000
1113788.000000
1114602.000000
1115421.000000
1116224.000000
1117026.000000
1117831.000000
1118641.000000
1119434.000000
1120227.000000
1121017.000000
1121805.000000
1122583.000000
1123357.000000
1124128.000000
1124898.000000
1125660.000000
1126416.000000
1127176.000000
1127941.000000
1128710.000000
1129479.000000
1130262.000000
1131055.000000
1131847.000000
1132634.000000
1133433.000000
1134234.000000
1135017.000000
1135790.000000
1136563.000000
1137331.000000
1138096.000000
1138854.000000
1139616.000000
1140388.000000
1141166.000000
1141940.000000
1142714.000000
1143495.000000
1144269.000000
1145043.000000
1145818.000000
1146601.000000
1147388.000000
1148170.000000
1148956.000000
1149748.000000
1150541.000000
1151320.000000
1152098.000000
1152894.000000
1153696.000000
1154490.000000
1155276.000000
1156072.000000
1156870.000000
1157659.000000
1158440.000000
1159233.000000
1160033.000000
1160836.000000
1161619.000000
1162409.000000
1163200.000000
1163997.000000
1164800.000000
1165616.000000
1166425.000000
1167234.000000
1168025.000000
1168814.000000
1169606.000000
1170395.000000
1171175.000000
1171973.000000
1172781.000000
1173595.000000
1174402.000000
1175208.000000
1176025.000000
1176842.000000
1177635.000000
1178424.000000
1179222.000000
1180032.000000
1180835.000000
1181634.000000
1182456.000000
1183282.000000
1184087.000000
1184893.000000
1185707.000000
1186509.000000
1187298.000000
1188094.000000
1188898.000000
1189706.000000
1190504.000000
1191316.000000
1192147.000000
1192983.000000
1193787.000000
1194595.000000
1195409.000000
1196220.000000
1197011.000000
1197813.000000
1198621.000000
1199427.000000
1200220.000000
1201026.000000
1201850.000000
1202659.000000
1203456.000000
1204263.000000
1205080.000000
1205895.000000
1206692.000000
