ECG (ms)
225.000000
1029.000000
1811.000000
2624.000000
3450.000000
4249.000000
5052.000000
5847.000000
6620.000000
7395.000000
8160.000000
8909.000000
9672.000000
10464.000000
11242.000000
12045.000000
12839.000000
13598.000000
14349.000000
15111.000000
15846.000000
16589.000000
17355.000000
18122.000000
18898.000000
19697.000000
20509.000000
21281.000000
22050.000000
22819.000000
23563.000000
24290.000000
25031.000000
25827.000000
26669.000000
27544.000000
28454.000000
29289.000000
30123.000000
30934.000000
31713.000000
32507.000000
33324.000000
34121.000000
34940.000000
35748.000000
36530.000000
37305.000000
38099.000000
38920.000000
39718.000000
40545.000000
41425.000000
42307.000000
43177.000000
44053.000000
44872.000000
45650.000000
46427.000000
47216.000000
47998.000000
48757.000000
49530.000000
50338.000000
51132.000000
51962.000000
52825.000000
53634.000000
54426.000000
55232.000000
56042.000000
56818.000000
57586.000000
58371.000000
59199.000000
60017.000000
60819.000000
61652.000000
62517.000000
63341.000000
64135.000000
64945.000000
65776.000000
66575.000000
67333.000000
68087.000000
68837.000000
69582.000000
70326.000000
71096.000000
71950.000000
72814.000000
73647.000000
74478.000000
75292.000000
76056.000000
76808.000000
77572.000000
78386.000000
79197.000000
80044.000000
80932.000000
81753.000000
82570.000000
83387.000000
84177.000000
84962.000000
85752.000000
86554.000000
87329.000000
88095.000000
88877.000000
89688.000000
90469.000000
91249.000000
92051.000000
92858.000000
93642.000000
94436.000000
95246.000000
96021.000000
96794.000000
97584.000000
98347.000000
99099.000000
99865.000000
100621.000000
101413.000000
102230.000000
103009.000000
103761.000000
104509.000000
105252.000000
105985.000000
106742.000000
107572.000000
108417.000000
109211.000000
110019.000000
110853.000000
111620.000000
112346.000000
113061.000000
113785.000000
114534.000000
115288.000000
116062.000000
116899.000000
117735.000000
118516.000000
119292.000000
120063.000000
120798.000000
121531.000000
122280.000000
123066.000000
123833.000000
124607.000000
125377.000000
126139.000000
126881.000000
127617.000000
128361.000000
129127.000000
129908.000000
130662.000000
131419.000000
132191.000000
132951.000000
133715.000000
134512.000000
135304.000000
136075.000000
136856.000000
137652.000000
138425.000000
139206.000000
140006.000000
140772.000000
141539.000000
142315.000000
143082.000000
143833.000000
144582.000000
145360.000000
146121.000000
146860.000000
147599.000000
148358.000000
149094.000000
149829.000000
150576.000000
151331.000000
152075.000000
152823.000000
153606.000000
154391.000000
155162.000000
155953.000000
156757.000000
157529.000000
158293.000000
159068.000000
159826.000000
160559.000000
161299.000000
162072.000000
162886.000000
163665.000000
164455.000000
165250.000000
166017.000000
166787.000000
167584.000000
168372.000000
169125.000000
169879.000000
170637.000000
171381.000000
172117.000000
172876.000000
173730.000000
174608.000000
175445.000000
176293.000000
177120.000000
177907.000000
178688.000000
179461.000000
180209.000000
180950.000000
181696.000000
182479.000000
183248.000000
184023.000000
184823.000000
185615.000000
186383.000000
187164.000000
187954.000000
188710.000000
189438.000000
190162.000000
190922.000000
191680.000000
192446.000000
193226.000000
193994.000000
194744.000000
195502.000000
196250.000000
196981.000000
197713.000000
198450.000000
199213.000000
199945.000000
200676.000000
201415.000000
202169.000000
202919.000000
203650.000000
204372.000000
205117.000000
205846.000000
206552.000000
207279.000000
208113.000000
208999.000000
209807.000000
210629.000000
211472.000000
212257.000000
213024.000000
213784.000000
214537.000000
215264.000000
215994.000000
216755.000000
217529.000000
218279.000000
219026.000000
219787.000000
220536.000000
221269.000000
222009.000000
222776.000000
223531.000000
224277.000000
225053.000000
225831.000000
226598.000000
227371.000000
228150.000000
228909.000000
229669.000000
230440.000000
231200.000000
231960.000000
232734.000000
233511.000000
234282.000000
235072.000000
235871.000000
236637.000000
237412.000000
238204.000000
238975.000000
239739.000000
240510.000000
241282.000000
242032.000000
242776.000000
243528.000000
244296.000000
245043.000000
245784.000000
246529.000000
247273.000000
248025.000000
248805.000000
249645.000000
250453.000000
251265.000000
252074.000000
252847.000000
253605.000000
254363.000000
255095.000000
255826.000000
256572.000000
257338.000000
258082.000000
258847.000000
259641.000000
260408.000000
261183.000000
261983.000000
262766.000000
263511.000000
264244.000000
264975.000000
265703.000000
266418.000000
267138.000000
267950.000000
268803.000000
269603.000000
270403.000000
271218.000000
272019.000000
272844.000000
273660.000000
274427.000000
275178.000000
275939.000000
276705.000000
277443.000000
278193.000000
278978.000000
279782.000000
280555.000000
281334.000000
282136.000000
282934.000000
283701.000000
284476.000000
285294.000000
286095.000000
286858.000000
287579.000000
288279.000000
288966.000000
289683.000000
290471.000000
291324.000000
292162.000000
292987.000000
293813.000000
294600.000000
295361.000000
296106.000000
296837.000000
297557.000000
298271.000000
298986.000000
299699.000000
300422.000000
301164.000000
301930.000000
302731.000000
303537.000000
304308.000000
305081.000000
305858.000000
306627.000000
307370.000000
308109.000000
308858.000000
309630.000000
310393.000000
311180.000000
312006.000000
312816.000000
313601.000000
314383.000000
315159.000000
315899.000000
316633.000000
317383.000000
318171.000000
318946.000000
319728.000000
320566.000000
321432.000000
322255.000000
323079.000000
323894.000000
324687.000000
325482.000000
326259.000000
327024.000000
327784.000000
328549.000000
329287.000000
330026.000000
330780.000000
331572.000000
332344.000000
333111.000000
333890.000000
334683.000000
335444.000000
336172.000000
336899.000000
337642.000000
338417.000000
339190.000000
339944.000000
340690.000000
341447.000000
342202.000000
342937.000000
343675.000000
344426.000000
345161.000000
345896.000000
346640.000000
347379.000000
348134.000000
348910.000000
349677.000000
350413.000000
351149.000000
351900.000000
352634.000000
353357.000000
354084.000000
354830.000000
355568.000000
356313.000000
357080.000000
357854.000000
358606.000000
359363.000000
360114.000000
360837.000000
361566.000000
362306.000000
363061.000000
363797.000000
364549.000000
365310.000000
366059.000000
366818.000000
367591.000000
368350.000000
369075.000000
369785.000000
370512.000000
371299.000000
372089.000000
372898.000000
373752.000000
374573.000000
375387.000000
376195.000000
376969.000000
377715.000000
378458.000000
379206.000000
379946.000000
380686.000000
381454.000000
382285.000000
383083.000000
383887.000000
384702.000000
385479.000000
386227.000000
386953.000000
387677.000000
388422.000000
389169.000000
389907.000000
390634.000000
391382.000000
392159.000000
392922.000000
393670.000000
394410.000000
395154.000000
395916.000000
396663.000000
397404.000000
398174.000000
398945.000000
399683.000000
400392.000000
401098.000000
401854.000000
402687.000000
403497.000000
404348.000000
405202.000000
406025.000000
406831.000000
407647.000000
408486.000000
409280.000000
410036.000000
410763.000000
411476.000000
412169.000000
412880.000000
413637.000000
414464.000000
415350.000000
416247.000000
417104.000000
417917.000000
418704.000000
419459.000000
420189.000000
420915.000000
421648.000000
422373.000000
423121.000000
423923.000000
424695.000000
425441.000000
426184.000000
426934.000000
427687.000000
428425.000000
429140.000000
429856.000000
430605.000000
431411.000000
432206.000000
433006.000000
433803.000000
434574.000000
435337.000000
436101.000000
436850.000000
437591.000000
438349.000000
439140.000000
439912.000000
440675.000000
441439.000000
442183.000000
442913.000000
443637.000000
444370.000000
445100.000000
445841.000000
446584.000000
447334.000000
448073.000000
448825.000000
449609.000000
450364.000000
451105.000000
451855.000000
452626.000000
453393.000000
454137.000000
454888.000000
455659.000000
456425.000000
457184.000000
457958.000000
458745.000000
459499.000000
460231.000000
460969.000000
461744.000000
462543.000000
463315.000000
464084.000000
464872.000000
465681.000000
466450.000000
467181.000000
467889.000000
468583.000000
469305.000000
470156.000000
471019.000000
471881.000000
472769.000000
473635.000000
474468.000000
475286.000000
476067.000000
476835.000000
477593.000000
478344.000000
479092.000000
479841.000000
480595.000000
481355.000000
482120.000000
482878.000000
483597.000000
484312.000000
485035.000000
485793.000000
486534.000000
487272.000000
488020.000000
488756.000000
489483.000000
490220.000000
490977.000000
491715.000000
492432.000000
493152.000000
493882.000000
494606.000000
495322.000000
496060.000000
496844.000000
497648.000000
498429.000000
499202.000000
499992.000000
500771.000000
501534.000000
502289.000000
503039.000000
503778.000000
504530.000000
505296.000000
506056.000000
506827.000000
507625.000000
508433.000000
509195.000000
509948.000000
510701.000000
511441.000000
512163.000000
512880.000000
513620.000000
514413.000000
515209.000000
516002.000000
516813.000000
517634.000000
518414.000000
519180.000000
519958.000000
520714.000000
521443.000000
522178.000000
522952.000000
523766.000000
524540.000000
525306.000000
526094.000000
526926.000000
527751.000000
528578.000000
529386.000000
530159.000000
530925.000000
531707.000000
532490.000000
533265.000000
534066.000000
534896.000000
535699.000000
536455.000000
537172.000000
537878.000000
538600.000000
539393.000000
540275.000000
541129.000000
541922.000000
542678.000000
543420.000000
544151.000000
544876.000000
545615.000000
546380.000000
547137.000000
547904.000000
548678.000000
549426.000000
550167.000000
550911.000000
551642.000000
552351.000000
553045.000000
553723.000000
554411.000000
555129.000000
555864.000000
556648.000000
557496.000000
558315.000000
559114.000000
559900.000000
560652.000000
561386.000000
562082.000000
562807.000000
563561.000000
564292.000000
565029.000000
565789.000000
566567.000000
567311.000000
568042.000000
568765.000000
569488.000000
570194.000000
570900.000000
571640.000000
572487.000000
573311.000000
574138.000000
574982.000000
575776.000000
576532.000000
577262.000000
577985.000000
578739.000000
579468.000000
580184.000000
580919.000000
581676.000000
582421.000000
583152.000000
583877.000000
584604.000000
585332.000000
586053.000000
586780.000000
587509.000000
588248.000000
588976.000000
589709.000000
590448.000000
591217.000000
591953.000000
592688.000000
593429.000000
594171.000000
594894.000000
595626.000000
596381.000000
597151.000000
597898.000000
598657.000000
599435.000000
600204.000000
600947.000000
601678.000000
602413.000000
603172.000000
603965.000000
604742.000000
605519.000000
606325.000000
607137.000000
607925.000000
608717.000000
609510.000000
610272.000000
611021.000000
611773.000000
612539.000000
613289.000000
614029.000000
614782.000000
615566.000000
616353.000000
617124.000000
617898.000000
618671.000000
