ECG (ms)
688.000000
1442.000000
2145.000000
2836.000000
3544.000000
4236.000000
4924.000000
5631.000000
6305.000000
6957.000000
7640.000000
8334.000000
9097.000000
9868.000000
10607.000000
11310.000000
12012.000000
12775.000000
13584.000000
14319.000000
15083.000000
15878.000000
16610.000000
17346.000000
18148.000000
18939.000000
19687.000000
20544.000000
21424.000000
22228.000000
22992.000000
23799.000000
24623.000000
25409.000000
26163.000000
26957.000000
27801.000000
28712.000000
29529.000000
30287.000000
31063.000000
31867.000000
32757.000000
33656.000000
34520.000000
35299.000000
36044.000000
36849.000000
37713.000000
38730.000000
39576.000000
40336.000000
41165.000000
42008.000000
42777.000000
43533.000000
44340.000000
45265.000000
46221.000000
47143.000000
47918.000000
48647.000000
49380.000000
50178.000000
51045.000000
51909.000000
52796.000000
53658.000000
54435.000000
55170.000000
55927.000000
56806.000000
57677.000000
58426.000000
59144.000000
59830.000000
60482.000000
61210.000000
61993.000000
62744.000000
63587.000000
64560.000000
65508.000000
66322.000000
67075.000000
67843.000000
68650.000000
69525.000000
70383.000000
71286.000000
72074.000000
72806.000000
73566.000000
74414.000000
75361.000000
76233.000000
77022.000000
77808.000000
78686.000000
79627.000000
80556.000000
81374.000000
82120.000000
82878.000000
83698.000000
84721.000000
85567.000000
86350.000000
87185.000000
88104.000000
88933.000000
89705.000000
90562.000000
91454.000000
92254.000000
93030.000000
93849.000000
94701.000000
95553.000000
96319.000000
97120.000000
97947.000000
98726.000000
99459.000000
100239.000000
101078.000000
101876.000000
102611.000000
103366.000000
104193.000000
105027.000000
105791.000000
106518.000000
107275.000000
108098.000000
108861.000000
109589.000000
110378.000000
111230.000000
112000.000000
112753.000000
113583.000000
114423.000000
115204.000000
115965.000000
116800.000000
117645.000000
118417.000000
119153.000000
119927.000000
120765.000000
121589.000000
122409.000000
123163.000000
123897.000000
124675.000000
125567.000000
126422.000000
127274.000000
128045.000000
128765.000000
129477.000000
130270.000000
131396.000000
132285.000000
133044.000000
133815.000000
134628.000000
135468.000000
136225.000000
136946.000000
137685.000000
138581.000000
139459.000000
140256.000000
140988.000000
141741.000000
142597.000000
143393.000000
144120.000000
144866.000000
145684.000000
146528.000000
147338.000000
148109.000000
148842.000000
149568.000000
150377.000000
151359.000000
152323.000000
153170.000000
153924.000000
154652.000000
155434.000000
156361.000000
157273.000000
158082.000000
158820.000000
159550.000000
160370.000000
161274.000000
162114.000000
162947.000000
163696.000000
164428.000000
165239.000000
166104.000000
166955.000000
167732.000000
168468.000000
169201.000000
170028.000000
170887.000000
171758.000000
172562.000000
173288.000000
174016.000000
174833.000000
175671.000000
176418.000000
177168.000000
178029.000000
178950.000000
179853.000000
180643.000000
181387.000000
182137.000000
182942.000000
183783.000000
184597.000000
185416.000000
186159.000000
186878.000000
187627.000000
188554.000000
189517.000000
190440.000000
191237.000000
191978.000000
192713.000000
193537.000000
194409.000000
195247.000000
196015.000000
196752.000000
197594.000000
198480.000000
199289.000000
200017.000000
200760.000000
201538.000000
202303.000000
203017.000000
203746.000000
204620.000000
205541.000000
206326.000000
207092.000000
207896.000000
208730.000000
209566.000000
210306.000000
211020.000000
211786.000000
212601.000000
213392.000000
214128.000000
214883.000000
215815.000000
216732.000000
217600.000000
218433.000000
219185.000000
219889.000000
220583.000000
221375.000000
222246.000000
223023.000000
223776.000000
224554.000000
225410.000000
226239.000000
227009.000000
227725.000000
228423.000000
229164.000000
229992.000000
230843.000000
231576.000000
232294.000000
233091.000000
233869.000000
234579.000000
235276.000000
235972.000000
236645.000000
237301.000000
237979.000000
238648.000000
239309.000000
239979.000000
240742.000000
241809.000000
242754.000000
243619.000000
244416.000000
245126.000000
245811.000000
246514.000000
247256.000000
248060.000000
248841.000000
249578.000000
250318.000000
251122.000000
251951.000000
252717.000000
253426.000000
254143.000000
254897.000000
255706.000000
256455.000000
257194.000000
257980.000000
258812.000000
259636.000000
260393.000000
261108.000000
261830.000000
262619.000000
263459.000000
264278.000000
265051.000000
265778.000000
266513.000000
267299.000000
268133.000000
268934.000000
269729.000000
270538.000000
271271.000000
271993.000000
272759.000000
273583.000000
274327.000000
275060.000000
275831.000000
276653.000000
277437.000000
278161.000000
278874.000000
279631.000000
280486.000000
281340.000000
282101.000000
282855.000000
283657.000000
284469.000000
285195.000000
285930.000000
286711.000000
287534.000000
288275.000000
288988.000000
289723.000000
290537.000000
291279.000000
291991.000000
292743.000000
293459.000000
294139.000000
294794.000000
295456.000000
296134.000000
296864.000000
297676.000000
298467.000000
299191.000000
299893.000000
300629.000000
301430.000000
302262.000000
303005.000000
303728.000000
304510.000000
305331.000000
306123.000000
306854.000000
307616.000000
308453.000000
309349.000000
310100.000000
310835.000000
311621.000000
312489.000000
313357.000000
314133.000000
314865.000000
315638.000000
316481.000000
317336.000000
318121.000000
318864.000000
319641.000000
320613.000000
321463.000000
322225.000000
322988.000000
323780.000000
324607.000000
325359.000000
326097.000000
326902.000000
327936.000000
328856.000000
329659.000000
330473.000000
331299.000000
332146.000000
332965.000000
333708.000000
334421.000000
335189.000000
336089.000000
336903.000000
337664.000000
338486.000000
339362.000000
340126.000000
340883.000000
341702.000000
342536.000000
343284.000000
344034.000000
344840.000000
345711.000000
346552.000000
347388.000000
348174.000000
348896.000000
349609.000000
350375.000000
351213.000000
352025.000000
352839.000000
353603.000000
354335.000000
355092.000000
355978.000000
356830.000000
357583.000000
358311.000000
359120.000000
359979.000000
360830.000000
361621.000000
362349.000000
363090.000000
363865.000000
364735.000000
365477.000000
366213.000000
367033.000000
367866.000000
368672.000000
369390.000000
370124.000000
370928.000000
371755.000000
372487.000000
373213.000000
373994.000000
374820.000000
375680.000000
376423.000000
377148.000000
377923.000000
378765.000000
379523.000000
380253.000000
381018.000000
381843.000000
382640.000000
383371.000000
384101.000000
384904.000000
385764.000000
386514.000000
387246.000000
388003.000000
388852.000000
389662.000000
390411.000000
391156.000000
391974.000000
392827.000000
393594.000000
394336.000000
395116.000000
395963.000000
396745.000000
397473.000000
398219.000000
399038.000000
399812.000000
400538.000000
401316.000000
402148.000000
402942.000000
403673.000000
404439.000000
405227.000000
405999.000000
406731.000000
407482.000000
408334.000000
409127.000000
409861.000000
410617.000000
411437.000000
412215.000000
412931.000000
413647.000000
414405.000000
415184.000000
415916.000000
416658.000000
417500.000000
418351.000000
419103.000000
419817.000000
420572.000000
421375.000000
422135.000000
422857.000000
423635.000000
424457.000000
425203.000000
425932.000000
426774.000000
427629.000000
428387.000000
429131.000000
429930.000000
430739.000000
431492.000000
432214.000000
432999.000000
433862.000000
434669.000000
435415.000000
436185.000000
436977.000000
437737.000000
438468.000000
439246.000000
440088.000000
440847.000000
441579.000000
442355.000000
443199.000000
443985.000000
444734.000000
445530.000000
446355.000000
447150.000000
447899.000000
448680.000000
449528.000000
450301.000000
451039.000000
451826.000000
452643.000000
453472.000000
454235.000000
454978.000000
455747.000000
456560.000000
457306.000000
458028.000000
458829.000000
459669.000000
460462.000000
461218.000000
462003.000000
462829.000000
463652.000000
464399.000000
465131.000000
465902.000000
466748.000000
467561.000000
468315.000000
469033.000000
469767.000000
470593.000000
471427.000000
472169.000000
472900.000000
473681.000000
474518.000000
475290.000000
476069.000000
476976.000000
477902.000000
478705.000000
479484.000000
480282.000000
481096.000000
481863.000000
482610.000000
483417.000000
484297.000000
485044.000000
485812.000000
486615.000000
487458.000000
488213.000000
488972.000000
489768.000000
490581.000000
491330.000000
492066.000000
492828.000000
493549.000000
494259.000000
494927.000000
495571.000000
496215.000000
496875.000000
497562.000000
498274.000000
498958.000000
499672.000000
500419.000000
501211.000000
501945.000000
502641.000000
503351.000000
504148.000000
504952.000000
505677.000000
506386.000000
507139.000000
507939.000000
508723.000000
509458.000000
510208.000000
511035.000000
511866.000000
512611.000000
513344.000000
514112.000000
514973.000000
515812.000000
516582.000000
517361.000000
518313.000000
519171.000000
519943.000000
520740.000000
521534.000000
522302.000000
523039.000000
523821.000000
524683.000000
525646.000000
526454.000000
527256.000000
528145.000000
528997.000000
529780.000000
530614.000000
531484.000000
532289.000000
533080.000000
533905.000000
534824.000000
535741.000000
536563.000000
537352.000000
538145.000000
538945.000000
539822.000000
540698.000000
541478.000000
542239.000000
543058.000000
543911.000000
544816.000000
545706.000000
546506.000000
547266.000000
548024.000000
548890.000000
549862.000000
550709.000000
551482.000000
552257.000000
553084.000000
554019.000000
554824.000000
555615.000000
556455.000000
557335.000000
558156.000000
558937.000000
559751.000000
560615.000000
561394.000000
562151.000000
562953.000000
563809.000000
564767.000000
565610.000000
566372.000000
567166.000000
567955.000000
568749.000000
569498.000000
570224.000000
570993.000000
571781.000000
572614.000000
573362.000000
574114.000000
574958.000000
575806.000000
576625.000000
577369.000000
578140.000000
578977.000000
579800.000000
580548.000000
581342.000000
582265.000000
583140.000000
583927.000000
584751.000000
585598.000000
586393.000000
587156.000000
587972.000000
588947.000000
589877.000000
590670.000000
591476.000000
592294.000000
593104.000000
593858.000000
594641.000000
595502.000000
596509.000000
597399.000000
598306.000000
599184.000000
600024.000000
600785.000000
601553.000000
602330.000000
603119.000000
603863.000000
604653.000000
605499.000000
606266.000000
607054.000000
607936.000000
608839.000000
609626.000000
610430.000000
611271.000000
612058.000000
612791.000000
613554.000000
614371.000000
615106.000000
615823.000000
616566.000000
617273.000000
617935.000000
618677.000000
619418.000000
620126.000000
620866.000000
621646.000000
622394.000000
623124.000000
623895.000000
624675.000000
625411.000000
626131.000000
626914.000000
627759.000000
628522.000000
629258.000000
630025.000000
630808.000000
631543.000000
632232.000000
632924.000000
633671.000000
634734.000000
635625.000000
636447.000000
637270.000000
638036.000000
638817.000000
639619.000000
640450.000000
641299.000000
642078.000000
642866.000000
643698.000000
644533.000000
645321.000000
646096.000000
646907.000000
647731.000000
648498.000000
649247.000000
650066.000000
650891.000000
651658.000000
652423.000000
653248.000000
654085.000000
654857.000000
655645.000000
656465.000000
657225.000000
657976.000000
658772.000000
659606.000000
660394.000000
661134.000000
661929.000000
662767.000000
663692.000000
664549.000000
665448.000000
666306.000000
667072.000000
667807.000000
668561.000000
669385.000000
670170.000000
670941.000000
671742.000000
672517.000000
673261.000000
673987.000000
674769.000000
675626.000000
676358.000000
677105.000000
677895.000000
678760.000000
679608.000000
680398.000000
681141.000000
681934.000000
682815.000000
683619.000000
684376.000000
685178.000000
685999.000000
686818.000000
687573.000000
688363.000000
689188.000000
690005.000000
690760.000000
691531.000000
692359.000000
693155.000000
693909.000000
694714.000000
695539.000000
696297.000000
697039.000000
697806.000000
698623.000000
699403.000000
700150.000000
700977.000000
701783.000000
702535.000000
703304.000000
704121.000000
704944.000000
705711.000000
706487.000000
707320.000000
708239.000000
709115.000000
709899.000000
710663.000000
711419.000000
712189.000000
712927.000000
713690.000000
714524.000000
715318.000000
716055.000000
716822.000000
717642.000000
718433.000000
719175.000000
719932.000000
720729.000000
721513.000000
722236.000000
722959.000000
723717.000000
724488.000000
725213.000000
725917.000000
726691.000000
727503.000000
728275.000000
729026.000000
729817.000000
730643.000000
731389.000000
732115.000000
732866.000000
733685.000000
734547.000000
735305.000000
736031.000000
736788.000000
737642.000000
738548.000000
739437.000000
740224.000000
741001.000000
741810.000000
742628.000000
743400.000000
744180.000000
744999.000000
745866.000000
746689.000000
747588.000000
748556.000000
749450.000000
750259.000000
751079.000000
751978.000000
752820.000000
753598.000000
754413.000000
755215.000000
755959.000000
756688.000000
757521.000000
758423.000000
759221.000000
760007.000000
760877.000000
761753.000000
762508.000000
763270.000000
764047.000000
764879.000000
765652.000000
766488.000000
767390.000000
768264.000000
769117.000000
770082.000000
771026.000000
771878.000000
772633.000000
773338.000000
773981.000000
774668.000000
775411.000000
776520.000000
777586.000000
778433.000000
779205.000000
779980.000000
780817.000000
781553.000000
782275.000000
783025.000000
783897.000000
784718.000000
785464.000000
786213.000000
787045.000000
787874.000000
788672.000000
789416.000000
790174.000000
791020.000000
791840.000000
792581.000000
793302.000000
794084.000000
794921.000000
795733.000000
796484.000000
797278.000000
798153.000000
798969.000000
799835.000000
800724.000000
801554.000000
802306.000000
803075.000000
803890.000000
804707.000000
805471.000000
806313.000000
807286.000000
808128.000000
808949.000000
809761.000000
810575.000000
811342.000000
812141.000000
812961.000000
813740.000000
814477.000000
815271.000000
816404.000000
817334.000000
818117.000000
818907.000000
819700.000000
820535.000000
821294.000000
822051.000000
822884.000000
823992.000000
824867.000000
825685.000000
826436.000000
827119.000000
827783.000000
828436.000000
829108.000000
830263.000000
831125.000000
831832.000000
832497.000000
833151.000000
833814.000000
834518.000000
835281.000000
836051.000000
836762.000000
837491.000000
838264.000000
839042.000000
839796.000000
840547.000000
841390.000000
842229.000000
843013.000000
843750.000000
844541.000000
845415.000000
846334.000000
847167.000000
847994.000000
848742.000000
849429.000000
850123.000000
850900.000000
851705.000000
852482.000000
853389.000000
854322.000000
855119.000000
855935.000000
856757.000000
857544.000000
858270.000000
859002.000000
859801.000000
860639.000000
861401.000000
862156.000000
862985.000000
863746.000000
864472.000000
865256.000000
866065.000000
866809.000000
867525.000000
868281.000000
869062.000000
869845.000000
870568.000000
871327.000000
872117.000000
872861.000000
873585.000000
874344.000000
875166.000000
875943.000000
876676.000000
877460.000000
878279.000000
879077.000000
879806.000000
880525.000000
881317.000000
882131.000000
882904.000000
883636.000000
884408.000000
885240.000000
886090.000000
886877.000000
887601.000000
888324.000000
889079.000000
889859.000000
890606.000000
891336.000000
892135.000000
893010.000000
893814.000000
894556.000000
895332.000000
896175.000000
897031.000000
897798.000000
898538.000000
899311.000000
900126.000000
900870.000000
901615.000000
902429.000000
903323.000000
904116.000000
904891.000000
905694.000000
906468.000000
907200.000000
907979.000000
908829.000000
909600.000000
910332.000000
911105.000000
911975.000000
912757.000000
913493.000000
914276.000000
915107.000000
915857.000000
916597.000000
917403.000000
918334.000000
919141.000000
919985.000000
920886.000000
921750.000000
922519.000000
923324.000000
924168.000000
924949.000000
925721.000000
926552.000000
927418.000000
928203.000000
928962.000000
929805.000000
930737.000000
931572.000000
932374.000000
933213.000000
934097.000000
934897.000000
935680.000000
936534.000000
937421.000000
938208.000000
939048.000000
939913.000000
940804.000000
941565.000000
942308.000000
943022.000000
943697.000000
944349.000000
945022.000000
945755.000000
946897.000000
947817.000000
948573.000000
949328.000000
950120.000000
950868.000000
951588.000000
952371.000000
953332.000000
954239.000000
955057.000000
955920.000000
956841.000000
957667.000000
958444.000000
959301.000000
960284.000000
961127.000000
961967.000000
962857.000000
963745.000000
964530.000000
965324.000000
966154.000000
967092.000000
967916.000000
968947.000000
969962.000000
970900.000000
971750.000000
972606.000000
973443.000000
974209.000000
974957.000000
975789.000000
976676.000000
977485.000000
978301.000000
979349.000000
980366.000000
981236.000000
982012.000000
982783.000000
983617.000000
984447.000000
985202.000000
986029.000000
987077.000000
987962.000000
988755.000000
989626.000000
990460.000000
991275.000000
992035.000000
992882.000000
993888.000000
994808.000000
995616.000000
996427.000000
997268.000000
998043.000000
998804.000000
999671.000000
1000783.000000
1001647.000000
1002475.000000
1003313.000000
1004195.000000
1005011.000000
1005863.000000
1006970.000000
1007904.000000
1008767.000000
1009641.000000
1010544.000000
1011357.000000
1012165.000000
1013034.000000
1013947.000000
1014813.000000
1015642.000000
1016515.000000
1017434.000000
1018297.000000
1019092.000000
1019906.000000
1020758.000000
1021533.000000
1022323.000000
1023262.000000
1024191.000000
1024995.000000
1025819.000000
1026661.000000
1027476.000000
1028269.000000
1029141.000000
1030156.000000
1030983.000000
1031869.000000
1032833.000000
1033703.000000
1034554.000000
1035463.000000
1036471.000000
1037306.000000
1038155.000000
1039126.000000
1040100.000000
1040965.000000
1041912.000000
1042914.000000
1043829.000000
1044559.000000
1045245.000000
1046022.000000
1046847.000000
1047831.000000
1048680.000000
1049471.000000
1050357.000000
1051240.000000
1052012.000000
1052750.000000
1053481.000000
1054174.000000
1054835.000000
1055477.000000
1056121.000000
1056792.000000
1057530.000000
1058243.000000
1058912.000000
1059611.000000
1060336.000000
1061068.000000
1061796.000000
1062496.000000
1063166.000000
1063860.000000
1064562.000000
1065276.000000
1065952.000000
1066623.000000
1067299.000000
1068001.000000
1068721.000000
1069423.000000
1070096.000000
1070781.000000
1071493.000000
1072238.000000
1072985.000000
1073679.000000
1074369.000000
1075088.000000
1075851.000000
1076610.000000
1077399.000000
1078112.000000
1078795.000000
1079522.000000
1080270.000000
1081054.000000
1081773.000000
1082496.000000
1083334.000000
1084230.000000
1085036.000000
1085787.000000
1086556.000000
1087349.000000
1088134.000000
1088869.000000
1089611.000000
1090494.000000
1091489.000000
1092314.000000
1093155.000000
1094047.000000
1094846.000000
1095622.000000
1096438.000000
1097393.000000
1098388.000000
1099227.000000
1100002.000000
1100791.000000
1101660.000000
1102499.000000
1103286.000000
1104171.000000
1105198.000000
1106046.000000
1106896.000000
1107808.000000
1108668.000000
1109445.000000
1110287.000000
1111292.000000
1112132.000000
1112960.000000
1114019.000000
1114948.000000
1115785.000000
1116680.000000
1117587.000000
1118381.000000
1119171.000000
1120077.000000
1121089.000000
1121943.000000
1122835.000000
1123740.000000
1124526.000000
1125294.000000
1126098.000000
1126936.000000
1127706.000000
1128481.000000
1129434.000000
1130419.000000
1131216.000000
1132044.000000
1132922.000000
1133692.000000
1134390.000000
1135116.000000
1136005.000000
1136806.000000
1137566.000000
1138282.000000
1138945.000000
1139604.000000
1140278.000000
1141019.000000
1141815.000000
1142551.000000
1143253.000000
1143965.000000
1144704.000000
1145474.000000
1146212.000000
1146901.000000
1147576.000000
1148258.000000
1149494.000000
1150500.000000
1151409.000000
1152260.000000
1153057.000000
1153792.000000
1154544.000000
1155387.000000
1156264.000000
1157030.000000
1157893.000000
1158825.000000
1159741.000000
1160601.000000
1161485.000000
1162347.000000
1163129.000000
1163917.000000
1164749.000000
1165688.000000
1166534.000000
1167358.000000
1168313.000000
1169272.000000
1170099.000000
1170952.000000
1171917.000000
1172823.000000
1173714.000000
1174641.000000
1175486.000000
1176264.000000
1177084.000000
1178023.000000
1178841.000000
1179676.000000
1180576.000000
1181466.000000
1182269.000000
1183174.000000
1184110.000000
1184954.000000
1185752.000000
1186565.000000
1187430.000000
1188236.000000
1189072.000000
1189970.000000
1190840.000000
1191671.000000
1192520.000000
1193385.000000
1194193.000000
1194993.000000
1195920.000000
1196890.000000
1197742.000000
1198537.000000
1199343.000000
1200166.000000
1200953.000000
1201780.000000
1202959.000000
1204015.000000
1204904.000000
1205803.000000
1206746.000000
1207648.000000
1208497.000000
1209336.000000
1210144.000000
1210984.000000
1211844.000000
1212790.000000
1213685.000000
1214519.000000
1215405.000000
1216403.000000
1217248.000000
1218060.000000
1218889.000000
1219701.000000
1220513.000000
1221422.000000
1222360.000000
1223149.000000
1223994.000000
1224994.000000
1225802.000000
