ECG (ms)
477.000000
1312.000000
2097.000000
2884.000000
3682.000000
4496.000000
5278.000000
6067.000000
6874.000000
7640.000000
8434.000000
9266.000000
10051.000000
10830.000000
11629.000000
12417.000000
13173.000000
13957.000000
14723.000000
15468.000000
16226.000000
16979.000000
17719.000000
18441.000000
19161.000000
19889.000000
20631.000000
21409.000000
22210.000000
22987.000000
23815.000000
24589.000000
25375.000000
26183.000000
26932.000000
27682.000000
28431.000000
29148.000000
29841.000000
30538.000000
31246.000000
31990.000000
32720.000000
33469.000000
34262.000000
35033.000000
35810.000000
36604.000000
37427.000000
38192.000000
38962.000000
39738.000000
40537.000000
41297.000000
42062.000000
42867.000000
43705.000000
44491.000000
45282.000000
46106.000000
46901.000000
47672.000000
48472.000000
49302.000000
50072.000000
50840.000000
51624.000000
52368.000000
53112.000000
53868.000000
54651.000000
55390.000000
56129.000000
56876.000000
57648.000000
58415.000000
59166.000000
59940.000000
60727.000000
61477.000000
62240.000000
63023.000000
63755.000000
64503.000000
65276.000000
66012.000000
66763.000000
67537.000000
68294.000000
69037.000000
69797.000000
70582.000000
71320.000000
72078.000000
72844.000000
73581.000000
74331.000000
75110.000000
75845.000000
76601.000000
77384.000000
78130.000000
78891.000000
79674.000000
80413.000000
81175.000000
81962.000000
82712.000000
83483.000000
84269.000000
85023.000000
85787.000000
86568.000000
87328.000000
88078.000000
88831.000000
89591.000000
90332.000000
91080.000000
91850.000000
92653.000000
93416.000000
94198.000000
94992.000000
95751.000000
96524.000000
97313.000000
98069.000000
98836.000000
99611.000000
100383.000000
101133.000000
101888.000000
102664.000000
103403.000000
104154.000000
104913.000000
105686.000000
106481.000000
107239.000000
107997.000000
108754.000000
109483.000000
110228.000000
110987.000000
111737.000000
112503.000000
113307.000000
114108.000000
114901.000000
115717.000000
116511.000000
117284.000000
118069.000000
118828.000000
119577.000000
120334.000000
121089.000000
121833.000000
122603.000000
123400.000000
124160.000000
124948.000000
125756.000000
126514.000000
127245.000000
127992.000000
128759.000000
129500.000000
130259.000000
131049.000000
131820.000000
132604.000000
133434.000000
134223.000000
135015.000000
135818.000000
136604.000000
137373.000000
138154.000000
138945.000000
139700.000000
140466.000000
141254.000000
142017.000000
142789.000000
143590.000000
144386.000000
145167.000000
145966.000000
146751.000000
147514.000000
148284.000000
149062.000000
149820.000000
150577.000000
151346.000000
152133.000000
152883.000000
153644.000000
154429.000000
155179.000000
155933.000000
156714.000000
157472.000000
158222.000000
158996.000000
159786.000000
160543.000000
161306.000000
162076.000000
162811.000000
163555.000000
164313.000000
165055.000000
165763.000000
166460.000000
167163.000000
167885.000000
168598.000000
169323.000000
170056.000000
170781.000000
171499.000000
172234.000000
172978.000000
173698.000000
174440.000000
175202.000000
175944.000000
176706.000000
177489.000000
178230.000000
178988.000000
179743.000000
180477.000000
181231.000000
181996.000000
182736.000000
183497.000000
184288.000000
185038.000000
185798.000000
186581.000000
187324.000000
188080.000000
188853.000000
189606.000000
190356.000000
191116.000000
191879.000000
192621.000000
193375.000000
194152.000000
194889.000000
195634.000000
196388.000000
197116.000000
197853.000000
198606.000000
199336.000000
200081.000000
200845.000000
201580.000000
202344.000000
203102.000000
203846.000000
204606.000000
205370.000000
206115.000000
206861.000000
207613.000000
208378.000000
209124.000000
209862.000000
210600.000000
211351.000000
212071.000000
212795.000000
213523.000000
214250.000000
214955.000000
215666.000000
216389.000000
217090.000000
217796.000000
218509.000000
219212.000000
219912.000000
220615.000000
221298.000000
221981.000000
222663.000000
223358.000000
224067.000000
224790.000000
225498.000000
226225.000000
226979.000000
227711.000000
228454.000000
229221.000000
229959.000000
230698.000000
231453.000000
232201.000000
232933.000000
233681.000000
234454.000000
235200.000000
235904.000000
236605.000000
237314.000000
238038.000000
238779.000000
239525.000000
240295.000000
241079.000000
241851.000000
242659.000000
243484.000000
244270.000000
245099.000000
245894.000000
246683.000000
247464.000000
248236.000000
249016.000000
249818.000000
250623.000000
251405.000000
252171.000000
252945.000000
253735.000000
254511.000000
255297.000000
256127.000000
257003.000000
257849.000000
258732.000000
259642.000000
260553.000000
261415.000000
262281.000000
263138.000000
263950.000000
264757.000000
265513.000000
266241.000000
266970.000000
267689.000000
268413.000000
269143.000000
269905.000000
270642.000000
271381.000000
272132.000000
272902.000000
273630.000000
274364.000000
275084.000000
275810.000000
276559.000000
277375.000000
278220.000000
279048.000000
279844.000000
280623.000000
281375.000000
282134.000000
282880.000000
283629.000000
284404.000000
285216.000000
286016.000000
286815.000000
287649.000000
288470.000000
289241.000000
289972.000000
290709.000000
291449.000000
292200.000000
292945.000000
293697.000000
294467.000000
295234.000000
295985.000000
296758.000000
297504.000000
298244.000000
298987.000000
299734.000000
300494.000000
301237.000000
301990.000000
302750.000000
303481.000000
304226.000000
304981.000000
305706.000000
306449.000000
307199.000000
307936.000000
308671.000000
309411.000000
310160.000000
310880.000000
311607.000000
312331.000000
313037.000000
313723.000000
314414.000000
315092.000000
315779.000000
316467.000000
317169.000000
317861.000000
318561.000000
319274.000000
319982.000000
320688.000000
321404.000000
322134.000000
322886.000000
323616.000000
324356.000000
325108.000000
325845.000000
326588.000000
327342.000000
328084.000000
328811.000000
329549.000000
330289.000000
331002.000000
331721.000000
332452.000000
333159.000000
333876.000000
334596.000000
335326.000000
336035.000000
336754.000000
337483.000000
338205.000000
338918.000000
339635.000000
340362.000000
341065.000000
341777.000000
342472.000000
343166.000000
343856.000000
344555.000000
345265.000000
345996.000000
346708.000000
347440.000000
348197.000000
348930.000000
349672.000000
350422.000000
351162.000000
351883.000000
352607.000000
353332.000000
354041.000000
354760.000000
355468.000000
356157.000000
356864.000000
357559.000000
358262.000000
358982.000000
359727.000000
360485.000000
361223.000000
361969.000000
362717.000000
363467.000000
364233.000000
365041.000000
365845.000000
366635.000000
367404.000000
368143.000000
368892.000000
369615.000000
370329.000000
371051.000000
371769.000000
372514.000000
373282.000000
374078.000000
374851.000000
375664.000000
376500.000000
377281.000000
378082.000000
378893.000000
379657.000000
380428.000000
381204.000000
381961.000000
382704.000000
383450.000000
384207.000000
384927.000000
385664.000000
386403.000000
387113.000000
387835.000000
388535.000000
389227.000000
389929.000000
390623.000000
391330.000000
392065.000000
392781.000000
393506.000000
394245.000000
395000.000000
395721.000000
396449.000000
397172.000000
397898.000000
398612.000000
399317.000000
400024.000000
400741.000000
401446.000000
402166.000000
402896.000000
403647.000000
404377.000000
405125.000000
405894.000000
406621.000000
407361.000000
408108.000000
408835.000000
409563.000000
410288.000000
411002.000000
411717.000000
412421.000000
413144.000000
413887.000000
414624.000000
415380.000000
416181.000000
416956.000000
417758.000000
418584.000000
419361.000000
420126.000000
420853.000000
421583.000000
422307.000000
423031.000000
423734.000000
424440.000000
425154.000000
425891.000000
426634.000000
427355.000000
428045.000000
428740.000000
429438.000000
430159.000000
430880.000000
431610.000000
432352.000000
432939.000000
433958.000000
434716.000000
435478.000000
436255.000000
437012.000000
437751.000000
438501.000000
439260.000000
439988.000000
440728.000000
441477.000000
442217.000000
442960.000000
443722.000000
444502.000000
445250.000000
446017.000000
446794.000000
447532.000000
448288.000000
449062.000000
449817.000000
450563.000000
451327.000000
452109.000000
452855.000000
453616.000000
454372.000000
455107.000000
455853.000000
456583.000000
457316.000000
458055.000000
458807.000000
459562.000000
460312.000000
461079.000000
461868.000000
462615.000000
463381.000000
464165.000000
464913.000000
465672.000000
466438.000000
467211.000000
467951.000000
468706.000000
469482.000000
470229.000000
470989.000000
471762.000000
472547.000000
473297.000000
474055.000000
474824.000000
475559.000000
476308.000000
477063.000000
477801.000000
478540.000000
479289.000000
480046.000000
480767.000000
481508.000000
482265.000000
482997.000000
483750.000000
484509.000000
485246.000000
485990.000000
486705.000000
487428.000000
488142.000000
488868.000000
489613.000000
490356.000000
491089.000000
491833.000000
492594.000000
493319.000000
494046.000000
494760.000000
495473.000000
496210.000000
496982.000000
497745.000000
498490.000000
499206.000000
499925.000000
500633.000000
501331.000000
502036.000000
502752.000000
503490.000000
504217.000000
504965.000000
505696.000000
506439.000000
507201.000000
507965.000000
508741.000000
509537.000000
510338.000000
511107.000000
511901.000000
512709.000000
513465.000000
514242.000000
515018.000000
515787.000000
516544.000000
517305.000000
518087.000000
518842.000000
519623.000000
520414.000000
521196.000000
521961.000000
522732.000000
523508.000000
524248.000000
525000.000000
525754.000000
526486.000000
527205.000000
527933.000000
528673.000000
529389.000000
530109.000000
530828.000000
531524.000000
532232.000000
532957.000000
533674.000000
534403.000000
535139.000000
535855.000000
536589.000000
537333.000000
538053.000000
538790.000000
539548.000000
540298.000000
541042.000000
541788.000000
542566.000000
543364.000000
544147.000000
544888.000000
545590.000000
546293.000000
546993.000000
547701.000000
548402.000000
549127.000000
549878.000000
550611.000000
551367.000000
552147.000000
552942.000000
553732.000000
554482.000000
555228.000000
555972.000000
556702.000000
557417.000000
558143.000000
558881.000000
559603.000000
560342.000000
561098.000000
561845.000000
562582.000000
563332.000000
564089.000000
564821.000000
565565.000000
566310.000000
567031.000000
567751.000000
568463.000000
569153.000000
569860.000000
570556.000000
571265.000000
571987.000000
572712.000000
573438.000000
574184.000000
574944.000000
575681.000000
576428.000000
577191.000000
577937.000000
578668.000000
579407.000000
580151.000000
580871.000000
581597.000000
582323.000000
583037.000000
583760.000000
584492.000000
585208.000000
585931.000000
586656.000000
587384.000000
588112.000000
588834.000000
589537.000000
590264.000000
590981.000000
591703.000000
592446.000000
593227.000000
593992.000000
594751.000000
595534.000000
596344.000000
597109.000000
597892.000000
598682.000000
599430.000000
600185.000000
600953.000000
601711.000000
602451.000000
603194.000000
603940.000000
604691.000000
605417.000000
606137.000000
606861.000000
607591.000000
608330.000000
609102.000000
609880.000000
610646.000000
611409.000000
612151.000000
612892.000000
613618.000000
614317.000000
615018.000000
615747.000000
616513.000000
617310.000000
618101.000000
618910.000000
619752.000000
620615.000000
621425.000000
622240.000000
623069.000000
623897.000000
624674.000000
625463.000000
626263.000000
627053.000000
627840.000000
628665.000000
629461.000000
630250.000000
631071.000000
631909.000000
632695.000000
633485.000000
634282.000000
635037.000000
635794.000000
636558.000000
637304.000000
638020.000000
638738.000000
639469.000000
640213.000000
640949.000000
641711.000000
642491.000000
643256.000000
644022.000000
644818.000000
645634.000000
646414.000000
647223.000000
648029.000000
648798.000000
649591.000000
650403.000000
651170.000000
651955.000000
652746.000000
653508.000000
654298.000000
655071.000000
655819.000000
656557.000000
657301.000000
658066.000000
658879.000000
659695.000000
660462.000000
661233.000000
661994.000000
662723.000000
663461.000000
664201.000000
664923.000000
665659.000000
666396.000000
667129.000000
667835.000000
668550.000000
669249.000000
669958.000000
670678.000000
671427.000000
672148.000000
672879.000000
673624.000000
674354.000000
675088.000000
675843.000000
676581.000000
677314.000000
678053.000000
678793.000000
679543.000000
680274.000000
681009.000000
681749.000000
682501.000000
683254.000000
684068.000000
684906.000000
685735.000000
686543.000000
687310.000000
688066.000000
688808.000000
689546.000000
690284.000000
691025.000000
691755.000000
692494.000000
693244.000000
694006.000000
694772.000000
695551.000000
696299.000000
697057.000000
697847.000000
698663.000000
699484.000000
700310.000000
701152.000000
702000.000000
702807.000000
703607.000000
704402.000000
705206.000000
705995.000000
706758.000000
707537.000000
708322.000000
709105.000000
709848.000000
710593.000000
711328.000000
712057.000000
712794.000000
713537.000000
714265.000000
715005.000000
715745.000000
716466.000000
717198.000000
717932.000000
718664.000000
719379.000000
720107.000000
720837.000000
721547.000000
722260.000000
722948.000000
723652.000000
724357.000000
725057.000000
725757.000000
726470.000000
727193.000000
727898.000000
728615.000000
729334.000000
730063.000000
730781.000000
731493.000000
732197.000000
732902.000000
733614.000000
734310.000000
735007.000000
735708.000000
736405.000000
737100.000000
737802.000000
738517.000000
739225.000000
739929.000000
740633.000000
741348.000000
742078.000000
742809.000000
743530.000000
744235.000000
744938.000000
745647.000000
746369.000000
747091.000000
747809.000000
748513.000000
749220.000000
749940.000000
750637.000000
751342.000000
752048.000000
752744.000000
753454.000000
754182.000000
754931.000000
755685.000000
756475.000000
757239.000000
758036.000000
758845.000000
759617.000000
760396.000000
761183.000000
761939.000000
762702.000000
763476.000000
764263.000000
765016.000000
765792.000000
766582.000000
767346.000000
768137.000000
768940.000000
769704.000000
770475.000000
771254.000000
772036.000000
772784.000000
773532.000000
774252.000000
774968.000000
775658.000000
776364.000000
777090.000000
777842.000000
778579.000000
779340.000000
780137.000000
780888.000000
781646.000000
782413.000000
783204.000000
783993.000000
784746.000000
785504.000000
786255.000000
786991.000000
787722.000000
788458.000000
789204.000000
789935.000000
790680.000000
791449.000000
792185.000000
792932.000000
793699.000000
794482.000000
795225.000000
795983.000000
796752.000000
797488.000000
798232.000000
798979.000000
799693.000000
800407.000000
801121.000000
801848.000000
802552.000000
803273.000000
804000.000000
804730.000000
805434.000000
806122.000000
806808.000000
807499.000000
808202.000000
808943.000000
809661.000000
810387.000000
811132.000000
811897.000000
812633.000000
813378.000000
814141.000000
814903.000000
815648.000000
816414.000000
817189.000000
817927.000000
818678.000000
819435.000000
820176.000000
820915.000000
821648.000000
822385.000000
823138.000000
823930.000000
824748.000000
825553.000000
826331.000000
827090.000000
827829.000000
828566.000000
829281.000000
830013.000000
830755.000000
831516.000000
832304.000000
833060.000000
833845.000000
834670.000000
835479.000000
836329.000000
837212.000000
838039.000000
838865.000000
839684.000000
840501.000000
841270.000000
842045.000000
842814.000000
843575.000000
844314.000000
845062.000000
845809.000000
846565.000000
847301.000000
848042.000000
848794.000000
849550.000000
850297.000000
851035.000000
851783.000000
852532.000000
853272.000000
854003.000000
854741.000000
855479.000000
856185.000000
856898.000000
857622.000000
858372.000000
859143.000000
859916.000000
860679.000000
861427.000000
862174.000000
862923.000000
863674.000000
864437.000000
865206.000000
865954.000000
866709.000000
867464.000000
868225.000000
868981.000000
869747.000000
870513.000000
871253.000000
872004.000000
872758.000000
873514.000000
874270.000000
875013.000000
875777.000000
876549.000000
877327.000000
878093.000000
878869.000000
879664.000000
880469.000000
881244.000000
882030.000000
882813.000000
883584.000000
884331.000000
885070.000000
885808.000000
886545.000000
887265.000000
887980.000000
888692.000000
889402.000000
890125.000000
890842.000000
891545.000000
892259.000000
892983.000000
893709.000000
894422.000000
895145.000000
895876.000000
896633.000000
897416.000000
898226.000000
899010.000000
899837.000000
900670.000000
901489.000000
902291.000000
903106.000000
903922.000000
904740.000000
905515.000000
906294.000000
907076.000000
907838.000000
908603.000000
909382.000000
910171.000000
910958.000000
911712.000000
912475.000000
913243.000000
914018.000000
914778.000000
915549.000000
916327.000000
917116.000000
917883.000000
918660.000000
919465.000000
920265.000000
921058.000000
921812.000000
922570.000000
923324.000000
924058.000000
924778.000000
925498.000000
926193.000000
926908.000000
927623.000000
928344.000000
929081.000000
929844.000000
930597.000000
931342.000000
932108.000000
932892.000000
933644.000000
934400.000000
935172.000000
935952.000000
936705.000000
937470.000000
938238.000000
938982.000000
939734.000000
940499.000000
941252.000000
942002.000000
942762.000000
943530.000000
944294.000000
945043.000000
945791.000000
946537.000000
947261.000000
947999.000000
948751.000000
949501.000000
950252.000000
951019.000000
951765.000000
952507.000000
953263.000000
954014.000000
954721.000000
955418.000000
956116.000000
956832.000000
957545.000000
958270.000000
959010.000000
959743.000000
960480.000000
961224.000000
961972.000000
962696.000000
963427.000000
964169.000000
964884.000000
965609.000000
966351.000000
967083.000000
967818.000000
968562.000000
969335.000000
970128.000000
970885.000000
971657.000000
972423.000000
973195.000000
973968.000000
974757.000000
975585.000000
976421.000000
977230.000000
978022.000000
978794.000000
979538.000000
980271.000000
981023.000000
981825.000000
982687.000000
983579.000000
984421.000000
985287.000000
986184.000000
987078.000000
987913.000000
988761.000000
989410.000000
990403.000000
991194.000000
991966.000000
992770.000000
993584.000000
994417.000000
995318.000000
996167.000000
997001.000000
997860.000000
998745.000000
999634.000000
1000494.000000
1001343.000000
1002217.000000
1003046.000000
1003866.000000
1004700.000000
1005520.000000
1006307.000000
1007110.000000
1007912.000000
1008695.000000
1009464.000000
1010237.000000
1011009.000000
1011756.000000
1012509.000000
1013250.000000
1013975.000000
1014702.000000
1015417.000000
1016124.000000
1016860.000000
1017637.000000
1018414.000000
1019175.000000
1019955.000000
1020762.000000
1021544.000000
1022321.000000
1023094.000000
1023837.000000
1024578.000000
1025319.000000
1026084.000000
1026869.000000
1027625.000000
1028384.000000
1029132.000000
1029891.000000
1030682.000000
1031483.000000
1032275.000000
1033042.000000
1033818.000000
1034593.000000
1035338.000000
1036111.000000
1036905.000000
1037682.000000
1038495.000000
1039280.000000
1040038.000000
1040795.000000
1041558.000000
1042340.000000
1043145.000000
1043921.000000
1044702.000000
1045496.000000
1046294.000000
1047070.000000
1047852.000000
1048663.000000
1049507.000000
1050316.000000
1051104.000000
1051899.000000
1052690.000000
1053485.000000
1054241.000000
1055006.000000
1055782.000000
1056543.000000
1057310.000000
1058114.000000
1058915.000000
1059713.000000
1060521.000000
1061357.000000
1062189.000000
1062967.000000
1063736.000000
1064499.000000
1065248.000000
1065981.000000
1066727.000000
1067489.000000
1068225.000000
1068944.000000
1069667.000000
1070393.000000
1071132.000000
1071911.000000
1072705.000000
1073472.000000
1074261.000000
1075051.000000
1075832.000000
1076600.000000
1077375.000000
1078166.000000
1078922.000000
1079690.000000
1080471.000000
1081247.000000
1082004.000000
1082776.000000
1083552.000000
1084295.000000
1085044.000000
1085802.000000
1086574.000000
1087345.000000
1088095.000000
1088851.000000
1089616.000000
1090375.000000
1091128.000000
1091894.000000
1092672.000000
1093425.000000
1094151.000000
1094875.000000
1095606.000000
1096350.000000
1097099.000000
1097835.000000
1098585.000000
1099360.000000
1100131.000000
1100872.000000
1101619.000000
1102365.000000
1103120.000000
1103856.000000
1104611.000000
1105379.000000
1106128.000000
1106881.000000
1107650.000000
1108435.000000
1109198.000000
1109982.000000
1110773.000000
1111523.000000
1112278.000000
1113036.000000
1113788.000000
1114540.000000
1115306.000000
1116067.000000
1116828.000000
1117621.000000
1118429.000000
1119202.000000
1119994.000000
1120796.000000
1121558.000000
1122336.000000
1123136.000000
1123897.000000
1124678.000000
1125470.000000
1126246.000000
1127014.000000
1127780.000000
1128545.000000
1129316.000000
1130050.000000
1130766.000000
1131462.000000
1132156.000000
1132863.000000
1133566.000000
1134276.000000
1135012.000000
1135742.000000
1136503.000000
1137295.000000
1138146.000000
1138988.000000
1139779.000000
1140594.000000
1141387.000000
1142179.000000
1143010.000000
1143833.000000
1144601.000000
1145381.000000
1146153.000000
1146902.000000
1147666.000000
1148466.000000
1149262.000000
1150065.000000
1150874.000000
1151699.000000
1152527.000000
1153343.000000
1154152.000000
1154918.000000
1155671.000000
1156400.000000
1157134.000000
1157879.000000
1158646.000000
1159387.000000
1160141.000000
1160927.000000
1161693.000000
1162479.000000
1163269.000000
1164042.000000
1164856.000000
1165683.000000
1166461.000000
1167250.000000
1168044.000000
1168792.000000
1169541.000000
1170300.000000
1171072.000000
1171827.000000
1172568.000000
1173314.000000
1174065.000000
1174784.000000
1175515.000000
1176256.000000
1176977.000000
1177718.000000
1178495.000000
1179244.000000
1180015.000000
1180798.000000
1181544.000000
1182307.000000
1183073.000000
1183814.000000
1184574.000000
1185350.000000
1186098.000000
1186864.000000
1187633.000000
1188373.000000
1189107.000000
1189827.000000
1190562.000000
1191311.000000
1192098.000000
1192864.000000
1193630.000000
1194409.000000
1195209.000000
1195969.000000
1196724.000000
1197493.000000
1198275.000000
1199031.000000
1199802.000000
1200591.000000
1201377.000000
1202136.000000
1202897.000000
1203682.000000
1204434.000000
1205202.000000
1205982.000000
1206738.000000
1207497.000000
1208262.000000
1209021.000000
1209762.000000
1210506.000000
1211257.000000
1211993.000000
1212740.000000
1213498.000000
1214243.000000
1214998.000000
1215772.000000
1216526.000000
1217288.000000
1218065.000000
1218828.000000
1219592.000000
1220349.000000
1221081.000000
1221814.000000
1222548.000000
1223296.000000
1224062.000000
1224810.000000
1225570.000000
1226350.000000
1227092.000000
1227847.000000
1228617.000000
1229364.000000
1230111.000000
1230868.000000
1231616.000000
1232363.000000
1233121.000000
1233870.000000
1234602.000000
1235339.000000
1236090.000000
1236821.000000
1237573.000000
1238352.000000
1239099.000000
1239861.000000
1240640.000000
1241399.000000
1242157.000000
1242931.000000
1243692.000000
1244439.000000
1245207.000000
1246015.000000
1246790.000000
1247585.000000
