ECG (ms)
766.000000
1965.000000
3305.000000
4477.000000
5788.000000
6987.000000
8215.000000
9342.000000
10450.000000
11651.000000
12640.000000
14044.000000
15155.000000
16404.000000
17518.000000
18722.000000
19894.000000
21063.000000
22327.000000
23479.000000
24760.000000
25885.000000
27220.000000
28346.000000
29590.000000
30790.000000
31976.000000
33192.000000
34318.000000
35595.000000
36713.000000
38061.000000
39196.000000
40518.000000
41643.000000
42894.000000
44033.000000
45207.000000
46382.000000
47447.000000
48791.000000
49857.000000
51170.000000
52351.000000
53555.000000
54731.000000
55834.000000
57022.000000
58083.000000
59296.000000
60452.000000
61671.000000
62877.000000
64074.000000
65308.000000
66400.000000
67693.000000
68790.000000
70014.000000
71171.000000
72349.000000
73525.000000
74596.000000
75802.000000
76835.000000
78078.000000
79152.000000
80225.000000
81487.000000
82485.000000
83832.000000
85017.000000
86269.000000
87486.000000
88678.000000
89937.000000
91049.000000
92328.000000
93519.000000
94731.000000
95973.000000
97119.000000
98495.000000
99649.000000
100875.000000
102060.000000
103289.000000
104617.000000
105765.000000
107126.000000
108255.000000
109495.000000
110675.000000
111739.000000
113027.000000
114084.000000
115396.000000
116578.000000
117872.000000
119071.000000
120256.000000
121563.000000
122662.000000
124000.000000
125162.000000
126497.000000
127636.000000
128914.000000
130155.000000
131319.000000
132550.000000
133527.000000
134842.000000
136032.000000
137229.000000
138579.000000
139789.000000
141150.000000
142312.000000
143601.000000
144768.000000
146034.000000
147242.000000
148413.000000
149729.000000
150862.000000
152114.000000
153128.000000
154337.000000
155583.000000
156721.000000
157965.000000
159045.000000
160322.000000
161479.000000
162649.000000
163866.000000
164994.000000
166239.000000
167317.000000
168596.000000
169699.000000
170865.000000
172078.000000
173180.000000
174425.000000
175476.000000
176667.000000
177791.000000
178861.000000
180139.000000
181179.000000
182370.000000
183469.000000
184522.000000
185691.000000
186691.000000
187955.000000
189069.000000
190241.000000
191429.000000
192519.000000
193734.000000
194822.000000
195894.000000
197215.000000
198321.000000
199591.000000
200683.000000
201905.000000
203122.000000
204199.000000
205366.000000
206519.000000
207620.000000
208929.000000
210095.000000
211130.000000
212133.000000
212973.000000
213763.000000
215229.000000
216246.000000
217425.000000
218581.000000
219735.000000
221004.000000
222024.000000
223234.000000
224310.000000
225370.000000
226613.000000
227672.000000
228904.000000
230062.000000
231236.000000
232365.000000
233365.000000
234639.000000
235829.000000
236885.000000
238035.000000
239049.000000
240163.000000
241498.000000
242646.000000
243971.000000
245056.000000
246254.000000
247393.000000
248443.000000
249712.000000
250768.000000
251991.000000
253146.000000
254257.000000
255516.000000
256585.000000
257726.000000
258806.000000
259802.000000
261116.000000
262192.000000
263395.000000
264543.000000
265623.000000
266820.000000
267841.000000
268926.000000
270047.000000
271022.000000
272187.000000
273256.000000
274332.000000
275623.000000
276694.000000
277814.000000
278992.000000
279960.000000
281175.000000
282274.000000
283463.000000
284572.000000
285696.000000
286942.000000
287986.000000
289249.000000
290383.000000
291422.000000
292731.000000
293860.000000
294986.000000
296184.000000
297291.000000
298549.000000
299596.000000
300727.000000
301845.000000
302983.000000
304305.000000
305450.000000
306795.000000
307935.000000
309118.000000
310365.000000
311477.000000
312767.000000
313856.000000
315071.000000
316244.000000
317350.000000
318593.000000
319664.000000
320914.000000
322106.000000
323284.000000
324635.000000
325712.000000
327021.000000
328167.000000
329291.000000
330537.000000
331549.000000
332825.000000
333965.000000
335077.000000
336286.000000
337332.000000
338541.000000
339664.000000
340776.000000
341981.000000
343034.000000
344374.000000
345467.000000
346701.000000
347854.000000
348939.000000
350146.000000
351201.000000
352456.000000
353620.000000
354718.000000
355953.000000
357001.000000
358247.000000
359346.000000
360403.000000
361728.000000
362886.000000
364020.000000
365037.000000
366328.000000
367430.000000
368632.000000
369772.000000
370858.000000
372112.000000
373143.000000
374339.000000
375452.000000
376542.000000
377751.000000
378746.000000
379886.000000
380957.000000
381970.000000
383147.000000
384165.000000
385305.000000
386453.000000
387451.000000
388660.000000
389751.000000
390847.000000
392005.000000
393051.000000
394307.000000
395417.000000
396499.000000
397809.000000
398889.000000
400184.000000
401323.000000
402408.000000
403522.000000
404496.000000
405408.000000
406228.000000
407081.000000
408065.000000
409189.000000
410332.000000
411363.000000
412539.000000
413599.000000
414674.000000
415796.000000
416775.000000
417924.000000
419034.000000
420103.000000
421327.000000
422445.000000
423724.000000
424788.000000
426014.000000
427127.000000
428255.000000
429434.000000
430438.000000
431602.000000
432656.000000
433688.000000
434883.000000
435901.000000
437079.000000
438145.000000
439275.000000
440443.000000
441434.000000
442698.000000
443783.000000
445017.000000
446143.000000
447218.000000
448415.000000
449442.000000
450575.000000
451693.000000
452690.000000
453873.000000
454916.000000
456109.000000
457225.000000
458285.000000
459507.000000
460540.000000
461831.000000
462953.000000
464096.000000
465246.000000
466284.000000
467472.000000
468474.000000
469540.000000
470693.000000
471769.000000
472990.000000
474014.000000
475169.000000
476255.000000
477281.000000
478456.000000
479464.000000
480713.000000
481854.000000
483075.000000
484249.000000
485345.000000
486525.000000
487550.000000
488690.000000
489798.000000
490818.000000
492049.000000
493150.000000
494258.000000
495371.000000
496433.000000
497698.000000
498741.000000
500049.000000
501187.000000
502438.000000
503546.000000
504589.000000
505740.000000
506745.000000
508078.000000
509227.000000
510492.000000
511658.000000
512810.000000
513981.000000
515031.000000
516213.000000
517220.000000
518178.000000
519270.000000
520333.000000
521514.000000
522753.000000
523857.000000
525149.000000
526304.000000
527467.000000
528715.000000
529775.000000
530954.000000
532134.000000
533240.000000
534635.000000
535758.000000
537049.000000
538215.000000
539413.000000
540643.000000
541812.000000
543065.000000
544153.000000
545414.000000
546501.000000
547695.000000
548858.000000
549967.000000
551192.000000
552232.000000
553411.000000
554507.000000
555495.000000
556767.000000
557856.000000
558969.000000
559796.000000
560606.000000
561470.000000
562822.000000
564013.000000
565095.000000
566260.000000
567504.000000
568640.000000
569790.000000
570949.000000
572056.000000
573218.000000
574322.000000
575519.000000
576703.000000
577766.000000
579005.000000
580188.000000
581385.000000
582600.000000
583690.000000
584964.000000
586146.000000
587288.000000
588551.000000
589624.000000
590883.000000
591941.000000
592840.000000
593892.000000
595163.000000
596210.000000
597243.000000
598376.000000
599381.000000
600254.000000
601280.000000
602555.000000
603608.000000
604771.000000
605918.000000
606892.000000
608010.000000
609052.000000
609983.000000
611095.000000
612146.000000
613134.000000
614328.000000
615366.000000
616314.000000
617453.000000
618526.000000
619562.000000
620818.000000
621916.000000
623011.000000
624161.000000
625156.000000
626387.000000
627542.000000
628587.000000
629801.000000
630923.000000
631993.000000
633214.000000
634244.000000
635410.000000
636497.000000
637466.000000
638617.000000
639696.000000
640673.000000
641737.000000
642792.000000
643735.000000
644808.000000
645826.000000
646809.000000
647969.000000
648977.000000
649944.000000
651082.000000
652037.000000
652985.000000
654084.000000
655058.000000
656233.000000
657296.000000
658275.000000
659474.000000
660513.000000
661436.000000
662565.000000
663718.000000
664766.000000
666029.000000
667171.000000
668288.000000
669447.000000
670509.000000
671766.000000
672874.000000
674041.000000
675179.000000
676057.000000
676875.000000
677900.000000
679128.000000
680445.000000
681567.000000
682767.000000
683932.000000
685072.000000
686311.000000
687357.000000
688539.000000
689664.000000
690678.000000
691944.000000
693061.000000
694179.000000
695444.000000
696577.000000
697770.000000
698952.000000
700049.000000
701329.000000
702421.000000
703476.000000
704679.000000
705708.000000
706831.000000
708010.000000
709132.000000
710430.000000
711656.000000
712807.000000
714066.000000
715186.000000
716355.000000
717483.000000
718526.000000
719792.000000
720902.000000
722031.000000
723217.000000
724350.000000
725624.000000
726675.000000
727832.000000
728938.000000
730173.000000
731428.000000
732552.000000
733849.000000
734998.000000
736205.000000
737396.000000
738462.000000
739695.000000
740761.000000
741870.000000
743045.000000
744113.000000
745331.000000
746379.000000
747470.000000
748627.000000
749658.000000
750830.000000
751917.000000
753018.000000
754281.000000
755377.000000
756668.000000
757792.000000
758987.000000
760143.000000
761211.000000
762370.000000
763366.000000
764397.000000
765579.000000
766665.000000
767939.000000
769067.000000
770204.000000
771479.000000
772518.000000
773799.000000
775004.000000
776127.000000
777350.000000
778404.000000
779590.000000
780735.000000
781799.000000
783009.000000
784049.000000
785238.000000
786368.000000
787463.000000
788625.000000
789607.000000
790698.000000
791775.000000
792772.000000
793961.000000
795020.000000
796128.000000
797248.000000
798273.000000
799492.000000
800516.000000
801512.000000
802535.000000
803466.000000
804522.000000
805520.000000
806575.000000
807708.000000
808708.000000
809854.000000
810906.000000
811924.000000
812979.000000
813909.000000
814910.000000
815934.000000
816930.000000
818036.000000
819005.000000
819950.000000
820982.000000
821905.000000
822926.000000
823980.000000
824962.000000
826044.000000
827075.000000
828060.000000
829128.000000
830044.000000
830999.000000
832050.000000
832986.000000
834002.000000
835057.000000
836082.000000
837180.000000
838177.000000
839126.000000
840182.000000
841122.000000
842078.000000
843182.000000
844142.000000
845325.000000
846375.000000
847429.000000
848506.000000
849451.000000
850417.000000
851285.000000
852140.000000
853098.000000
854005.000000
855050.000000
856189.000000
857228.000000
858404.000000
859445.000000
860411.000000
861458.000000
862436.000000
863427.000000
864503.000000
865484.000000
866610.000000
867657.000000
868572.000000
869526.000000
870505.000000
871486.000000
872677.000000
873717.000000
874898.000000
876004.000000
877104.000000
878261.000000
879252.000000
880341.000000
881404.000000
882422.000000
883639.000000
884661.000000
885831.000000
886938.000000
887960.000000
889096.000000
890121.000000
891267.000000
892365.000000
893386.000000
894600.000000
895676.000000
896777.000000
898036.000000
899139.000000
900420.000000
