ECG (ms)
173.000000
965.000000
1745.000000
2554.000000
3366.000000
4159.000000
4923.000000
5704.000000
6465.000000
7209.000000
7923.000000
8605.000000
9379.000000
10187.000000
11058.000000
11935.000000
12770.000000
13615.000000
14470.000000
15313.000000
16128.000000
16922.000000
17736.000000
18571.000000
19419.000000
20232.000000
21078.000000
21954.000000
22835.000000
23721.000000
24560.000000
25373.000000
26213.000000
27062.000000
27894.000000
28704.000000
29548.000000
30396.000000
31255.000000
32076.000000
32896.000000
33721.000000
34546.000000
35367.000000
36164.000000
36998.000000
37827.000000
38662.000000
39478.000000
40274.000000
41100.000000
41918.000000
42722.000000
43509.000000
44319.000000
45120.000000
45901.000000
46666.000000
47407.000000
48154.000000
48936.000000
49758.000000
50604.000000
51411.000000
52215.000000
53042.000000
53859.000000
54666.000000
55456.000000
56270.000000
57086.000000
57914.000000
58713.000000
59510.000000
60333.000000
61163.000000
61987.000000
62789.000000
63584.000000
64414.000000
65240.000000
66070.000000
66872.000000
67701.000000
68534.000000
69370.000000
70171.000000
70974.000000
71795.000000
72619.000000
73435.000000
74249.000000
75095.000000
75930.000000
76732.000000
77523.000000
78334.000000
79142.000000
79944.000000
80737.000000
81556.000000
82374.000000
83182.000000
83971.000000
84765.000000
85565.000000
86362.000000
87142.000000
87930.000000
88730.000000
89515.000000
90280.000000
91034.000000
91810.000000
92580.000000
93325.000000
94089.000000
94873.000000
95672.000000
96500.000000
97334.000000
98171.000000
98988.000000
99792.000000
100619.000000
101446.000000
102289.000000
103107.000000
103924.000000
104743.000000
105585.000000
106434.000000
107262.000000
108079.000000
108916.000000
109772.000000
110637.000000
111482.000000
112322.000000
113200.000000
114085.000000
114948.000000
115769.000000
116608.000000
117449.000000
118300.000000
119133.000000
119955.000000
120812.000000
121663.000000
122507.000000
123324.000000
124136.000000
124973.000000
125807.000000
126623.000000
127422.000000
128238.000000
129057.000000
129881.000000
130696.000000
131505.000000
132332.000000
133145.000000
133960.000000
134750.000000
135544.000000
136371.000000
137208.000000
138041.000000
138868.000000
139695.000000
140545.000000
141381.000000
142176.000000
142949.000000
143736.000000
144518.000000
145294.000000
146047.000000
146809.000000
147580.000000
148396.000000
149260.000000
150117.000000
150957.000000
151773.000000
152612.000000
153458.000000
154311.000000
155134.000000
155935.000000
156751.000000
157583.000000
158454.000000
159315.000000
160178.000000
161073.000000
161955.000000
162800.000000
163626.000000
164475.000000
165320.000000
166166.000000
166981.000000
167815.000000
168662.000000
169515.000000
170349.000000
171169.000000
172011.000000
172849.000000
173688.000000
174491.000000
175298.000000
176127.000000
176972.000000
177801.000000
178627.000000
179485.000000
180342.000000
181177.000000
181991.000000
182838.000000
183678.000000
184510.000000
185326.000000
186141.000000
186996.000000
187854.000000
188713.000000
189533.000000
190339.000000
191180.000000
192021.000000
192843.000000
193642.000000
194460.000000
195289.000000
196124.000000
196934.000000
197742.000000
198576.000000
199417.000000
200251.000000
201041.000000
201859.000000
202680.000000
203466.000000
204233.000000
204978.000000
205735.000000
206484.000000
207226.000000
208027.000000
208828.000000
209649.000000
210504.000000
211371.000000
212238.000000
213042.000000
213879.000000
214704.000000
215526.000000
216344.000000
217145.000000
217937.000000
218770.000000
219615.000000
220487.000000
221318.000000
222147.000000
222981.000000
223809.000000
224635.000000
225428.000000
226209.000000
227017.000000
227827.000000
228654.000000
229457.000000
230252.000000
231074.000000
231897.000000
232724.000000
233508.000000
234288.000000
235074.000000
235870.000000
236671.000000
237453.000000
238236.000000
239074.000000
239924.000000
240750.000000
241542.000000
242289.000000
243084.000000
243868.000000
244665.000000
245473.000000
246269.000000
247100.000000
247935.000000
248749.000000
249528.000000
250309.000000
251102.000000
251877.000000
252646.000000
253399.000000
254159.000000
254938.000000
255708.000000
256473.000000
257217.000000
257959.000000
258696.000000
259417.000000
260130.000000
260860.000000
261608.000000
262378.000000
263197.000000
264035.000000
264871.000000
265678.000000
266460.000000
267269.000000
268082.000000
268918.000000
269725.000000
270530.000000
271363.000000
272217.000000
273089.000000
273940.000000
274771.000000
275624.000000
276482.000000
277337.000000
278155.000000
278990.000000
279858.000000
280748.000000
281627.000000
282477.000000
283353.000000
284267.000000
285154.000000
285990.000000
286820.000000
287669.000000
288535.000000
289402.000000
290245.000000
291083.000000
291955.000000
292827.000000
293691.000000
294525.000000
295343.000000
296204.000000
297083.000000
297947.000000
298765.000000
299603.000000
300462.000000
301322.000000
302183.000000
303026.000000
303860.000000
304721.000000
305562.000000
306410.000000
307225.000000
308030.000000
308856.000000
309687.000000
310511.000000
311296.000000
312112.000000
312945.000000
313774.000000
314598.000000
315409.000000
316200.000000
317003.000000
317800.000000
318580.000000
319334.000000
320096.000000
320883.000000
321673.000000
322452.000000
323200.000000
323933.000000
324675.000000
325475.000000
326290.000000
327122.000000
327945.000000
328744.000000
329552.000000
330368.000000
331185.000000
332001.000000
332785.000000
333601.000000
334444.000000
335310.000000
336185.000000
337008.000000
337876.000000
338747.000000
339624.000000
340500.000000
341358.000000
342191.000000
343039.000000
343900.000000
344748.000000
345586.000000
346410.000000
347216.000000
348093.000000
348980.000000
349869.000000
350724.000000
351567.000000
352432.000000
353304.000000
354151.000000
354963.000000
355803.000000
356635.000000
357469.000000
358276.000000
359076.000000
359902.000000
360728.000000
361546.000000
362327.000000
363169.000000
364002.000000
364829.000000
365629.000000
366413.000000
367220.000000
368026.000000
368855.000000
369643.000000
370463.000000
371285.000000
372110.000000
372939.000000
373738.000000
374515.000000
375313.000000
376118.000000
376916.000000
377691.000000
378431.000000
379180.000000
379955.000000
380776.000000
381617.000000
382477.000000
383303.000000
384132.000000
384994.000000
385848.000000
386702.000000
387515.000000
388326.000000
389161.000000
390012.000000
390887.000000
391734.000000
392557.000000
393407.000000
394262.000000
395113.000000
395933.000000
396702.000000
397533.000000
398363.000000
399205.000000
400031.000000
400838.000000
401670.000000
402511.000000
403363.000000
404186.000000
404994.000000
405816.000000
406638.000000
407474.000000
408265.000000
409083.000000
409913.000000
410735.000000
411568.000000
412370.000000
413157.000000
413960.000000
414767.000000
415584.000000
416374.000000
417171.000000
417990.000000
418821.000000
419668.000000
420468.000000
421275.000000
422093.000000
422906.000000
423710.000000
424487.000000
425273.000000
426072.000000
426860.000000
427632.000000
428382.000000
429164.000000
429936.000000
430692.000000
431434.000000
432177.000000
432933.000000
433706.000000
434473.000000
435219.000000
435960.000000
436777.000000
437613.000000
438458.000000
439276.000000
440070.000000
440885.000000
441698.000000
442496.000000
443291.000000
444043.000000
444818.000000
445605.000000
446410.000000
447252.000000
448084.000000
448910.000000
449769.000000
450626.000000
451481.000000
452307.000000
453099.000000
453923.000000
454740.000000
455571.000000
456345.000000
457027.000000
457982.000000
458800.000000
459616.000000
460402.000000
461158.000000
461974.000000
462767.000000
463564.000000
464361.000000
465140.000000
465959.000000
466788.000000
467617.000000
468434.000000
469214.000000
470024.000000
470827.000000
471607.000000
472362.000000
473099.000000
473843.000000
474619.000000
475438.000000
476266.000000
477099.000000
477906.000000
478718.000000
479543.000000
480380.000000
481210.000000
482016.000000
482845.000000
483684.000000
484538.000000
485361.000000
486167.000000
486992.000000
487818.000000
488627.000000
489415.000000
490205.000000
491017.000000
491844.000000
492661.000000
493456.000000
494247.000000
495061.000000
495872.000000
496666.000000
497436.000000
498231.000000
499041.000000
499870.000000
500681.000000
501495.000000
502335.000000
503164.000000
503973.000000
504774.000000
505598.000000
506407.000000
507224.000000
508009.000000
508803.000000
509601.000000
510401.000000
511201.000000
511986.000000
512800.000000
513613.000000
514415.000000
515190.000000
515943.000000
516734.000000
517512.000000
518293.000000
519083.000000
519861.000000
520652.000000
521445.000000
522229.000000
522996.000000
523751.000000
524523.000000
525294.000000
526073.000000
526865.000000
527643.000000
528437.000000
529245.000000
530052.000000
530838.000000
531583.000000
532372.000000
533144.000000
533912.000000
534670.000000
535417.000000
536171.000000
536946.000000
537726.000000
538493.000000
539243.000000
540010.000000
540779.000000
541531.000000
542260.000000
542983.000000
543701.000000
544469.000000
545261.000000
546066.000000
546878.000000
547642.000000
548470.000000
549286.000000
550113.000000
550954.000000
551762.000000
552576.000000
553406.000000
554234.000000
555064.000000
555868.000000
556695.000000
557521.000000
558342.000000
559105.000000
559894.000000
560724.000000
561555.000000
562402.000000
563234.000000
564043.000000
564855.000000
565691.000000
566525.000000
567367.000000
568177.000000
568973.000000
569796.000000
570631.000000
571471.000000
572275.000000
573100.000000
573938.000000
574787.000000
575588.000000
576394.000000
577205.000000
578017.000000
578854.000000
579654.000000
580450.000000
581261.000000
582090.000000
582932.000000
583741.000000
584571.000000
585411.000000
586252.000000
587092.000000
587904.000000
588701.000000
589513.000000
590325.000000
591128.000000
591876.000000
592685.000000
593483.000000
594296.000000
595111.000000
595859.000000
596688.000000
597490.000000
598287.000000
599048.000000
599802.000000
600576.000000
601388.000000
602237.000000
603091.000000
603916.000000
604713.000000
605558.000000
606405.000000
607274.000000
608118.000000
608938.000000
609791.000000
610636.000000
611498.000000
612330.000000
613161.000000
614011.000000
614867.000000
615697.000000
616508.000000
617346.000000
618182.000000
619029.000000
619853.000000
620673.000000
621538.000000
622409.000000
623247.000000
624058.000000
624900.000000
625754.000000
626621.000000
627448.000000
628281.000000
629153.000000
630020.000000
630850.000000
631655.000000
632476.000000
633294.000000
634118.000000
634924.000000
635730.000000
636555.000000
637406.000000
638231.000000
639026.000000
639833.000000
640641.000000
641450.000000
642214.000000
643021.000000
643822.000000
644620.000000
645415.000000
646185.000000
646958.000000
647732.000000
648493.000000
649227.000000
649967.000000
650715.000000
651478.000000
652276.000000
653091.000000
653928.000000
654740.000000
655546.000000
656379.000000
657223.000000
658081.000000
658913.000000
659735.000000
660585.000000
661449.000000
662325.000000
663166.000000
663994.000000
664846.000000
665707.000000
666585.000000
667430.000000
668292.000000
669163.000000
670031.000000
670873.000000
671685.000000
672504.000000
673324.000000
674160.000000
674987.000000
675805.000000
676648.000000
677499.000000
678346.000000
679154.000000
679947.000000
680749.000000
681548.000000
682358.000000
683161.000000
683951.000000
684757.000000
685585.000000
686420.000000
687229.000000
688022.000000
688839.000000
689656.000000
690476.000000
691275.000000
692101.000000
692928.000000
693747.000000
694545.000000
695324.000000
696123.000000
696943.000000
697764.000000
698562.000000
699346.000000
700141.000000
700933.000000
701729.000000
702509.000000
703276.000000
704059.000000
704830.000000
705597.000000
706357.000000
707118.000000
707893.000000
708671.000000
709441.000000
710203.000000
710970.000000
711740.000000
712498.000000
713231.000000
713947.000000
714676.000000
715429.000000
716232.000000
717054.000000
717865.000000
718654.000000
719438.000000
720239.000000
721041.000000
721857.000000
722659.000000
723459.000000
724300.000000
725154.000000
726018.000000
726853.000000
727661.000000
728473.000000
729278.000000
730081.000000
730870.000000
731654.000000
732476.000000
733318.000000
734172.000000
734998.000000
735814.000000
736641.000000
737464.000000
738264.000000
739042.000000
739838.000000
740643.000000
741452.000000
742262.000000
743063.000000
743874.000000
744703.000000
745521.000000
746319.000000
747102.000000
747902.000000
748713.000000
749525.000000
750317.000000
751095.000000
751892.000000
752712.000000
753544.000000
754362.000000
755169.000000
755988.000000
756814.000000
757637.000000
758432.000000
759226.000000
760031.000000
760845.000000
761673.000000
762481.000000
763297.000000
764135.000000
764963.000000
765779.000000
766575.000000
767367.000000
768161.000000
768944.000000
769711.000000
770467.000000
771241.000000
772008.000000
772763.000000
773494.000000
774234.000000
774981.000000
775754.000000
776559.000000
777373.000000
778178.000000
778960.000000
779749.000000
780572.000000
781413.000000
782254.000000
783072.000000
783893.000000
784738.000000
785595.000000
786440.000000
787233.000000
788081.000000
788948.000000
789785.000000
790607.000000
791407.000000
792241.000000
793114.000000
793996.000000
794850.000000
795684.000000
796527.000000
797360.000000
798191.000000
799003.000000
799801.000000
800623.000000
801472.000000
802350.000000
803216.000000
804069.000000
804942.000000
805804.000000
806647.000000
807444.000000
808245.000000
809055.000000
809867.000000
810677.000000
811476.000000
812293.000000
813136.000000
813993.000000
814820.000000
815630.000000
816458.000000
817271.000000
818075.000000
818851.000000
819628.000000
820423.000000
821232.000000
822043.000000
822854.000000
823653.000000
824477.000000
825313.000000
826136.000000
826933.000000
827681.000000
828468.000000
829238.000000
830008.000000
830756.000000
831489.000000
832218.000000
832981.000000
833776.000000
834577.000000
835398.000000
836203.000000
836992.000000
837790.000000
838586.000000
839381.000000
840160.000000
840947.000000
841762.000000
842576.000000
843413.000000
844231.000000
845034.000000
845856.000000
846685.000000
847524.000000
848341.000000
849140.000000
849959.000000
850796.000000
851640.000000
852461.000000
853266.000000
854084.000000
854903.000000
855720.000000
856534.000000
857329.000000
858143.000000
858965.000000
859786.000000
860598.000000
861391.000000
862204.000000
863017.000000
863843.000000
864640.000000
865418.000000
866215.000000
867035.000000
867860.000000
868667.000000
869459.000000
870265.000000
871056.000000
871843.000000
872622.000000
873396.000000
874174.000000
874956.000000
875739.000000
876486.000000
877218.000000
877954.000000
878720.000000
879501.000000
880280.000000
881047.000000
881803.000000
882563.000000
883328.000000
884101.000000
884879.000000
885642.000000
886418.000000
887222.000000
888046.000000
888876.000000
889688.000000
890500.000000
891331.000000
892160.000000
892988.000000
893802.000000
894642.000000
895486.000000
896320.000000
897144.000000
897950.000000
898764.000000
899585.000000
900416.000000
901227.000000
