ECG (ms)
611.000000
1330.000000
2052.000000
2774.000000
3491.000000
4220.000000
4960.000000
5694.000000
6425.000000
7130.000000
7828.000000
8527.000000
9221.000000
9904.000000
10588.000000
11265.000000
11931.000000
12598.000000
13269.000000
13936.000000
14600.000000
15261.000000
15916.000000
16561.000000
17199.000000
17838.000000
18478.000000
19113.000000
19750.000000
20404.000000
21071.000000
21743.000000
22425.000000
23116.000000
23814.000000
24511.000000
25214.000000
25924.000000
26620.000000
27329.000000
28040.000000
28737.000000
29430.000000
30133.000000
30831.000000
31520.000000
32205.000000
32899.000000
33609.000000
34326.000000
35046.000000
35770.000000
36472.000000
37164.000000
37867.000000
38572.000000
39263.000000
39955.000000
40656.000000
41377.000000
42100.000000
42824.000000
43556.000000
44290.000000
45013.000000
45748.000000
46501.000000
47269.000000
48009.000000
48735.000000
49476.000000
50215.000000
50938.000000
51653.000000
52368.000000
53092.000000
53814.000000
54542.000000
55301.000000
56058.000000
56808.000000
57559.000000
58327.000000
59097.000000
59835.000000
60562.000000
61303.000000
62049.000000
62796.000000
63530.000000
64271.000000
65030.000000
65780.000000
66516.000000
67252.000000
68011.000000
68780.000000
69532.000000
70271.000000
71009.000000
71747.000000
72465.000000
73183.000000
73933.000000
74687.000000
75467.000000
76229.000000
76963.000000
77690.000000
78432.000000
79192.000000
79932.000000
80658.000000
81392.000000
82136.000000
82876.000000
83600.000000
84312.000000
85031.000000
85761.000000
86475.000000
87185.000000
87913.000000
88647.000000
89401.000000
90153.000000
90894.000000
91628.000000
92355.000000
93086.000000
93819.000000
94550.000000
95273.000000
95980.000000
96676.000000
97367.000000
98060.000000
98767.000000
99481.000000
100207.000000
100954.000000
101708.000000
102456.000000
103182.000000
103890.000000
104592.000000
105292.000000
105988.000000
106687.000000
107381.000000
108106.000000
108850.000000
109606.000000
110350.000000
111091.000000
111852.000000
112633.000000
113385.000000
114123.000000
114876.000000
115639.000000
116396.000000
117118.000000
117841.000000
118590.000000
119355.000000
120116.000000
120865.000000
121634.000000
122435.000000
123215.000000
123975.000000
124732.000000
125486.000000
126228.000000
126967.000000
127687.000000
128394.000000
129104.000000
129825.000000
130559.000000
131282.000000
131997.000000
132724.000000
133468.000000
134208.000000
134935.000000
135673.000000
136432.000000
137196.000000
137962.000000
138690.000000
139415.000000
140145.000000
140877.000000
141619.000000
142361.000000
143110.000000
143873.000000
144599.000000
145311.000000
146009.000000
146719.000000
147455.000000
148208.000000
148938.000000
149647.000000
150355.000000
151080.000000
151819.000000
152557.000000
153292.000000
154064.000000
154847.000000
155620.000000
156357.000000
157086.000000
157830.000000
158586.000000
159322.000000
160052.000000
160783.000000
161522.000000
162276.000000
163045.000000
163803.000000
164591.000000
165384.000000
166143.000000
166882.000000
167644.000000
168410.000000
169153.000000
169882.000000
170634.000000
171398.000000
172164.000000
172911.000000
173653.000000
174418.000000
175212.000000
175972.000000
176726.000000
177491.000000
178268.000000
179045.000000
179785.000000
180516.000000
181258.000000
182009.000000
182738.000000
183455.000000
184192.000000
184940.000000
185689.000000
186417.000000
187134.000000
187874.000000
188635.000000
189379.000000
190097.000000
190818.000000
191545.000000
192283.000000
193010.000000
193733.000000
194462.000000
195188.000000
195928.000000
196662.000000
197382.000000
198101.000000
198830.000000
199554.000000
200267.000000
200971.000000
201686.000000
202412.000000
203134.000000
203837.000000
204535.000000
205242.000000
205946.000000
206647.000000
207351.000000
208051.000000
208745.000000
209435.000000
210138.000000
210855.000000
211568.000000
212269.000000
212964.000000
213672.000000
214402.000000
215153.000000
215874.000000
216583.000000
217297.000000
218018.000000
218745.000000
219450.000000
220148.000000
220856.000000
221566.000000
222290.000000
222999.000000
223695.000000
224398.000000
225101.000000
225810.000000
226520.000000
227234.000000
227961.000000
228703.000000
229422.000000
230129.000000
230843.000000
231574.000000
232307.000000
233030.000000
233751.000000
234501.000000
235274.000000
236056.000000
236805.000000
237546.000000
238289.000000
239033.000000
239766.000000
240494.000000
241215.000000
241926.000000
242639.000000
243371.000000
244134.000000
244922.000000
245661.000000
246388.000000
247121.000000
247845.000000
248552.000000
249247.000000
249949.000000
250657.000000
251374.000000
252085.000000
252794.000000
253516.000000
254262.000000
255015.000000
255730.000000
256438.000000
257157.000000
257896.000000
258659.000000
259396.000000
260116.000000
260842.000000
261595.000000
262362.000000
263100.000000
263822.000000
264568.000000
265342.000000
266119.000000
266860.000000
267578.000000
268300.000000
269063.000000
269820.000000
270564.000000
271298.000000
272086.000000
272895.000000
273705.000000
274486.000000
275248.000000
275998.000000
276734.000000
277464.000000
278186.000000
278880.000000
279557.000000
280240.000000
280938.000000
281665.000000
282385.000000
283106.000000
283817.000000
284520.000000
285216.000000
285893.000000
286562.000000
287223.000000
287898.000000
288599.000000
289310.000000
290001.000000
290679.000000
291362.000000
292045.000000
292729.000000
293402.000000
294071.000000
294750.000000
295448.000000
296169.000000
296896.000000
297607.000000
298314.000000
299057.000000
299832.000000
300598.000000
301331.000000
302053.000000
302797.000000
303552.000000
304299.000000
305038.000000
305770.000000
306479.000000
307182.000000
307867.000000
308538.000000
309211.000000
309919.000000
310702.000000
311476.000000
312229.000000
312995.000000
313781.000000
314564.000000
315315.000000
316035.000000
316762.000000
317502.000000
318261.000000
319005.000000
319730.000000
320487.000000
321255.000000
322031.000000
322778.000000
323524.000000
324306.000000
325083.000000
325864.000000
326640.000000
327420.000000
328200.000000
328962.000000
329697.000000
330412.000000
331113.000000
331809.000000
332521.000000
333254.000000
333983.000000
334702.000000
335404.000000
336106.000000
336821.000000
337551.000000
338305.000000
339073.000000
339867.000000
340624.000000
341357.000000
342091.000000
342843.000000
343592.000000
344330.000000
345056.000000
345758.000000
346445.000000
347118.000000
347813.000000
348549.000000
349290.000000
350031.000000
350748.000000
351468.000000
352210.000000
352959.000000
353700.000000
354445.000000
355188.000000
355917.000000
356657.000000
357422.000000
358184.000000
358918.000000
359638.000000
360335.000000
361043.000000
361771.000000
362521.000000
363253.000000
363976.000000
364719.000000
365468.000000
366227.000000
366968.000000
367688.000000
368424.000000
369202.000000
369976.000000
370725.000000
371453.000000
372190.000000
372941.000000
373738.000000
374533.000000
375286.000000
376029.000000
376798.000000
377600.000000
378390.000000
379154.000000
379930.000000
380722.000000
381534.000000
382307.000000
383060.000000
383822.000000
384599.000000
385355.000000
386097.000000
386830.000000
387588.000000
388370.000000
389113.000000
389836.000000
390558.000000
391293.000000
392032.000000
392759.000000
393487.000000
394246.000000
395012.000000
395792.000000
396534.000000
397256.000000
397986.000000
398725.000000
399476.000000
400204.000000
400926.000000
401663.000000
402417.000000
403168.000000
403928.000000
404654.000000
405385.000000
406143.000000
406955.000000
407786.000000
408581.000000
409371.000000
410139.000000
410853.000000
411545.000000
412236.000000
412938.000000
413636.000000
414324.000000
415009.000000
415720.000000
416485.000000
417286.000000
418063.000000
418837.000000
419602.000000
420330.000000
421032.000000
421722.000000
422425.000000
423133.000000
423873.000000
424592.000000
425300.000000
426018.000000
426756.000000
427474.000000
428184.000000
428883.000000
429597.000000
430327.000000
431076.000000
431814.000000
432536.000000
433244.000000
433960.000000
434675.000000
435396.000000
436097.000000
436804.000000
437535.000000
438290.000000
439068.000000
439847.000000
440609.000000
441348.000000
442101.000000
442863.000000
443635.000000
444374.000000
445103.000000
445837.000000
446589.000000
447384.000000
448132.000000
448869.000000
449612.000000
450371.000000
451122.000000
451855.000000
452585.000000
453329.000000
454086.000000
454834.000000
455568.000000
456302.000000
457055.000000
457835.000000
458605.000000
459356.000000
460115.000000
460897.000000
461701.000000
462490.000000
463257.000000
464025.000000
464812.000000
465590.000000
466339.000000
467078.000000
467844.000000
468627.000000
469421.000000
470202.000000
470961.000000
471737.000000
472521.000000
473304.000000
474058.000000
474796.000000
475552.000000
476316.000000
477078.000000
477817.000000
478542.000000
479302.000000
480098.000000
480914.000000
481687.000000
482471.000000
483281.000000
484089.000000
484853.000000
485596.000000
486340.000000
487090.000000
487838.000000
488560.000000
489282.000000
490007.000000
490749.000000
491497.000000
492234.000000
492962.000000
493716.000000
494493.000000
495266.000000
496020.000000
496751.000000
497473.000000
498189.000000
498911.000000
499643.000000
500383.000000
501101.000000
501817.000000
502552.000000
503321.000000
504112.000000
504864.000000
505601.000000
506350.000000
507110.000000
507859.000000
508598.000000
509338.000000
510099.000000
510884.000000
511636.000000
512371.000000
513128.000000
513917.000000
514685.000000
515433.000000
516166.000000
516915.000000
517661.000000
518385.000000
519098.000000
519814.000000
520556.000000
521303.000000
522067.000000
522814.000000
523548.000000
524302.000000
525064.000000
525817.000000
526554.000000
527291.000000
528039.000000
528793.000000
529538.000000
530264.000000
530981.000000
531711.000000
532447.000000
533164.000000
533880.000000
534614.000000
535366.000000
536113.000000
536844.000000
537595.000000
538347.000000
539079.000000
539828.000000
540591.000000
541364.000000
542131.000000
542886.000000
543627.000000
544377.000000
545133.000000
545902.000000
546646.000000
547376.000000
548108.000000
548856.000000
549586.000000
550309.000000
551031.000000
551764.000000
552520.000000
553297.000000
554066.000000
554833.000000
555584.000000
556343.000000
557084.000000
557828.000000
558564.000000
559266.000000
559943.000000
560600.000000
561253.000000
561923.000000
562625.000000
563334.000000
564026.000000
564706.000000
565378.000000
566073.000000
566801.000000
567543.000000
568285.000000
569023.000000
569737.000000
570454.000000
571156.000000
571846.000000
572540.000000
573252.000000
573989.000000
574728.000000
575445.000000
576137.000000
576838.000000
577584.000000
578366.000000
579116.000000
579857.000000
580599.000000
581371.000000
582144.000000
582890.000000
583605.000000
584341.000000
585107.000000
585885.000000
586657.000000
587387.000000
588122.000000
588872.000000
589641.000000
590383.000000
591108.000000
591844.000000
592616.000000
593378.000000
594116.000000
594836.000000
595570.000000
596319.000000
597106.000000
597884.000000
598638.000000
599394.000000
600135.000000
600848.000000
601545.000000
602233.000000
602932.000000
603674.000000
604429.000000
605180.000000
605917.000000
606627.000000
607317.000000
608005.000000
608718.000000
609474.000000
610221.000000
610944.000000
611644.000000
612355.000000
613099.000000
613876.000000
614644.000000
615384.000000
616109.000000
616869.000000
617663.000000
618442.000000
619180.000000
619897.000000
620631.000000
621378.000000
622128.000000
622869.000000
623589.000000
624324.000000
625063.000000
625791.000000
626495.000000
627192.000000
627910.000000
628642.000000
629398.000000
630141.000000
630873.000000
631655.000000
632478.000000
633316.000000
634098.000000
634861.000000
635621.000000
636390.000000
