ECG (ms)
416.000000
1181.000000
1914.000000
2639.000000
3382.000000
4083.000000
4781.000000
5536.000000
6284.000000
7001.000000
7787.000000
8806.000000
9669.000000
10423.000000
11173.000000
11928.000000
12671.000000
13399.000000
14178.000000
15011.000000
15773.000000
16518.000000
17279.000000
18100.000000
18858.000000
19585.000000
20341.000000
21106.000000
21862.000000
22580.000000
23352.000000
24201.000000
24985.000000
25736.000000
26570.000000
27433.000000
28201.000000
28942.000000
29735.000000
30597.000000
31386.000000
32121.000000
32903.000000
33806.000000
34623.000000
35358.000000
36169.000000
37009.000000
37819.000000
38567.000000
39345.000000
40195.000000
41004.000000
41739.000000
42558.000000
43449.000000
44256.000000
44990.000000
45733.000000
46513.000000
47270.000000
47998.000000
48775.000000
49634.000000
50496.000000
51237.000000
51989.000000
52780.000000
53595.000000
54349.000000
55079.000000
55868.000000
56715.000000
57504.000000
58224.000000
58974.000000
59772.000000
60541.000000
61266.000000
62037.000000
62891.000000
63827.000000
64627.000000
65431.000000
66309.000000
67140.000000
67883.000000
68652.000000
69535.000000
70387.000000
71159.000000
71914.000000
72736.000000
73549.000000
74359.000000
75106.000000
75887.000000
76719.000000
77474.000000
78197.000000
78951.000000
79778.000000
80564.000000
81301.000000
82062.000000
82880.000000
83784.000000
84575.000000
85312.000000
86074.000000
86884.000000
87682.000000
88452.000000
89236.000000
90016.000000
90751.000000
91519.000000
92310.000000
93088.000000
93811.000000
94515.000000
95283.000000
96133.000000
96885.000000
97615.000000
98364.000000
99157.000000
99881.000000
100574.000000
101273.000000
101996.000000
102768.000000
103476.000000
104158.000000
104852.000000
105609.000000
106335.000000
107029.000000
107741.000000
108524.000000
109269.000000
109972.000000
110702.000000
111464.000000
112242.000000
112955.000000
113693.000000
114463.000000
115213.000000
115915.000000
116612.000000
117340.000000
118118.000000
118830.000000
119526.000000
120263.000000
121075.000000
121828.000000
122550.000000
123350.000000
124204.000000
125023.000000
125747.000000
126448.000000
127131.000000
127835.000000
128508.000000
129151.000000
129837.000000
130508.000000
131214.000000
132062.000000
132825.000000
133547.000000
134296.000000
135102.000000
135852.000000
136565.000000
137288.000000
138048.000000
138778.000000
139482.000000
140238.000000
141069.000000
141827.000000
142582.000000
143692.000000
144700.000000
145500.000000
146295.000000
147095.000000
147950.000000
148741.000000
149530.000000
150414.000000
151542.000000
152401.000000
153332.000000
154262.000000
155111.000000
155877.000000
156640.000000
157524.000000
158424.000000
159208.000000
160025.000000
160829.000000
161680.000000
162472.000000
163278.000000
164106.000000
165053.000000
165863.000000
166695.000000
167505.000000
168244.000000
168955.000000
169737.000000
170790.000000
171625.000000
172379.000000
173137.000000
173928.000000
174706.000000
175433.000000
176201.000000
177039.000000
177833.000000
178586.000000
179376.000000
180240.000000
181013.000000
181733.000000
182483.000000
183286.000000
184067.000000
184795.000000
185532.000000
186336.000000
187190.000000
187940.000000
188680.000000
189452.000000
190263.000000
190991.000000
191701.000000
192436.000000
193268.000000
194023.000000
194763.000000
195550.000000
196442.000000
197221.000000
197968.000000
198785.000000
199662.000000
200466.000000
201207.000000
201958.000000
202786.000000
203568.000000
204308.000000
205085.000000
205929.000000
206743.000000
207501.000000
208286.000000
209139.000000
209923.000000
210679.000000
211559.000000
212375.000000
213167.000000
213994.000000
214776.000000
215510.000000
216222.000000
216937.000000
217730.000000
218564.000000
219325.000000
220084.000000
220940.000000
221722.000000
222456.000000
223218.000000
224023.000000
224898.000000
225688.000000
226557.000000
227464.000000
228285.000000
229046.000000
229794.000000
230611.000000
231505.000000
232289.000000
233046.000000
233971.000000
234982.000000
235839.000000
236598.000000
237372.000000
238184.000000
239007.000000
239763.000000
240511.000000
241595.000000
242605.000000
243426.000000
244178.000000
244918.000000
245742.000000
246572.000000
247316.000000
248044.000000
248802.000000
249677.000000
250574.000000
251405.000000
252346.000000
253307.000000
254102.000000
254865.000000
255648.000000
256423.000000
257168.000000
257909.000000
258728.000000
259600.000000
260373.000000
261125.000000
261944.000000
262773.000000
263506.000000
264214.000000
264932.000000
265651.000000
266369.000000
267056.000000
267756.000000
268521.000000
269245.000000
269939.000000
270627.000000
271353.000000
272077.000000
272768.000000
273445.000000
274125.000000
275020.000000
275770.000000
276474.000000
277155.000000
277871.000000
278664.000000
279381.000000
280078.000000
280836.000000
281694.000000
282510.000000
283260.000000
283976.000000
284744.000000
285553.000000
286294.000000
286999.000000
287730.000000
288516.000000
289298.000000
290023.000000
290758.000000
291539.000000
292354.000000
293113.000000
293838.000000
294591.000000
295405.000000
296222.000000
296954.000000
297683.000000
298541.000000
299408.000000
300179.000000
300910.000000
301738.000000
302743.000000
303586.000000
304338.000000
305090.000000
306044.000000
306963.000000
307750.000000
308627.000000
309653.000000
310665.000000
311464.000000
312232.000000
313023.000000
313827.000000
314591.000000
315399.000000
316308.000000
317362.000000
318333.000000
319358.000000
320282.000000
321087.000000
321895.000000
322745.000000
323554.000000
324312.000000
325120.000000
326065.000000
326974.000000
327741.000000
328536.000000
329359.000000
330171.000000
330914.000000
331683.000000
332524.000000
333355.000000
334103.000000
334841.000000
335642.000000
336488.000000
337248.000000
338034.000000
339222.000000
340225.000000
341030.000000
341928.000000
342921.000000
343709.000000
344524.000000
345596.000000
346471.000000
347264.000000
348084.000000
348943.000000
349788.000000
350575.000000
351446.000000
352379.000000
353261.000000
354043.000000
354862.000000
355788.000000
356612.000000
357407.000000
358294.000000
359150.000000
359940.000000
360719.000000
361597.000000
362528.000000
363330.000000
364098.000000
364923.000000
365765.000000
366551.000000
367334.000000
368172.000000
369045.000000
369858.000000
370699.000000
371702.000000
372663.000000
373455.000000
374253.000000
375044.000000
375846.000000
376605.000000
377462.000000
378620.000000
379581.000000
380428.000000
381288.000000
382148.000000
382936.000000
383688.000000
384464.000000
385264.000000
386075.000000
386845.000000
387641.000000
388495.000000
389267.000000
389997.000000
390733.000000
391543.000000
392294.000000
393042.000000
393876.000000
394833.000000
395657.000000
396412.000000
397215.000000
398053.000000
398803.000000
399542.000000
400308.000000
401157.000000
401932.000000
402731.000000
403541.000000
404402.000000
405153.000000
405864.000000
406575.000000
407391.000000
408185.000000
408930.000000
409717.000000
410629.000000
411423.000000
412196.000000
412995.000000
413865.000000
414712.000000
415475.000000
416265.000000
417200.000000
418041.000000
418810.000000
419620.000000
420472.000000
421256.000000
421985.000000
422741.000000
423609.000000
424392.000000
425137.000000
425901.000000
426768.000000
427785.000000
428582.000000
429371.000000
430233.000000
431063.000000
431821.000000
432651.000000
433785.000000
434830.000000
435697.000000
436580.000000
437515.000000
438340.000000
439158.000000
440030.000000
440936.000000
441756.000000
442619.000000
443751.000000
444667.000000
445452.000000
446259.000000
447146.000000
447972.000000
448752.000000
449656.000000
450759.000000
451667.000000
452442.000000
453229.000000
454055.000000
454832.000000
455565.000000
456357.000000
457219.000000
458077.000000
458876.000000
459663.000000
460506.000000
461392.000000
462146.000000
462907.000000
463701.000000
464607.000000
465406.000000
466187.000000
467101.000000
468130.000000
468946.000000
469766.000000
470606.000000
471453.000000
472218.000000
472965.000000
473806.000000
474959.000000
475856.000000
476757.000000
477709.000000
478599.000000
479377.000000
480199.000000
481084.000000
481957.000000
482738.000000
483589.000000
484537.000000
485417.000000
486193.000000
487013.000000
488075.000000
489023.000000
489793.000000
490559.000000
491768.000000
492671.000000
493504.000000
494548.000000
495556.000000
496398.000000
497496.000000
498552.000000
499393.000000
500243.000000
501153.000000
501984.000000
502789.000000
503957.000000
505041.000000
505889.000000
506719.000000
507642.000000
508606.000000
509393.000000
510229.000000
511292.000000
512199.000000
512966.000000
513734.000000
514577.000000
515369.000000
516125.000000
516927.000000
517807.000000
518632.000000
519373.000000
520144.000000
520935.000000
521730.000000
522444.000000
523165.000000
523900.000000
524670.000000
525392.000000
526146.000000
526977.000000
527837.000000
528636.000000
529414.000000
530197.000000
530948.000000
531675.000000
532370.000000
533026.000000
533675.000000
534378.000000
535048.000000
535724.000000
536488.000000
537279.000000
538001.000000
538721.000000
539469.000000
540263.000000
540987.000000
541685.000000
542399.000000
543204.000000
543992.000000
544732.000000
545537.000000
546421.000000
547229.000000
547999.000000
548808.000000
549687.000000
550490.000000
551238.000000
552029.000000
552858.000000
553659.000000
554390.000000
555144.000000
555961.000000
556746.000000
557479.000000
558259.000000
559343.000000
560154.000000
560885.000000
561616.000000
562365.000000
563096.000000
563812.000000
564533.000000
565567.000000
566568.000000
567354.000000
568138.000000
568975.000000
569821.000000
570575.000000
571311.000000
572086.000000
572944.000000
573722.000000
574464.000000
575267.000000
576120.000000
576934.000000
577677.000000
578446.000000
579289.000000
580119.000000
580874.000000
581657.000000
582677.000000
583666.000000
584473.000000
585271.000000
586325.000000
587237.000000
588045.000000
588906.000000
589813.000000
590642.000000
591481.000000
592382.000000
593199.000000
593953.000000
594748.000000
595575.000000
596367.000000
597118.000000
597937.000000
598804.000000
599632.000000
600386.000000
601178.000000
602041.000000
602838.000000
603579.000000
604351.000000
605153.000000
605995.000000
606742.000000
607515.000000
608341.000000
609174.000000
609928.000000
610692.000000
611505.000000
612348.000000
613105.000000
613869.000000
614742.000000
615594.000000
616358.000000
617104.000000
617906.000000
618791.000000
619572.000000
620349.000000
621180.000000
621995.000000
622756.000000
623523.000000
624354.000000
625154.000000
625890.000000
626656.000000
627509.000000
628384.000000
629137.000000
629890.000000
630660.000000
631535.000000
632357.000000
633143.000000
633972.000000
634872.000000
635730.000000
636475.000000
637241.000000
638062.000000
638953.000000
639710.000000
640464.000000
641309.000000
642170.000000
642941.000000
643712.000000
644581.000000
645557.000000
646333.000000
647081.000000
647867.000000
648678.000000
649477.000000
650237.000000
651100.000000
652035.000000
652814.000000
653582.000000
654373.000000
655189.000000
655945.000000
656725.000000
657552.000000
658327.000000
659077.000000
659882.000000
660707.000000
661501.000000
662235.000000
662980.000000
663833.000000
664665.000000
665417.000000
666144.000000
666920.000000
667880.000000
668631.000000
669318.000000
670013.000000
670785.000000
671587.000000
672404.000000
673159.000000
673957.000000
674801.000000
675603.000000
676334.000000
677074.000000
677851.000000
678628.000000
679354.000000
680044.000000
680753.000000
681557.000000
682370.000000
683115.000000
683889.000000
684728.000000
685618.000000
686373.000000
687115.000000
687899.000000
688683.000000
689422.000000
690153.000000
690933.000000
691784.000000
692549.000000
693289.000000
694077.000000
694880.000000
695641.000000
696378.000000
697141.000000
698002.000000
698780.000000
699538.000000
700324.000000
701182.000000
701936.000000
702665.000000
703419.000000
704248.000000
705033.000000
705763.000000
706514.000000
707383.000000
708361.000000
709172.000000
709976.000000
710773.000000
711557.000000
712295.000000
713041.000000
713871.000000
714772.000000
715560.000000
716349.000000
717198.000000
718073.000000
718829.000000
719574.000000
720467.000000
721333.000000
722098.000000
722893.000000
723758.000000
724636.000000
725418.000000
726213.000000
727088.000000
727953.000000
728718.000000
729509.000000
730630.000000
731544.000000
732308.000000
733040.000000
733800.000000
734861.000000
735697.000000
736670.000000
737799.000000
738737.000000
739537.000000
740372.000000
741262.000000
742061.000000
742846.000000
743695.000000
744761.000000
745597.000000
746375.000000
747155.000000
748063.000000
748882.000000
749645.000000
750528.000000
751624.000000
752604.000000
753407.000000
754214.000000
755225.000000
756046.000000
756808.000000
757631.000000
758504.000000
759385.000000
760171.000000
760976.000000
762175.000000
763047.000000
763829.000000
764631.000000
765505.000000
766299.000000
767089.000000
768302.000000
769463.000000
770449.000000
771411.000000
772448.000000
773390.000000
774280.000000
775266.000000
776204.000000
777058.000000
777878.000000
778911.000000
779898.000000
780725.000000
781710.000000
782669.000000
783555.000000
784368.000000
785215.000000
786247.000000
787044.000000
787808.000000
788576.000000
789559.000000
790356.000000
791107.000000
791835.000000
792575.000000
793273.000000
793948.000000
794798.000000
795614.000000
796343.000000
797065.000000
797839.000000
798597.000000
799317.000000
800046.000000
800908.000000
801750.000000
802493.000000
803241.000000
804048.000000
804856.000000
805600.000000
806370.000000
807189.000000
808022.000000
808768.000000
809550.000000
810388.000000
811198.000000
811966.000000
812796.000000
813678.000000
814513.000000
815263.000000
816035.000000
816873.000000
817653.000000
818410.000000
819144.000000
819995.000000
820840.000000
821684.000000
822433.000000
823163.000000
823919.000000
824736.000000
825537.000000
826287.000000
827076.000000
828010.000000
828835.000000
829572.000000
830324.000000
831124.000000
831997.000000
832774.000000
833500.000000
834248.000000
835058.000000
835903.000000
836653.000000
837388.000000
838133.000000
838970.000000
839717.000000
840445.000000
841191.000000
841971.000000
842699.000000
843407.000000
844071.000000
844746.000000
845431.000000
846179.000000
846961.000000
847692.000000
848449.000000
849286.000000
850089.000000
850817.000000
851533.000000
852281.000000
853051.000000
853821.000000
854555.000000
855341.000000
856218.000000
857030.000000
857808.000000
858660.000000
859563.000000
860345.000000
861118.000000
861962.000000
862914.000000
863706.000000
864473.000000
865296.000000
866200.000000
866987.000000
867762.000000
868612.000000
869494.000000
870291.000000
871073.000000
872269.000000
873276.000000
874065.000000
874795.000000
875652.000000
876452.000000
877225.000000
878098.000000
879322.000000
880311.000000
881147.000000
881937.000000
882737.000000
883489.000000
884247.000000
885148.000000
886100.000000
886897.000000
887663.000000
888560.000000
889415.000000
890213.000000
890986.000000
891864.000000
892698.000000
893481.000000
894224.000000
894991.000000
895853.000000
896646.000000
897401.000000
898210.000000
899109.000000
899954.000000
900694.000000
901437.000000
902262.000000
903104.000000
903891.000000
904685.000000
905573.000000
906729.000000
907641.000000
908440.000000
909215.000000
910104.000000
910922.000000
911684.000000
912496.000000
913399.000000
914347.000000
915138.000000
915932.000000
916843.000000
917687.000000
918460.000000
919272.000000
920118.000000
921011.000000
921804.000000
922587.000000
923397.000000
924289.000000
925115.000000
925865.000000
926635.000000
927797.000000
928822.000000
929605.000000
930335.000000
931094.000000
931952.000000
932767.000000
933577.000000
934845.000000
935960.000000
936789.000000
937570.000000
938369.000000
939216.000000
939991.000000
940768.000000
941643.000000
942731.000000
943563.000000
944398.000000
945549.000000
946414.000000
947208.000000
948010.000000
948940.000000
949742.000000
950619.000000
951834.000000
952902.000000
953823.000000
954821.000000
955953.000000
956817.000000
957617.000000
958829.000000
959823.000000
960595.000000
961362.000000
962281.000000
963450.000000
964391.000000
965436.000000
966409.000000
967285.000000
968184.000000
969252.000000
970238.000000
971063.000000
971852.000000
972633.000000
973555.000000
974406.000000
975202.000000
976187.000000
977367.000000
978228.000000
979054.000000
979851.000000
980653.000000
981387.000000
982097.000000
982838.000000
983707.000000
984474.000000
985191.000000
985867.000000
986572.000000
987262.000000
987997.000000
988863.000000
989633.000000
990364.000000
991106.000000
991911.000000
992700.000000
993436.000000
994146.000000
994897.000000
995715.000000
996504.000000
997237.000000
998030.000000
998842.000000
999647.000000
1000383.000000
1001149.000000
1001941.000000
1002785.000000
1003558.000000
1004321.000000
1005126.000000
1005994.000000
1006767.000000
1007502.000000
1008264.000000
1009208.000000
1010003.000000
1010760.000000
1011536.000000
1012353.000000
1013149.000000
1013890.000000
1014651.000000
1015407.000000
1016156.000000
1016866.000000
1017558.000000
1018294.000000
1019131.000000
1019881.000000
1020600.000000
1021410.000000
1022330.000000
1023153.000000
1023982.000000
1024878.000000
1025748.000000
1026516.000000
1027247.000000
1027986.000000
1028771.000000
1029540.000000
1030276.000000
1031011.000000
1031802.000000
1032600.000000
1033368.000000
1034106.000000
1034873.000000
1035728.000000
1036523.000000
1037258.000000
1037985.000000
1038781.000000
1039564.000000
1040294.000000
1041018.000000
1041754.000000
1042575.000000
1043372.000000
1044127.000000
1044930.000000
1045836.000000
1046636.000000
1047385.000000
1048147.000000
1048941.000000
1049695.000000
1050419.000000
1051165.000000
1051965.000000
1052787.000000
1053557.000000
1054321.000000
1055177.000000
1055973.000000
1056714.000000
1057478.000000
1058273.000000
1059064.000000
1059798.000000
1060523.000000
1061307.000000
1062091.000000
1062835.000000
1063553.000000
1064316.000000
1065157.000000
1065958.000000
1066694.000000
1067442.000000
1068254.000000
1069067.000000
1069813.000000
1070580.000000
1071384.000000
1072247.000000
1073000.000000
1073739.000000
1074493.000000
1075343.000000
1076102.000000
1076824.000000
1077574.000000
1078388.000000
1079225.000000
1079973.000000
1080725.000000
1081501.000000
1082386.000000
1083159.000000
1083896.000000
1084654.000000
1085446.000000
1086231.000000
1086953.000000
1087678.000000
1088461.000000
1089278.000000
1090058.000000
1090872.000000
1091699.000000
1092465.000000
1093202.000000
1093987.000000
1094835.000000
1095629.000000
1096378.000000
1097166.000000
1098001.000000
1098815.000000
1099566.000000
1100358.000000
1101271.000000
1102090.000000
1102843.000000
1103585.000000
1104438.000000
1105301.000000
1106085.000000
1106868.000000
1107670.000000
1108537.000000
1109305.000000
1110047.000000
1110887.000000
1111853.000000
1112763.000000
1113525.000000
1114309.000000
1115095.000000
1115906.000000
1116651.000000
1117384.000000
1118157.000000
1119014.000000
1119823.000000
1120561.000000
1121330.000000
1122196.000000
1122992.000000
1123745.000000
1124469.000000
1125213.000000
1126025.000000
1126770.000000
1127519.000000
1128306.000000
1129094.000000
1129894.000000
1130627.000000
1131388.000000
1132197.000000
1133033.000000
1133785.000000
1134558.000000
1135398.000000
1136189.000000
1136928.000000
1137657.000000
1138442.000000
1139263.000000
1140004.000000
1140723.000000
1141483.000000
1142368.000000
1143151.000000
1143889.000000
1144655.000000
1145455.000000
1146271.000000
1146999.000000
1147710.000000
1148439.000000
1149164.000000
1149882.000000
1150578.000000
1151284.000000
1152061.000000
1152826.000000
1153554.000000
1154267.000000
1155050.000000
1155918.000000
1156687.000000
1157431.000000
1158189.000000
1159079.000000
1159827.000000
1160569.000000
1161352.000000
1162195.000000
1162922.000000
1163630.000000
1164315.000000
1165026.000000
1165788.000000
1166494.000000
1167244.000000
1168148.000000
1168990.000000
1169765.000000
1170512.000000
1171265.000000
1172058.000000
1172809.000000
1173519.000000
1174238.000000
1175045.000000
1175944.000000
1176684.000000
1177396.000000
1178120.000000
1178909.000000
1179669.000000
1180389.000000
1181167.000000
1181987.000000
1182805.000000
1183561.000000
1184289.000000
1185059.000000
1186071.000000
1186930.000000
1187682.000000
1188428.000000
1189200.000000
1190027.000000
1190853.000000
1191615.000000
1192384.000000
1193531.000000
1194502.000000
1195298.000000
1196104.000000
1196956.000000
1197794.000000
1198595.000000
1199409.000000
1200522.000000
1201569.000000
1202366.000000
1203120.000000
1203935.000000
1205121.000000
1206005.000000
1206848.000000
1207845.000000
1208935.000000
1209808.000000
1210711.000000
1211633.000000
1212540.000000
1213357.000000
1214213.000000
1215130.000000
1216073.000000
1216891.000000
1217756.000000
1218759.000000
1219627.000000
1220470.000000
1221388.000000
1222349.000000
1223178.000000
1224040.000000
1224911.000000
1225767.000000
1226567.000000
1227342.000000
1228169.000000
1228975.000000
1229754.000000
1230629.000000
1231647.000000
1232464.000000
1233219.000000
1234038.000000
1234964.000000
1235804.000000
1236557.000000
1237313.000000
1238112.000000
1238975.000000
1239738.000000
1240518.000000
1241345.000000
1242172.000000
1242921.000000
1243693.000000
1244541.000000
1245367.000000
1246129.000000
1246908.000000
1247734.000000
1248625.000000
1249394.000000
1250162.000000
1250959.000000
1251722.000000
1252470.000000
1253314.000000
1254289.000000
1255115.000000
1255875.000000
1256636.000000
1257435.000000
1258222.000000
1258987.000000
1259749.000000
1260582.000000
1261369.000000
1262103.000000
1262807.000000
1263508.000000
1264209.000000
1264899.000000
1265588.000000
1266293.000000
1266988.000000
1267683.000000
1268334.000000
1268996.000000
1269690.000000
1270433.000000
1271167.000000
1271902.000000
1272588.000000
1273261.000000
1273954.000000
1274675.000000
1275385.000000
1276072.000000
1276758.000000
1277492.000000
1278261.000000
1278985.000000
1279679.000000
1280393.000000
1281162.000000
1281967.000000
1282680.000000
1283399.000000
1284169.000000
1285018.000000
1285776.000000
1286507.000000
1287268.000000
1288067.000000
1288837.000000
1289560.000000
1290345.000000
1291206.000000
1292008.000000
1292739.000000
1293472.000000
1294224.000000
1294996.000000
1295714.000000
1296439.000000
1297248.000000
1298024.000000
1298774.000000
1299534.000000
1300362.000000
1301142.000000
1301890.000000
1302669.000000
1303486.000000
1304299.000000
1305059.000000
1305840.000000
1306734.000000
1307544.000000
1308291.000000
1309068.000000
1309962.000000
1310891.000000
1311660.000000
1312426.000000
1313235.000000
1314057.000000
1314815.000000
1315591.000000
1316483.000000
1317464.000000
1318262.000000
1319059.000000
1319940.000000
1320763.000000
1321524.000000
1322326.000000
1323166.000000
1323959.000000
1324731.000000
1325576.000000
1326513.000000
1327319.000000
1328065.000000
1328862.000000
1329718.000000
1330515.000000
1331284.000000
1332134.000000
1333017.000000
1333850.000000
1334590.000000
1335325.000000
1336068.000000
1336819.000000
1337535.000000
1338270.000000
1339080.000000
1339825.000000
1340604.000000
1341455.000000
1342188.000000
1342969.000000
1343987.000000
1344871.000000
1345756.000000
1346837.000000
1347908.000000
1348789.000000
1349780.000000
1350838.000000
1351812.000000
1352684.000000
1353650.000000
1354665.000000
1355657.000000
1356565.000000
1357635.000000
1358676.000000
1359542.000000
1360547.000000
1361703.000000
1362672.000000
1363500.000000
1364397.000000
1365493.000000
1366365.000000
1367203.000000
1368226.000000
1369323.000000
1370211.000000
1371066.000000
1371955.000000
1373006.000000
1373897.000000
1374787.000000
1375726.000000
1376590.000000
1377365.000000
1378110.000000
1379206.000000
1380083.000000
1380904.000000
1381638.000000
1382330.000000
1383006.000000
1383789.000000
1385017.000000
1386110.000000
1387170.000000
1388102.000000
1389029.000000
1389882.000000
1390746.000000
1391509.000000
1392227.000000
1392962.000000
1394145.000000
1395181.000000
1395971.000000
1396727.000000
1397445.000000
1398165.000000
1398850.000000
1399595.000000
1400429.000000
1401160.000000
1401909.000000
1402745.000000
1403537.000000
1404282.000000
1405056.000000
1405894.000000
1406638.000000
1407365.000000
1408110.000000
1409133.000000
1409929.000000
1410665.000000
1411388.000000
1412146.000000
1412910.000000
1413672.000000
1414595.000000
1415803.000000
1416893.000000
1417894.000000
1418964.000000
1419954.000000
1420801.000000
1421690.000000
1422644.000000
1423518.000000
1424355.000000
1425264.000000
1426413.000000
1427262.000000
1428265.000000
1429343.000000
1430234.000000
1431056.000000
1431990.000000
1433061.000000
1433935.000000
1434824.000000
1435903.000000
1436880.000000
1437910.000000
1438986.000000
1439963.000000
1440795.000000
1441621.000000
1442483.000000
1443450.000000
1444244.000000
1445516.000000
1446703.000000
1447616.000000
1448536.000000
1449468.000000
1450349.000000
1451393.000000
1452415.000000
1453239.000000
1453995.000000
1454749.000000
1455570.000000
1456417.000000
1457184.000000
1458131.000000
1459014.000000
1459834.000000
1460691.000000
1461725.000000
1462548.000000
1463334.000000
1464133.000000
1465036.000000
1465838.000000
1466576.000000
1467331.000000
1468096.000000
1468913.000000
1469644.000000
1470377.000000
1471174.000000
1472009.000000
1472747.000000
1473465.000000
1474206.000000
1474997.000000
1475833.000000
1476570.000000
1477361.000000
1478131.000000
1478935.000000
1479666.000000
1480391.000000
1481130.000000
1481929.000000
1482684.000000
1483503.000000
1484646.000000
1485636.000000
1486422.000000
1487170.000000
1488053.000000
1488803.000000
1489527.000000
1490247.000000
1491139.000000
1491892.000000
1492661.000000
1493522.000000
1494366.000000
1495135.000000
1495940.000000
1496761.000000
1497637.000000
1498410.000000
1499155.000000
1499912.000000
1500811.000000
1501629.000000
1502374.000000
1503124.000000
1503920.000000
1504685.000000
1505414.000000
1506172.000000
1506987.000000
1507792.000000
1508544.000000
1509297.000000
1510126.000000
1510932.000000
1511665.000000
1512399.000000
1513170.000000
1513930.000000
1514652.000000
1515378.000000
1516111.000000
1516845.000000
1517545.000000
1518245.000000
1518975.000000
1519685.000000
1520371.000000
1521052.000000
1521710.000000
1522350.000000
1523002.000000
1523636.000000
1524253.000000
1524858.000000
1525456.000000
1526057.000000
1526678.000000
1527276.000000
1527887.000000
1528585.000000
1529245.000000
1529868.000000
1530479.000000
1531123.000000
1531782.000000
1532413.000000
1533034.000000
1533668.000000
1534366.000000
1535053.000000
1535707.000000
1536374.000000
1537084.000000
1537843.000000
1538554.000000
1539235.000000
1539932.000000
1540675.000000
1541441.000000
1542137.000000
1542907.000000
1543795.000000
1544563.000000
1545276.000000
1545995.000000
1546766.000000
1547525.000000
1548239.000000
1549006.000000
1549878.000000
1550669.000000
1551423.000000
1552207.000000
1553086.000000
1553879.000000
1554644.000000
1555464.000000
1556274.000000
1557043.000000
1557777.000000
1558526.000000
1559453.000000
1560263.000000
1561028.000000
1561858.000000
1562829.000000
1563685.000000
1564477.000000
1565326.000000
1566311.000000
1567116.000000
1567912.000000
1569030.000000
1569901.000000
1570676.000000
1571440.000000
1572311.000000
1573208.000000
1574042.000000
1575258.000000
1576308.000000
1577171.000000
1578233.000000
1579091.000000
1579876.000000
1580704.000000
1581520.000000
1582293.000000
1583073.000000
1584037.000000
1585153.000000
1586041.000000
1586896.000000
1587846.000000
1588673.000000
1589455.000000
1590301.000000
1591339.000000
1592180.000000
1593016.000000
1593892.000000
1594833.000000
1595644.000000
1596470.000000
1597333.000000
1598195.000000
1598982.000000
1599815.000000
1600670.000000
1601466.000000
1602210.000000
1602999.000000
1603882.000000
1604714.000000
1605460.000000
1606262.000000
1607104.000000
1607915.000000
1608670.000000
1609431.000000
1610219.000000
1610966.000000
1611676.000000
1612487.000000
1613328.000000
1614186.000000
1614961.000000
1615705.000000
1616445.000000
1617216.000000
1617978.000000
1618722.000000
1619500.000000
1620434.000000
1621261.000000
1622040.000000
1622908.000000
1623822.000000
1624618.000000
1625382.000000
1626253.000000
1627214.000000
1628009.000000
1628800.000000
1629605.000000
1630452.000000
1631212.000000
1632019.000000
1632836.000000
1633669.000000
1634431.000000
1635230.000000
1636044.000000
1636839.000000
1637579.000000
1638345.000000
1639197.000000
1640031.000000
1640796.000000
1641603.000000
1642586.000000
1643505.000000
1644268.000000
1645053.000000
1645861.000000
1646712.000000
1647463.000000
1648289.000000
1649181.000000
1650037.000000
1650813.000000
1651612.000000
1652471.000000
1653371.000000
1654165.000000
1654980.000000
1655826.000000
1656691.000000
1657501.000000
1658359.000000
1659265.000000
1660113.000000
1660876.000000
1661633.000000
1662400.000000
1663295.000000
1664077.000000
1664845.000000
1665742.000000
1666806.000000
1667627.000000
1668410.000000
1669250.000000
1670111.000000
1670903.000000
1671753.000000
1672934.000000
1673906.000000
1674746.000000
1675574.000000
1676454.000000
1677255.000000
1678017.000000
1678840.000000
1679831.000000
1680659.000000
1681425.000000
1682222.000000
1683083.000000
1683870.000000
1684662.000000
1685538.000000
1686352.000000
1687106.000000
1687845.000000
1688632.000000
1689484.000000
1690246.000000
1690994.000000
1691833.000000
1692719.000000
1693507.000000
1694269.000000
1695067.000000
1695913.000000
1696704.000000
1697444.000000
1698205.000000
1698980.000000
1699775.000000
1700505.000000
1701282.000000
1702142.000000
1702952.000000
1703705.000000
1704477.000000
1705348.000000
1706165.000000
1706910.000000
1707658.000000
1708426.000000
1709312.000000
1710082.000000
1710862.000000
1711690.000000
1712538.000000
1713307.000000
1714070.000000
1714876.000000
1715746.000000
1716504.000000
1717213.000000
1717917.000000
1718850.000000
1719614.000000
1720408.000000
1721303.000000
1722252.000000
1723096.000000
1723907.000000
1725070.000000
1726000.000000
1726781.000000
1727559.000000
1728631.000000
1729401.000000
1730113.000000
1730934.000000
1731868.000000
1732650.000000
1733413.000000
1734173.000000
1734928.000000
1735638.000000
1736354.000000
1737085.000000
1737789.000000
1738812.000000
1739639.000000
1740377.000000
1741084.000000
1741852.000000
1742653.000000
1743418.000000
1744151.000000
1744949.000000
1745939.000000
1746844.000000
1747611.000000
1748406.000000
1749248.000000
1750132.000000
1750897.000000
1751659.000000
1752468.000000
1753324.000000
1754094.000000
1754904.000000
1755994.000000
1756975.000000
1757768.000000
1758501.000000
1759250.000000
1760055.000000
1760805.000000
1761602.000000
1762504.000000
1763415.000000
1764186.000000
1764996.000000
1765880.000000
1766725.000000
1767493.000000
1768304.000000
1769136.000000
1769995.000000
1770769.000000
1771588.000000
1772470.000000
1773274.000000
1774027.000000
1774821.000000
1775840.000000
1776700.000000
1777460.000000
1778252.000000
1779120.000000
1779931.000000
1780719.000000
1781540.000000
1782661.000000
1783500.000000
1784307.000000
1785103.000000
1785966.000000
1786742.000000
1787551.000000
1788730.000000
1789788.000000
1790618.000000
1791415.000000
1792314.000000
1793094.000000
1793864.000000
1794719.000000
1795822.000000
1796701.000000
1797544.000000
1798404.000000
1799287.000000
1800073.000000
