ECG (ms)
666.000000
1444.000000
2254.000000
3094.000000
3866.000000
4678.000000
5583.000000
6431.000000
7315.000000
8241.000000
9050.000000
9859.000000
10700.000000
11487.000000
12292.000000
13183.000000
14052.000000
14866.000000
15712.000000
16548.000000
17308.000000
18103.000000
18965.000000
19736.000000
20507.000000
21344.000000
22141.000000
22936.000000
23797.000000
24605.000000
25374.000000
26191.000000
26998.000000
27761.000000
28558.000000
29345.000000
30084.000000
30860.000000
31687.000000
32495.000000
33282.000000
34148.000000
35048.000000
35864.000000
36745.000000
37672.000000
38511.000000
39362.000000
40258.000000
41083.000000
41870.000000
42770.000000
43702.000000
44533.000000
45419.000000
46317.000000
47126.000000
47977.000000
48884.000000
49698.000000
50536.000000
51412.000000
52205.000000
52971.000000
53871.000000
54773.000000
55638.000000
56521.000000
57346.000000
58129.000000
58978.000000
59863.000000
60692.000000
61555.000000
62479.000000
63269.000000
64108.000000
64999.000000
65818.000000
66656.000000
67524.000000
68320.000000
69162.000000
70106.000000
70985.000000
71859.000000
72806.000000
73682.000000
74496.000000
75341.000000
76137.000000
76890.000000
77732.000000
78665.000000
79485.000000
80358.000000
81301.000000
82182.000000
83006.000000
83867.000000
84681.000000
85460.000000
86287.000000
87134.000000
87915.000000
88772.000000
89691.000000
90523.000000
91365.000000
92204.000000
92992.000000
93772.000000
94583.000000
95374.000000
96131.000000
96936.000000
97736.000000
98500.000000
99336.000000
100194.000000
100994.000000
101787.000000
102597.000000
103361.000000
104105.000000
104896.000000
105715.000000
106505.000000
107291.000000
108106.000000
108877.000000
109627.000000
110386.000000
111124.000000
111874.000000
112636.000000
113453.000000
114262.000000
115103.000000
115975.000000
116771.000000
117594.000000
118441.000000
119242.000000
120008.000000
120805.000000
121611.000000
122398.000000
123211.000000
124066.000000
124892.000000
125651.000000
126423.000000
127188.000000
127927.000000
128655.000000
129405.000000
130188.000000
130955.000000
131678.000000
132440.000000
133235.000000
134017.000000
134746.000000
135476.000000
136211.000000
136970.000000
137715.000000
138496.000000
139324.000000
140126.000000
140887.000000
141660.000000
142497.000000
143302.000000
144105.000000
144958.000000
145835.000000
146628.000000
147494.000000
148407.000000
149193.000000
149951.000000
150753.000000
151609.000000
152419.000000
153281.000000
154178.000000
155014.000000
155819.000000
156618.000000
157420.000000
158155.000000
158879.000000
159629.000000
160431.000000
161180.000000
161998.000000
162914.000000
163767.000000
164677.000000
165554.000000
166370.000000
167222.000000
168081.000000
168879.000000
169705.000000
170563.000000
171383.000000
172235.000000
173140.000000
174019.000000
174877.000000
175799.000000
176681.000000
177500.000000
178418.000000
179383.000000
180256.000000
181200.000000
182113.000000
182924.000000
183751.000000
184622.000000
185542.000000
186367.000000
187306.000000
188260.000000
189063.000000
189845.000000
190688.000000
191562.000000
192370.000000
193320.000000
194311.000000
195164.000000
195989.000000
196834.000000
197630.000000
198398.000000
199241.000000
200225.000000
201113.000000
202042.000000
202959.000000
203758.000000
204573.000000
205445.000000
206272.000000
207073.000000
207987.000000
208939.000000
209809.000000
210768.000000
211702.000000
212495.000000
213304.000000
214224.000000
215107.000000
215915.000000
216778.000000
217713.000000
218530.000000
219394.000000
220302.000000
221104.000000
221938.000000
222831.000000
223632.000000
224406.000000
225211.000000
226081.000000
226895.000000
227756.000000
228747.000000
229577.000000
230356.000000
231190.000000
232034.000000
232831.000000
233645.000000
234548.000000
235446.000000
236250.000000
237075.000000
237892.000000
238641.000000
239418.000000
240249.000000
241051.000000
241805.000000
242611.000000
243511.000000
244311.000000
245065.000000
245847.000000
246657.000000
247430.000000
248224.000000
249072.000000
249909.000000
250658.000000
251393.000000
252123.000000
252845.000000
253608.000000
254470.000000
255302.000000
256098.000000
256935.000000
257770.000000
258614.000000
259422.000000
260172.000000
260933.000000
261759.000000
262590.000000
263401.000000
264287.000000
265151.000000
265924.000000
266678.000000
267442.000000
268179.000000
268891.000000
269625.000000
270335.000000
271038.000000
271834.000000
272588.000000
273473.000000
274394.000000
275220.000000
276025.000000
276922.000000
277801.000000
278568.000000
279326.000000
280111.000000
280950.000000
281747.000000
282594.000000
283526.000000
284386.000000
285221.000000
286088.000000
286951.000000
287707.000000
288480.000000
289292.000000
290205.000000
290973.000000
291770.000000
292702.000000
293540.000000
294374.000000
295226.000000
296086.000000
296908.000000
297723.000000
298560.000000
299350.000000
300225.000000
301200.000000
302057.000000
302886.000000
303756.000000
304638.000000
305456.000000
306372.000000
307350.000000
308242.000000
308998.000000
309720.000000
310413.000000
311086.000000
311758.000000
312548.000000
313276.000000
313985.000000
314670.000000
315357.000000
316055.000000
316772.000000
317490.000000
318214.000000
318963.000000
319718.000000
320460.000000
321192.000000
321907.000000
322619.000000
323308.000000
323979.000000
324649.000000
325351.000000
326098.000000
326930.000000
327800.000000
328689.000000
329464.000000
330200.000000
330959.000000
331748.000000
332527.000000
333366.000000
334260.000000
335208.000000
336112.000000
337101.000000
338031.000000
338857.000000
339691.000000
340513.000000
341276.000000
342069.000000
343000.000000
343938.000000
344768.000000
345612.000000
346523.000000
347380.000000
348207.000000
349163.000000
350102.000000
350922.000000
351736.000000
352553.000000
353315.000000
354147.000000
355149.000000
356088.000000
356895.000000
357774.000000
358691.000000
359527.000000
360340.000000
361186.000000
362018.000000
362813.000000
363657.000000
364579.000000
365501.000000
366341.000000
367250.000000
368198.000000
369096.000000
369969.000000
370892.000000
371810.000000
372663.000000
373579.000000
374466.000000
375289.000000
376103.000000
377015.000000
377922.000000
378749.000000
379674.000000
380635.000000
381465.000000
382305.000000
383210.000000
384110.000000
384916.000000
385742.000000
386613.000000
387400.000000
388221.000000
389167.000000
390081.000000
390932.000000
391896.000000
392913.000000
393799.000000
394733.000000
395632.000000
396422.000000
397186.000000
397938.000000
398700.000000
399479.000000
400473.000000
401510.000000
402390.000000
403312.000000
404293.000000
405117.000000
405950.000000
406821.000000
407674.000000
408468.000000
409332.000000
410253.000000
411091.000000
411960.000000
412901.000000
413814.000000
414701.000000
415624.000000
416543.000000
417338.000000
418167.000000
419130.000000
419978.000000
420859.000000
421784.000000
422647.000000
423515.000000
424325.000000
425131.000000
425887.000000
426691.000000
427607.000000
428449.000000
429235.000000
430109.000000
431067.000000
431912.000000
432708.000000
433533.000000
434304.000000
435059.000000
435831.000000
436653.000000
437461.000000
438240.000000
439125.000000
440049.000000
440845.000000
441713.000000
442642.000000
443504.000000
444394.000000
445296.000000
446113.000000
446892.000000
447733.000000
448636.000000
449477.000000
450317.000000
451195.000000
452074.000000
452899.000000
453761.000000
454658.000000
455474.000000
456310.000000
457189.000000
458005.000000
458824.000000
459645.000000
460445.000000
461197.000000
461985.000000
462896.000000
463747.000000
464602.000000
465531.000000
466423.000000
467205.000000
467982.000000
468829.000000
469616.000000
470403.000000
471251.000000
472153.000000
472939.000000
473823.000000
474745.000000
475590.000000
476444.000000
477350.000000
478173.000000
478957.000000
479744.000000
480521.000000
481264.000000
482006.000000
482822.000000
483680.000000
484500.000000
485361.000000
486225.000000
487025.000000
487886.000000
488804.000000
489667.000000
490508.000000
491397.000000
492254.000000
493029.000000
493830.000000
494705.000000
495583.000000
496467.000000
497351.000000
498197.000000
498967.000000
499756.000000
500570.000000
501360.000000
502141.000000
503043.000000
503936.000000
504841.000000
505804.000000
506693.000000
507502.000000
508358.000000
509212.000000
509971.000000
510754.000000
511635.000000
512507.000000
513333.000000
514220.000000
515118.000000
515884.000000
516662.000000
517489.000000
518280.000000
519076.000000
520050.000000
521019.000000
521883.000000
522860.000000
523835.000000
524712.000000
525644.000000
526583.000000
527422.000000
528324.000000
529246.000000
530053.000000
531004.000000
532059.000000
532950.000000
533916.000000
534927.000000
535792.000000
536718.000000
537671.000000
538532.000000
539410.000000
540336.000000
541235.000000
542035.000000
542981.000000
543975.000000
544898.000000
546028.000000
547041.000000
548015.000000
549071.000000
550034.000000
550907.000000
551842.000000
552780.000000
553639.000000
554556.000000
555502.000000
556342.000000
557287.000000
558204.000000
559026.000000
559996.000000
561036.000000
561977.000000
562931.000000
563876.000000
564720.000000
565567.000000
566530.000000
567416.000000
568401.000000
569444.000000
570384.000000
571392.000000
572423.000000
573335.000000
574258.000000
575177.000000
575996.000000
576899.000000
577898.000000
578818.000000
579756.000000
580775.000000
581710.000000
582678.000000
583656.000000
584510.000000
585403.000000
586278.000000
587068.000000
587891.000000
588813.000000
589668.000000
590586.000000
591553.000000
592389.000000
593196.000000
594141.000000
595046.000000
595849.000000
596736.000000
597711.000000
598542.000000
599400.000000
600290.000000
601152.000000
601949.000000
602822.000000
603721.000000
604544.000000
605435.000000
606261.000000
607024.000000
607814.000000
608694.000000
609559.000000
610427.000000
611360.000000
612254.000000
613087.000000
613958.000000
614853.000000
615726.000000
616623.000000
617414.000000
618150.000000
618936.000000
619834.000000
620747.000000
621579.000000
622536.000000
623467.000000
624323.000000
625252.000000
626210.000000
627050.000000
627892.000000
628757.000000
629589.000000
630360.000000
631209.000000
632201.000000
633100.000000
634070.000000
634997.000000
635815.000000
636615.000000
637394.000000
638126.000000
638838.000000
639603.000000
640533.000000
641396.000000
642332.000000
643324.000000
644217.000000
645096.000000
646025.000000
646876.000000
647721.000000
648623.000000
649499.000000
650300.000000
651157.000000
652083.000000
652947.000000
653816.000000
654809.000000
655725.000000
656544.000000
657410.000000
658343.000000
659210.000000
660132.000000
661105.000000
661939.000000
662709.000000
663522.000000
664426.000000
665237.000000
666188.000000
667167.000000
668019.000000
668968.000000
669923.000000
670782.000000
671754.000000
672679.000000
673473.000000
674319.000000
675233.000000
676052.000000
676958.000000
678007.000000
678931.000000
679820.000000
680812.000000
681709.000000
682590.000000
683529.000000
684378.000000
685143.000000
685983.000000
686956.000000
687816.000000
688781.000000
689745.000000
690583.000000
691482.000000
692411.000000
693234.000000
694098.000000
695004.000000
695849.000000
696683.000000
697593.000000
698499.000000
699365.000000
700267.000000
701136.000000
701902.000000
702712.000000
703674.000000
704571.000000
705380.000000
706297.000000
707270.000000
708146.000000
709093.000000
710030.000000
710865.000000
711770.000000
712724.000000
713610.000000
714413.000000
715295.000000
716223.000000
717084.000000
718077.000000
719047.000000
719910.000000
720824.000000
721764.000000
722599.000000
723375.000000
724253.000000
725132.000000
725924.000000
726815.000000
727775.000000
728616.000000
729565.000000
730508.000000
731312.000000
732151.000000
733038.000000
733907.000000
734705.000000
735564.000000
736468.000000
737282.000000
738121.000000
739052.000000
739924.000000
740750.000000
741659.000000
742539.000000
743379.000000
744288.000000
745211.000000
746025.000000
746875.000000
747751.000000
748544.000000
749370.000000
750286.000000
751127.000000
751986.000000
752875.000000
753682.000000
754477.000000
755311.000000
756174.000000
756972.000000
757841.000000
758710.000000
759493.000000
760295.000000
761165.000000
761979.000000
762813.000000
763694.000000
764541.000000
765352.000000
766270.000000
767196.000000
768020.000000
768802.000000
769626.000000
770508.000000
771325.000000
772210.000000
773228.000000
774162.000000
775000.000000
775937.000000
776884.000000
777696.000000
778521.000000
779403.000000
780231.000000
781117.000000
782058.000000
782943.000000
783730.000000
784581.000000
785497.000000
786353.000000
787279.000000
788245.000000
789105.000000
789969.000000
790863.000000
791685.000000
792468.000000
793258.000000
794132.000000
794937.000000
795747.000000
796607.000000
797484.000000
798284.000000
799126.000000
800001.000000
800783.000000
801558.000000
802360.000000
803183.000000
803946.000000
804774.000000
805632.000000
806423.000000
807258.000000
808189.000000
809003.000000
809742.000000
810457.000000
811176.000000
811891.000000
812608.000000
813338.000000
814142.000000
814949.000000
815746.000000
816562.000000
817327.000000
818065.000000
818825.000000
819621.000000
820385.000000
821154.000000
821955.000000
822814.000000
823606.000000
824458.000000
825358.000000
826243.000000
827177.000000
828099.000000
828919.000000
829772.000000
830669.000000
831463.000000
832309.000000
833269.000000
834149.000000
835044.000000
836049.000000
836946.000000
837792.000000
838704.000000
839582.000000
840385.000000
841270.000000
842175.000000
842978.000000
843821.000000
844817.000000
845746.000000
846638.000000
847520.000000
848289.000000
849083.000000
849869.000000
850649.000000
851401.000000
852129.000000
852880.000000
853860.000000
854810.000000
855807.000000
856752.000000
857675.000000
858654.000000
859560.000000
860416.000000
861324.000000
862238.000000
863166.000000
864318.000000
865509.000000
866519.000000
867457.000000
868303.000000
869175.000000
870126.000000
871040.000000
872014.000000
873055.000000
874036.000000
875045.000000
876000.000000
876835.000000
877716.000000
878631.000000
879472.000000
880364.000000
881284.000000
882127.000000
883020.000000
883962.000000
884830.000000
885617.000000
886468.000000
887404.000000
888291.000000
889200.000000
890080.000000
890907.000000
891799.000000
892752.000000
893603.000000
894490.000000
895460.000000
896389.000000
897301.000000
898245.000000
899155.000000
900127.000000
901080.000000
901958.000000
902839.000000
903731.000000
904601.000000
905573.000000
906486.000000
907332.000000
908306.000000
909267.000000
910131.000000
911096.000000
912047.000000
912886.000000
913765.000000
914724.000000
915637.000000
916546.000000
917499.000000
918419.000000
919273.000000
920207.000000
921218.000000
922123.000000
923125.000000
924133.000000
925022.000000
925981.000000
926923.000000
927767.000000
928684.000000
929677.000000
930551.000000
931508.000000
932541.000000
933456.000000
934374.000000
935331.000000
936212.000000
937131.000000
938138.000000
939023.000000
939897.000000
940822.000000
941706.000000
942570.000000
943510.000000
944437.000000
945384.000000
946425.000000
947419.000000
948266.000000
949155.000000
950116.000000
950958.000000
951788.000000
952748.000000
953679.000000
954597.000000
955613.000000
956576.000000
957447.000000
958401.000000
959355.000000
960217.000000
961181.000000
962152.000000
963028.000000
963969.000000
964932.000000
965800.000000
966747.000000
967672.000000
968594.000000
969609.000000
970631.000000
971547.000000
972519.000000
973473.000000
974306.000000
975189.000000
976106.000000
976924.000000
977786.000000
978683.000000
979622.000000
980584.000000
981592.000000
982501.000000
983406.000000
984331.000000
985216.000000
986041.000000
987007.000000
987961.000000
988810.000000
989709.000000
990670.000000
991552.000000
992452.000000
993346.000000
994168.000000
995021.000000
996005.000000
996919.000000
997829.000000
998763.000000
999620.000000
1000439.000000
1001289.000000
1002223.000000
1003047.000000
1003878.000000
1004739.000000
1005574.000000
1006348.000000
1007149.000000
1007990.000000
1008767.000000
1009622.000000
1010532.000000
1011338.000000
1012144.000000
1013040.000000
1013853.000000
1014601.000000
1015443.000000
1016390.000000
1017192.000000
1018006.000000
1018900.000000
1019750.000000
1020583.000000
1021535.000000
1022479.000000
1023325.000000
1024209.000000
1025127.000000
1026007.000000
1026825.000000
1027753.000000
1028677.000000
1029504.000000
1030385.000000
1031322.000000
1032205.000000
1033001.000000
1033855.000000
1034898.000000
1035874.000000
1036756.000000
1037660.000000
1038541.000000
1039347.000000
1040215.000000
1041156.000000
1041973.000000
1042836.000000
1043797.000000
1044678.000000
1045456.000000
1046321.000000
1047256.000000
1048092.000000
1048912.000000
1049772.000000
1050612.000000
1051383.000000
1052172.000000
1053104.000000
1054016.000000
1054823.000000
1055700.000000
1056646.000000
1057519.000000
1058331.000000
1059201.000000
1060038.000000
1060790.000000
1061538.000000
1062350.000000
1063248.000000
1064086.000000
1065091.000000
1066090.000000
1066994.000000
1067909.000000
1068795.000000
1069574.000000
1070341.000000
1071217.000000
1072053.000000
1072919.000000
1073880.000000
1074826.000000
1075718.000000
1076656.000000
1077586.000000
1078405.000000
1079205.000000
1080084.000000
1080945.000000
1081790.000000
1082808.000000
1083783.000000
1084712.000000
1085730.000000
1086712.000000
1087556.000000
1088405.000000
1089327.000000
1090268.000000
1091199.000000
1092221.000000
1093182.000000
1094073.000000
1095040.000000
1095986.000000
1096795.000000
1097699.000000
1098636.000000
1099477.000000
1100384.000000
1101416.000000
1102319.000000
1103152.000000
1104087.000000
1105026.000000
1105849.000000
1106729.000000
1107648.000000
1108491.000000
1109320.000000
1110296.000000
1111313.000000
1112188.000000
1113013.000000
1113895.000000
1114773.000000
1115544.000000
1116374.000000
1117339.000000
1118221.000000
1119066.000000
1120072.000000
1120950.000000
1121803.000000
1122661.000000
1123499.000000
1124331.000000
1125237.000000
1126153.000000
1127039.000000
1127967.000000
1128878.000000
1129703.000000
1130556.000000
1131476.000000
1132320.000000
1133079.000000
1133792.000000
1134547.000000
1135280.000000
1135995.000000
1136762.000000
1137498.000000
1138230.000000
1138956.000000
1139665.000000
1140354.000000
1141055.000000
1141781.000000
1142558.000000
1143323.000000
1144071.000000
1144842.000000
1145580.000000
1146278.000000
1146984.000000
1147726.000000
1148517.000000
1149269.000000
1150081.000000
1150923.000000
1151769.000000
1152560.000000
1153393.000000
1154313.000000
1155164.000000
1155972.000000
1156780.000000
1157599.000000
1158362.000000
1159126.000000
1159921.000000
1160679.000000
1161429.000000
1162310.000000
1163254.000000
1164057.000000
1164863.000000
1165662.000000
1166498.000000
1167257.000000
1168031.000000
1168857.000000
1169720.000000
1170663.000000
1171701.000000
1172596.000000
1173376.000000
1174223.000000
1175061.000000
1175790.000000
1176483.000000
1177185.000000
1178076.000000
1179006.000000
1179887.000000
1180710.000000
1181481.000000
1182194.000000
1182886.000000
1183572.000000
1184249.000000
1184938.000000
1185610.000000
1186287.000000
1186960.000000
1187640.000000
1188345.000000
1189050.000000
1189784.000000
1190494.000000
1191187.000000
1191874.000000
1192542.000000
1193208.000000
1193879.000000
1194551.000000
