ECG (ms)
517.000000
1197.000000
2047.000000
2862.000000
3621.000000
4320.000000
5045.000000
5907.000000
6646.000000
7363.000000
8057.000000
8755.000000
9477.000000
10167.000000
10832.000000
11499.000000
12159.000000
12811.000000
13489.000000
14158.000000
14808.000000
15488.000000
16254.000000
17036.000000
17808.000000
18502.000000
19168.000000
19891.000000
20735.000000
21516.000000
22253.000000
22926.000000
23616.000000
24341.000000
25052.000000
25778.000000
26485.000000
27208.000000
27940.000000
28651.000000
29376.000000
30134.000000
30863.000000
31667.000000
32475.000000
33236.000000
34007.000000
34763.000000
35507.000000
36296.000000
37095.000000
37900.000000
38665.000000
39427.000000
40209.000000
41005.000000
41943.000000
42707.000000
43391.000000
44075.000000
45087.000000
46077.000000
47006.000000
47747.000000
48430.000000
49091.000000
49747.000000
50503.000000
51583.000000
52556.000000
53492.000000
54415.000000
55279.000000
56096.000000
56863.000000
57636.000000
58555.000000
59463.000000
60301.000000
61142.000000
61954.000000
62709.000000
63502.000000
64342.000000
65141.000000
65960.000000
66875.000000
67770.000000
68628.000000
69443.000000
70176.000000
70874.000000
71560.000000
72333.000000
73170.000000
74098.000000
74931.000000
75782.000000
76700.000000
77636.000000
78447.000000
79200.000000
79969.000000
80839.000000
81654.000000
82434.000000
83322.000000
84197.000000
84999.000000
85760.000000
86497.000000
87230.000000
87929.000000
88635.000000
89400.000000
90124.000000
90877.000000
91620.000000
92321.000000
93072.000000
94102.000000
95052.000000
95809.000000
96540.000000
97318.000000
98156.000000
98912.000000
99619.000000
100383.000000
101417.000000
102324.000000
103057.000000
103798.000000
104735.000000
105645.000000
106438.000000
107223.000000
108191.000000
109100.000000
109923.000000
110665.000000
111363.000000
112071.000000
113051.000000
113916.000000
114659.000000
115361.000000
116080.000000
116986.000000
117948.000000
118861.000000
119702.000000
120481.000000
121193.000000
121886.000000
122881.000000
123889.000000
124770.000000
125535.000000
126249.000000
127032.000000
128024.000000
128944.000000
129770.000000
130515.000000
131228.000000
131941.000000
132787.000000
133698.000000
134510.000000
135223.000000
135929.000000
136689.000000
137454.000000
138168.000000
138860.000000
139609.000000
140589.000000
141475.000000
142270.000000
143018.000000
143734.000000
144419.000000
145097.000000
145826.000000
146787.000000
147734.000000
148643.000000
149499.000000
150297.000000
151033.000000
151760.000000
152631.000000
153619.000000
154581.000000
155455.000000
156273.000000
157069.000000
157806.000000
158560.000000
159611.000000
160610.000000
161536.000000
162354.000000
163112.000000
163826.000000
164580.000000
165704.000000
166681.000000
167624.000000
168546.000000
169361.000000
170101.000000
170860.000000
171961.000000
173025.000000
174028.000000
174976.000000
175860.000000
176643.000000
177355.000000
178102.000000
179243.000000
180272.000000
181256.000000
182172.000000
182997.000000
183721.000000
184408.000000
185171.000000
186237.000000
187255.000000
188191.000000
189072.000000
189817.000000
190502.000000
191175.000000
191845.000000
192574.000000
193615.000000
194590.000000
195550.000000
196478.000000
197366.000000
198211.000000
198972.000000
199692.000000
200402.000000
201246.000000
202320.000000
203358.000000
204320.000000
205220.000000
206052.000000
206815.000000
207531.000000
208245.000000
209326.000000
210366.000000
211346.000000
212286.000000
213184.000000
214032.000000
214838.000000
215579.000000
216304.000000
217268.000000
218331.000000
219353.000000
220327.000000
221258.000000
222130.000000
222965.000000
223760.000000
224489.000000
225268.000000
226333.000000
227326.000000
228293.000000
229204.000000
230027.000000
230780.000000
231486.000000
232210.000000
233310.000000
234393.000000
235410.000000
236363.000000
237275.000000
238097.000000
238939.000000
239738.000000
240452.000000
241155.000000
242241.000000
243261.000000
244199.000000
245012.000000
245786.000000
246510.000000
247187.000000
247853.000000
248544.000000
249632.000000
250648.000000
251595.000000
252450.000000
253259.000000
254060.000000
254815.000000
255526.000000
256251.000000
257171.000000
258007.000000
258827.000000
259617.000000
260366.000000
261072.000000
261761.000000
262480.000000
263438.000000
264323.000000
265086.000000
265809.000000
266516.000000
267209.000000
267877.000000
268558.000000
269326.000000
270303.000000
271185.000000
272010.000000
272804.000000
273568.000000
274277.000000
274960.000000
275654.000000
276434.000000
277467.000000
278417.000000
279252.000000
280029.000000
280793.000000
281517.000000
282195.000000
282868.000000
283535.000000
284204.000000
284879.000000
285573.000000
286272.000000
287082.000000
287963.000000
288784.000000
289497.000000
290195.000000
290914.000000
291617.000000
292337.000000
293305.000000
294301.000000
295237.000000
296100.000000
296933.000000
297721.000000
298434.000000
299125.000000
299881.000000
300977.000000
301975.000000
302917.000000
303782.000000
304578.000000
305287.000000
305996.000000
307099.000000
308138.000000
309119.000000
310073.000000
310993.000000
311781.000000
312489.000000
313197.000000
314290.000000
315309.000000
316268.000000
317184.000000
318017.000000
318825.000000
319571.000000
320303.000000
321360.000000
322393.000000
323365.000000
324236.000000
325062.000000
325811.000000
326519.000000
327244.000000
328361.000000
329386.000000
330355.000000
331274.000000
332158.000000
333029.000000
333787.000000
334508.000000
335512.000000
336563.000000
337568.000000
338546.000000
339467.000000
340305.000000
341036.000000
341738.000000
342472.000000
343553.000000
344584.000000
345595.000000
346585.000000
347440.000000
348179.000000
348869.000000
349570.000000
350662.000000
351679.000000
352661.000000
353573.000000
354418.000000
355267.000000
356041.000000
356752.000000
357473.000000
358543.000000
359568.000000
360489.000000
361346.000000
362177.000000
362972.000000
363694.000000
364400.000000
365307.000000
366334.000000
367259.000000
368084.000000
368863.000000
369612.000000
370313.000000
371013.000000
372084.000000
373095.000000
373979.000000
374798.000000
375616.000000
376370.000000
377066.000000
377760.000000
378620.000000
379599.000000
380363.000000
381073.000000
381768.000000
382470.000000
383196.000000
383924.000000
384617.000000
385285.000000
385963.000000
386734.000000
387716.000000
388606.000000
389432.000000
390203.000000
390992.000000
391749.000000
392463.000000
393182.000000
394218.000000
395180.000000
396060.000000
396856.000000
397610.000000
398298.000000
398964.000000
399634.000000
400316.000000
401401.000000
402383.000000
403320.000000
404317.000000
405294.000000
406295.000000
407237.000000
408029.000000
408769.000000
409844.000000
410950.000000
411982.000000
412957.000000
413895.000000
414769.000000
415533.000000
416247.000000
416991.000000
418117.000000
419165.000000
420186.000000
421167.000000
422076.000000
422890.000000
423644.000000
424372.000000
425126.000000
426238.000000
427291.000000
428288.000000
429250.000000
430178.000000
431094.000000
431880.000000
432614.000000
433328.000000
434060.000000
435122.000000
436147.000000
437091.000000
437992.000000
438817.000000
439591.000000
440308.000000
441008.000000
441765.000000
442843.000000
443816.000000
444681.000000
445450.000000
446156.000000
446868.000000
447578.000000
448277.000000
448992.000000
449784.000000
450533.000000
451242.000000
451936.000000
452648.000000
453549.000000
454449.000000
455308.000000
456115.000000
456879.000000
457598.000000
458293.000000
458994.000000
460000.000000
460938.000000
461784.000000
462584.000000
463345.000000
464062.000000
464774.000000
465556.000000
466554.000000
467509.000000
468345.000000
469159.000000
469940.000000
470654.000000
471342.000000
472051.000000
473093.000000
474048.000000
474904.000000
475708.000000
476489.000000
477215.000000
477922.000000
478679.000000
479703.000000
480646.000000
481481.000000
482221.000000
482936.000000
483701.000000
484748.000000
485620.000000
486358.000000
487073.000000
487791.000000
488556.000000
489475.000000
490357.000000
491213.000000
492039.000000
492824.000000
493570.000000
494286.000000
495013.000000
496018.000000
497009.000000
497953.000000
498870.000000
499658.000000
500387.000000
501134.000000
502201.000000
503208.000000
504194.000000
505143.000000
506012.000000
506773.000000
507491.000000
508209.000000
509345.000000
510431.000000
511431.000000
512403.000000
513285.000000
514053.000000
514789.000000
515863.000000
516893.000000
517892.000000
518824.000000
519619.000000
520349.000000
521082.000000
522020.000000
523008.000000
523907.000000
524705.000000
525441.000000
526144.000000
526898.000000
527928.000000
528886.000000
529839.000000
530741.000000
531507.000000
532224.000000
532940.000000
533991.000000
535026.000000
535983.000000
536837.000000
537582.000000
538284.000000
538982.000000
539906.000000
540780.000000
541512.000000
542299.000000
543314.000000
544105.000000
544830.000000
545587.000000
546700.000000
547736.000000
548697.000000
549540.000000
550456.000000
551251.000000
551982.000000
552739.000000
553828.000000
554884.000000
555922.000000
556924.000000
557878.000000
558712.000000
559446.000000
560149.000000
560912.000000
562020.000000
563046.000000
564007.000000
564897.000000
565728.000000
566508.000000
567216.000000
567905.000000
568652.000000
569771.000000
570795.000000
571721.000000
572538.000000
573290.000000
573982.000000
574661.000000
575338.000000
576042.000000
577074.000000
577869.000000
578588.000000
579346.000000
580158.000000
581041.000000
581842.000000
582577.000000
583285.000000
584002.000000
585040.000000
586087.000000
587060.000000
587998.000000
588895.000000
589785.000000
590612.000000
591372.000000
592100.000000
592818.000000
593887.000000
594991.000000
595969.000000
596956.000000
597873.000000
598697.000000
599445.000000
600162.000000
600930.000000
602072.000000
603162.000000
604187.000000
605185.000000
606131.000000
607035.000000
607839.000000
608574.000000
609304.000000
610373.000000
611386.000000
612352.000000
613273.000000
614099.000000
614893.000000
615679.000000
616405.000000
617106.000000
617840.000000
618929.000000
619941.000000
620878.000000
621719.000000
622515.000000
623255.000000
623968.000000
624711.000000
625625.000000
626420.000000
627201.000000
628023.000000
628807.000000
629516.000000
630211.000000
630948.000000
632024.000000
633034.000000
633994.000000
634860.000000
635625.000000
636347.000000
637061.000000
637854.000000
638924.000000
639918.000000
640824.000000
641768.000000
642706.000000
643595.000000
644359.000000
645081.000000
645899.000000
647011.000000
648023.000000
648951.000000
649785.000000
650540.000000
651260.000000
651972.000000
652732.000000
653802.000000
654767.000000
655625.000000
656431.000000
657191.000000
657914.000000
658645.000000
659508.000000
660482.000000
661368.000000
662209.000000
663089.000000
663842.000000
664559.000000
665288.000000
666353.000000
667387.000000
668326.000000
669181.000000
669987.000000
670741.000000
671458.000000
672164.000000
672945.000000
673811.000000
674757.000000
675649.000000
676468.000000
677276.000000
678086.000000
678861.000000
679586.000000
680313.000000
681374.000000
682390.000000
683333.000000
684185.000000
684992.000000
685777.000000
686502.000000
687233.000000
688310.000000
689335.000000
690281.000000
691218.000000
692095.000000
692895.000000
693630.000000
694352.000000
695116.000000
696223.000000
697254.000000
698215.000000
699083.000000
699905.000000
700681.000000
701401.000000
702115.000000
703097.000000
704151.000000
705180.000000
706182.000000
707135.000000
707922.000000
708643.000000
709367.000000
710214.000000
711274.000000
712305.000000
713245.000000
714067.000000
714811.000000
715537.000000
716315.000000
717404.000000
718422.000000
719411.000000
720348.000000
721157.000000
721892.000000
722651.000000
723705.000000
724683.000000
725611.000000
726474.000000
727287.000000
728042.000000
728763.000000
729537.000000
730582.000000
731525.000000
732372.000000
733246.000000
734035.000000
734765.000000
735492.000000
736479.000000
737488.000000
738412.000000
739244.000000
740063.000000
740872.000000
741608.000000
742336.000000
743141.000000
743881.000000
744593.000000
745320.000000
746105.000000
746862.000000
747613.000000
748331.000000
749017.000000
749705.000000
750444.000000
751458.000000
752400.000000
753263.000000
754073.000000
754844.000000
755612.000000
756330.000000
757006.000000
757676.000000
758368.000000
759414.000000
760418.000000
761402.000000
762333.000000
763290.000000
764199.000000
765020.000000
765777.000000
766481.000000
767164.000000
767859.000000
768900.000000
769943.000000
770884.000000
771738.000000
772575.000000
773376.000000
774148.000000
774879.000000
775573.000000
776277.000000
777291.000000
778286.000000
779204.000000
780028.000000
780817.000000
781593.000000
782311.000000
783004.000000
783725.000000
784778.000000
785765.000000
786676.000000
787496.000000
788274.000000
789038.000000
789755.000000
790446.000000
791142.000000
791925.000000
792991.000000
793996.000000
794924.000000
795757.000000
796557.000000
797307.000000
798016.000000
798727.000000
799762.000000
800742.000000
801600.000000
802405.000000
803182.000000
803914.000000
804618.000000
805305.000000
806015.000000
807065.000000
808064.000000
808957.000000
809746.000000
810502.000000
811216.000000
811907.000000
812585.000000
813283.000000
814271.000000
815237.000000
816009.000000
816721.000000
817459.000000
818326.000000
819134.000000
819852.000000
820551.000000
821282.000000
822312.000000
823314.000000
824248.000000
825161.000000
826005.000000
826769.000000
827485.000000
828191.000000
828957.000000
830037.000000
831076.000000
832059.000000
832974.000000
833776.000000
834510.000000
835210.000000
835904.000000
836595.000000
837284.000000
838021.000000
839060.000000
840022.000000
840871.000000
841604.000000
842306.000000
843004.000000
843772.000000
844559.000000
845311.000000
846011.000000
846710.000000
847508.000000
848529.000000
849541.000000
850488.000000
851388.000000
852202.000000
852965.000000
853704.000000
854422.000000
855117.000000
855820.000000
856603.000000
857659.000000
858688.000000
859661.000000
860559.000000
861417.000000
862273.000000
863118.000000
863907.000000
864643.000000
865378.000000
866472.000000
867502.000000
868508.000000
869458.000000
870248.000000
871023.000000
871811.000000
872553.000000
873276.000000
874066.000000
875172.000000
876207.000000
877189.000000
878140.000000
878946.000000
879676.000000
880391.000000
881138.000000
882214.000000
883251.000000
884215.000000
885147.000000
885988.000000
886738.000000
887463.000000
888186.000000
889088.000000
890080.000000
890963.000000
891764.000000
892500.000000
893205.000000
893917.000000
894709.000000
895771.000000
896779.000000
897681.000000
898480.000000
899250.000000
899980.000000
900688.000000
901385.000000
902111.000000
903131.000000
904074.000000
904916.000000
905697.000000
906453.000000
907183.000000
907895.000000
908609.000000
909439.000000
910448.000000
911362.000000
912125.000000
912844.000000
913560.000000
914314.000000
915339.000000
916254.000000
917044.000000
917830.000000
918595.000000
919360.000000
920093.000000
920801.000000
921500.000000
922227.000000
923045.000000
924011.000000
924916.000000
925748.000000
926548.000000
927336.000000
928101.000000
928811.000000
929509.000000
930222.000000
931073.000000
932032.000000
932909.000000
933749.000000
934543.000000
935296.000000
936007.000000
936700.000000
937416.000000
938166.000000
938999.000000
939834.000000
940838.000000
941859.000000
942849.000000
943785.000000
944608.000000
945399.000000
946145.000000
946860.000000
947568.000000
948297.000000
949298.000000
950316.000000
951301.000000
952267.000000
953141.000000
953947.000000
954751.000000
955492.000000
956217.000000
957005.000000
958113.000000
959168.000000
960125.000000
960969.000000
961743.000000
962483.000000
963202.000000
963915.000000
964634.000000
965350.000000
966148.000000
966981.000000
967789.000000
968571.000000
969319.000000
970039.000000
970745.000000
971457.000000
972272.000000
973283.000000
974257.000000
975128.000000
975969.000000
976795.000000
977560.000000
978285.000000
979011.000000
980059.000000
981098.000000
982078.000000
983002.000000
983875.000000
984710.000000
985486.000000
986222.000000
986961.000000
987812.000000
988926.000000
989972.000000
990963.000000
991848.000000
992688.000000
993461.000000
994193.000000
994911.000000
995712.000000
996782.000000
997795.000000
998787.000000
999670.000000
1000630.000000
1001433.000000
1002166.000000
1002858.000000
1003551.000000
1004309.000000
1005411.000000
1006434.000000
1007409.000000
1008290.000000
1009149.000000
1009914.000000
1010635.000000
1011351.000000
1012113.000000
1013161.000000
1014183.000000
1015178.000000
1016140.000000
1017020.000000
1017840.000000
1018606.000000
1019327.000000
1020034.000000
1020768.000000
1021848.000000
1022877.000000
1023842.000000
1024723.000000
1025559.000000
1026359.000000
1027084.000000
1027805.000000
1028541.000000
1029275.000000
1030000.000000
1030907.000000
1031935.000000
1032956.000000
1033889.000000
1034772.000000
1035588.000000
1036382.000000
1037135.000000
1037860.000000
1038569.000000
1039302.000000
1040413.000000
1041449.000000
1042376.000000
1043282.000000
1044113.000000
1044917.000000
1045655.000000
1046367.000000
1047092.000000
1048197.000000
1049222.000000
1050144.000000
1050938.000000
1051739.000000
1052519.000000
1053251.000000
1053975.000000
1055055.000000
1056085.000000
1057050.000000
1058015.000000
1058931.000000
1059846.000000
1060699.000000
1061445.000000
1062167.000000
1062934.000000
1064035.000000
1065096.000000
1066090.000000
1067034.000000
1067930.000000
1068822.000000
1069624.000000
1070358.000000
1071078.000000
1071856.000000
1072977.000000
1074038.000000
1075048.000000
1075984.000000
1076819.000000
1077631.000000
1078374.000000
1079083.000000
1079806.000000
1080903.000000
1081992.000000
1083023.000000
1084003.000000
1084896.000000
1085726.000000
1086506.000000
1087243.000000
1087965.000000
1088717.000000
1089822.000000
1090852.000000
1091839.000000
1092782.000000
1093737.000000
1094596.000000
1095373.000000
1096110.000000
1096824.000000
1097540.000000
1098346.000000
1099455.000000
1100487.000000
1101492.000000
1102405.000000
1103225.000000
1104008.000000
1104796.000000
1105523.000000
1106235.000000
1106956.000000
1107809.000000
1108828.000000
1109838.000000
1110794.000000
1111646.000000
1112449.000000
1113229.000000
1113986.000000
1114713.000000
1115422.000000
1116147.000000
1117187.000000
1118161.000000
1119031.000000
1119858.000000
1120692.000000
1121551.000000
1122353.000000
1123131.000000
1123880.000000
1124603.000000
1125330.000000
1126436.000000
1127515.000000
1128524.000000
1129470.000000
1130284.000000
1131033.000000
1131758.000000
1132489.000000
1133561.000000
1134584.000000
1135503.000000
1136330.000000
1137091.000000
1137858.000000
1138588.000000
1139287.000000
1139978.000000
1140685.000000
1141454.000000
1142248.000000
1142968.000000
1143709.000000
1144518.000000
1145271.000000
1145981.000000
1146687.000000
1147418.000000
1148163.000000
1148871.000000
1149578.000000
1150337.000000
1151365.000000
1152342.000000
1153305.000000
1154178.000000
1154982.000000
1155723.000000
1156441.000000
1157138.000000
1157841.000000
1158588.000000
1159644.000000
1160645.000000
1161516.000000
1162357.000000
1163147.000000
1163945.000000
1164689.000000
1165411.000000
1166124.000000
1166882.000000
1167849.000000
1168860.000000
1169781.000000
1170611.000000
1171403.000000
1172196.000000
1172976.000000
1173727.000000
1174446.000000
1175171.000000
1176074.000000
1177096.000000
1178085.000000
1178936.000000
1179733.000000
1180545.000000
1181305.000000
1182025.000000
1182739.000000
1183539.000000
1184578.000000
1185551.000000
1186383.000000
1187155.000000
1187879.000000
1188600.000000
1189402.000000
1190456.000000
1191397.000000
1192287.000000
1193140.000000
1193915.000000
1194640.000000
1195354.000000
1196109.000000
1197195.000000
1198219.000000
1199157.000000
1200006.000000
1200846.000000
1201626.000000
1202349.000000
1203061.000000
1203955.000000
1205048.000000
1206038.000000
1206976.000000
1207825.000000
1208644.000000
1209530.000000
1210312.000000
1211053.000000
1211803.000000
1212756.000000
1213785.000000
1214742.000000
1215593.000000
1216414.000000
1217186.000000
1217916.000000
1218624.000000
1219344.000000
1220432.000000
1221438.000000
1222372.000000
1223211.000000
1223962.000000
1224682.000000
1225391.000000
1226182.000000
1227230.000000
1228202.000000
1229121.000000
1230019.000000
1230841.000000
1231595.000000
1232366.000000
1233434.000000
1234447.000000
1235418.000000
1236272.000000
1237107.000000
1237901.000000
1238665.000000
1239386.000000
1240141.000000
1241238.000000
1242243.000000
1243018.000000
1243746.000000
1244458.000000
1245191.000000
1245909.000000
1246619.000000
1247347.000000
1248081.000000
1248797.000000
1249493.000000
1250183.000000
1250870.000000
1251562.000000
1252358.000000
1253366.000000
1254359.000000
1255306.000000
1256247.000000
1257080.000000
1257811.000000
1258554.000000
1259372.000000
1260158.000000
1260897.000000
1261660.000000
1262686.000000
1263694.000000
1264644.000000
1265512.000000
1266374.000000
1267233.000000
1268049.000000
1268828.000000
1269560.000000
1270286.000000
1271346.000000
1272394.000000
1273436.000000
1274392.000000
1275268.000000
1276094.000000
1276866.000000
1277605.000000
1278327.000000
1279054.000000
1279963.000000
1281032.000000
1282083.000000
1283119.000000
1284101.000000
1285005.000000
1285882.000000
1286680.000000
1287495.000000
1288293.000000
1289069.000000
1289855.000000
1290905.000000
1291882.000000
1292775.000000
1293633.000000
1294481.000000
1295270.000000
1296022.000000
1296754.000000
1297516.000000
1298317.000000
1299109.000000
1299846.000000
1300587.000000
1301425.000000
1302266.000000
1302999.000000
1303735.000000
1304476.000000
1305267.000000
1306026.000000
1306749.000000
1307474.000000
1308191.000000
1308905.000000
1309667.000000
1310366.000000
