ECG (ms)
-10.000000
570.000000
1146.000000
1720.000000
2283.000000
2856.000000
3429.000000
3990.000000
4564.000000
5141.000000
5706.000000
6270.000000
6839.000000
7404.000000
7969.000000
8534.000000
9101.000000
9662.000000
10226.000000
10652.000000
11616.000000
12311.000000
12721.000000
13566.000000
14221.000000
14639.000000
15477.000000
16135.000000
16546.000000
17380.000000
18040.000000
18484.000000
19290.000000
19914.000000
20330.000000
21190.000000
21888.000000
22328.000000
23159.000000
23846.000000
24248.000000
25146.000000
25847.000000
26251.000000
27133.000000
27793.000000
28202.000000
29120.000000
29812.000000
30214.000000
31092.000000
31775.000000
32175.000000
33064.000000
33756.000000
34154.000000
35035.000000
35726.000000
36122.000000
36994.000000
37665.000000
38065.000000
38440.000000
38834.000000
39576.000000
40275.000000
40667.000000
41577.000000
42287.000000
42682.000000
43558.000000
44242.000000
44640.000000
45520.000000
46209.000000
46613.000000
47477.000000
48163.000000
48563.000000
49493.000000
50126.000000
50552.000000
51505.000000
52233.000000
52630.000000
53569.000000
54299.000000
54697.000000
55638.000000
56356.000000
56754.000000
57700.000000
58433.000000
58833.000000
59755.000000
60508.000000
61196.000000
61600.000000
62560.000000
63314.000000
63754.000000
64257.000000
64836.000000
65453.000000
66027.000000
66580.000000
67146.000000
67713.000000
68281.000000
68845.000000
69405.000000
69973.000000
70437.000000
70952.000000
71410.000000
72204.000000
72786.000000
73230.000000
74246.000000
75003.000000
75412.000000
76379.000000
77100.000000
77499.000000
78416.000000
79107.000000
79508.000000
80368.000000
81033.000000
81431.000000
82264.000000
82915.000000
83319.000000
84151.000000
84810.000000
85205.000000
86049.000000
86734.000000
87130.000000
88033.000000
88771.000000
89166.000000
90114.000000
90842.000000
91237.000000
92197.000000
92928.000000
93324.000000
94243.000000
94950.000000
95345.000000
96300.000000
97031.000000
97428.000000
98376.000000
99093.000000
99488.000000
99966.000000
100400.000000
101332.000000
102064.000000
102459.000000
103357.000000
104051.000000
104445.000000
105299.000000
105959.000000
106354.000000
107186.000000
107850.000000
108243.000000
109084.000000
109750.000000
110141.000000
110975.000000
111648.000000
112039.000000
112883.000000
113559.000000
113951.000000
114795.000000
115490.000000
115883.000000
116732.000000
117422.000000
117813.000000
118664.000000
119279.000000
119692.000000
120546.000000
121237.000000
121627.000000
122455.000000
123112.000000
123498.000000
124316.000000
124964.000000
125356.000000
125799.000000
126674.000000
127093.000000
127931.000000
128626.000000
129019.000000
129863.000000
130552.000000
130942.000000
131809.000000
132555.000000
132956.000000
133816.000000
134523.000000
134916.000000
135786.000000
136521.000000
136922.000000
137793.000000
138510.000000
138905.000000
139825.000000
140559.000000
140960.000000
141851.000000
142567.000000
142963.000000
143478.000000
143896.000000
144826.000000
145580.000000
146249.000000
146646.000000
147610.000000
148356.000000
149048.000000
149446.000000
150340.000000
151062.000000
151463.000000
152332.000000
153036.000000
153430.000000
154274.000000
154942.000000
155330.000000
155840.000000
156256.000000
157118.000000
157833.000000
158230.000000
159095.000000
159834.000000
160499.000000
160900.000000
161756.000000
162450.000000
162843.000000
163773.000000
164346.000000
164783.000000
165718.000000
166462.000000
166876.000000
167817.000000
168572.000000
169271.000000
169670.000000
170619.000000
171359.000000
171761.000000
172721.000000
173477.000000
174176.000000
174574.000000
175525.000000
176267.000000
176680.000000
177620.000000
178359.000000
178760.000000
179376.000000
180093.000000
180493.000000
181499.000000
182271.000000
182998.000000
183402.000000
184102.000000
184923.000000
185635.000000
186036.000000
186982.000000
187704.000000
188102.000000
189012.000000
189719.000000
190116.000000
191010.000000
191729.000000
192210.000000
192669.000000
193227.000000
193776.000000
194309.000000
194850.000000
195389.000000
195926.000000
196468.000000
197008.000000
197550.000000
198092.000000
198635.000000
199175.000000
199722.000000
200269.000000
200816.000000
201368.000000
201920.000000
202478.000000
203045.000000
203605.000000
204161.000000
204718.000000
205275.000000
205830.000000
206388.000000
206943.000000
207403.000000
208315.000000
209058.000000
209717.000000
210152.000000
210722.000000
211386.000000
211969.000000
212493.000000
213039.000000
213593.000000
214142.000000
214698.000000
215157.000000
216014.000000
216706.000000
217131.000000
217766.000000
218571.000000
219219.000000
219663.000000
220244.000000
221066.000000
221472.000000
222333.000000
223087.000000
223491.000000
224349.000000
225032.000000
225443.000000
226323.000000
227053.000000
227451.000000
228338.000000
229058.000000
229457.000000
230395.000000
231110.000000
231512.000000
232413.000000
232875.000000
233344.000000
233888.000000
234890.000000
235630.000000
236030.000000
236977.000000
237705.000000
238105.000000
239052.000000
239780.000000
240182.000000
241113.000000
241827.000000
242227.000000
243174.000000
243785.000000
244219.000000
245189.000000
245937.000000
246338.000000
247282.000000
247928.000000
248353.000000
249319.000000
250060.000000
250460.000000
251415.000000
252165.000000
252571.000000
253519.000000
254245.000000
254646.000000
255591.000000
256148.000000
256579.000000
257563.000000
258320.000000
258738.000000
259682.000000
260440.000000
260856.000000
261796.000000
262529.000000
262928.000000
263857.000000
264518.000000
264927.000000
265894.000000
266619.000000
267019.000000
267901.000000
268591.000000
268987.000000
269860.000000
270551.000000
270947.000000
271809.000000
272521.000000
272920.000000
273788.000000
274498.000000
274896.000000
275756.000000
276465.000000
276863.000000
277715.000000
278402.000000
278797.000000
279659.000000
280367.000000
280768.000000
281642.000000
282334.000000
282730.000000
283712.000000
284476.000000
285198.000000
285617.000000
286392.000000
287048.000000
287455.000000
288473.000000
289253.000000
289975.000000
290395.000000
291324.000000
292056.000000
292459.000000
293335.000000
293787.000000
294250.000000
294792.000000
295318.000000
295833.000000
296351.000000
296868.000000
297381.000000
297892.000000
298404.000000
298916.000000
299428.000000
299940.000000
300451.000000
300962.000000
301476.000000
301988.000000
302500.000000
303018.000000
303534.000000
304050.000000
304567.000000
305086.000000
305606.000000
306055.000000
306594.000000
307164.000000
307684.000000
308208.000000
308735.000000
309263.000000
309792.000000
310323.000000
310856.000000
311386.000000
311920.000000
312451.000000
312987.000000
313523.000000
314060.000000
314595.000000
315135.000000
315676.000000
316224.000000
316778.000000
317345.000000
317924.000000
318484.000000
319458.000000
320232.000000
320841.000000
321298.000000
321875.000000
322829.000000
323545.000000
323951.000000
324840.000000
325539.000000
325981.000000
326797.000000
327463.000000
327871.000000
328711.000000
329294.000000
329716.000000
330182.000000
330692.000000
331653.000000
332373.000000
332771.000000
333394.000000
333798.000000
334719.000000
335442.000000
335838.000000
336732.000000
337429.000000
337824.000000
338743.000000
339455.000000
339852.000000
340736.000000
341424.000000
341820.000000
342702.000000
343408.000000
343804.000000
344680.000000
345372.000000
345767.000000
346636.000000
347333.000000
347729.000000
348633.000000
349367.000000
349764.000000
350598.000000
351437.000000
352127.000000
352525.000000
353434.000000
354157.000000
354553.000000
355459.000000
356160.000000
356555.000000
357420.000000
358100.000000
358496.000000
359359.000000
360058.000000
360455.000000
361305.000000
361973.000000
362369.000000
363230.000000
363928.000000
364324.000000
365185.000000
365895.000000
366292.000000
367165.000000
367873.000000
368269.000000
369148.000000
369879.000000
370278.000000
371167.000000
371891.000000
372288.000000
373166.000000
373879.000000
374276.000000
375118.000000
375783.000000
376174.000000
377014.000000
377705.000000
378098.000000
378955.000000
379667.000000
380064.000000
380896.000000
381573.000000
381963.000000
382808.000000
383506.000000
383899.000000
384733.000000
385406.000000
385797.000000
386644.000000
387353.000000
387750.000000
388595.000000
389296.000000
389690.000000
390541.000000
391259.000000
391669.000000
392521.000000
393245.000000
393656.000000
394501.000000
395222.000000
395874.000000
396270.000000
397113.000000
397780.000000
398170.000000
398995.000000
399637.000000
400026.000000
400841.000000
401359.000000
401793.000000
402220.000000
403069.000000
403777.000000
404173.000000
405015.000000
405734.000000
406134.000000
406985.000000
407684.000000
408078.000000
408922.000000
409619.000000
410013.000000
410878.000000
411594.000000
411991.000000
412855.000000
413583.000000
413993.000000
414894.000000
415624.000000
416037.000000
416945.000000
417661.000000
418060.000000
418940.000000
419632.000000
420028.000000
420987.000000
421733.000000
422419.000000
422823.000000
423721.000000
424453.000000
424863.000000
425791.000000
426515.000000
427195.000000
427594.000000
428488.000000
429221.000000
429635.000000
430530.000000
431254.000000
431657.000000
432570.000000
433288.000000
433691.000000
434588.000000
435314.000000
435726.000000
436611.000000
437226.000000
437632.000000
438518.000000
439252.000000
439668.000000
440592.000000
441322.000000
441737.000000
442638.000000
443353.000000
443762.000000
444627.000000
445329.000000
445734.000000
446599.000000
447275.000000
447673.000000
448540.000000
449240.000000
449647.000000
450462.000000
451114.000000
451504.000000
452331.000000
452888.000000
453303.000000
454137.000000
454808.000000
455201.000000
456039.000000
456726.000000
457119.000000
457976.000000
458704.000000
459114.000000
459941.000000
460620.000000
461013.000000
461874.000000
462582.000000
462980.000000
463833.000000
464529.000000
464925.000000
465800.000000
466555.000000
467222.000000
467625.000000
468499.000000
469233.000000
469651.000000
470559.000000
471298.000000
471715.000000
472590.000000
473285.000000
473681.000000
474614.000000
475359.000000
475777.000000
476646.000000
477357.000000
477757.000000
478635.000000
479368.000000
479775.000000
480631.000000
481329.000000
481728.000000
482600.000000
483326.000000
483742.000000
484595.000000
485301.000000
485706.000000
486587.000000
487286.000000
487686.000000
488596.000000
489353.000000
490027.000000
490427.000000
491402.000000
492169.000000
492872.000000
493287.000000
494224.000000
494957.000000
495374.000000
496246.000000
496948.000000
497355.000000
498225.000000
498694.000000
499148.000000
499705.000000
500248.000000
500779.000000
501309.000000
501842.000000
502377.000000
502910.000000
503445.000000
503981.000000
504514.000000
505048.000000
505581.000000
506116.000000
506651.000000
507186.000000
507720.000000
508253.000000
508787.000000
509326.000000
509865.000000
510403.000000
510945.000000
511456.000000
512028.000000
512567.000000
513108.000000
513651.000000
514190.000000
514727.000000
515262.000000
515804.000000
516342.000000
516881.000000
517420.000000
517964.000000
518512.000000
519060.000000
519611.000000
520164.000000
520717.000000
521273.000000
521827.000000
522380.000000
522933.000000
523486.000000
524039.000000
524593.000000
525155.000000
525713.000000
526269.000000
526807.000000
527389.000000
527944.000000
528500.000000
528966.000000
529934.000000
530699.000000
531376.000000
531808.000000
532400.000000
533253.000000
533917.000000
534337.000000
535217.000000
535957.000000
536354.000000
537292.000000
538011.000000
538411.000000
539305.000000
540008.000000
540406.000000
541346.000000
542060.000000
542463.000000
543363.000000
544063.000000
544461.000000
545369.000000
546080.000000
546480.000000
547367.000000
548066.000000
548462.000000
549356.000000
550078.000000
550475.000000
551363.000000
551920.000000
552351.000000
553317.000000
554058.000000
554458.000000
554929.000000
555612.000000
556100.000000
556512.000000
557580.000000
558328.000000
558727.000000
559670.000000
560108.000000
560708.000000
561679.000000
562426.000000
562828.000000
563726.000000
564274.000000
564704.000000
565603.000000
566304.000000
566696.000000
567548.000000
568215.000000
568605.000000
569453.000000
570128.000000
570520.000000
571359.000000
572017.000000
572410.000000
573260.000000
573952.000000
574344.000000
575185.000000
575863.000000
576254.000000
577127.000000
577858.000000
578257.000000
579119.000000
579812.000000
580209.000000
581133.000000
581874.000000
582274.000000
583155.000000
583878.000000
584284.000000
585205.000000
585930.000000
586337.000000
587265.000000
587981.000000
588382.000000
589279.000000
589990.000000
590386.000000
591321.000000
591986.000000
592383.000000
593325.000000
594040.000000
594445.000000
595338.000000
596013.000000
596410.000000
596717.000000
597301.000000
597998.000000
598392.000000
599268.000000
599977.000000
600374.000000
601245.000000
601951.000000
602348.000000
603252.000000
603895.000000
604307.000000
605212.000000
605954.000000
606369.000000
607253.000000
607850.000000
608273.000000
609170.000000
609898.000000
610308.000000
611183.000000
611912.000000
612311.000000
613234.000000
613757.000000
614168.000000
615146.000000
615892.000000
616303.000000
617251.000000
618012.000000
618719.000000
619121.000000
620060.000000
620791.000000
621201.000000
622107.000000
622810.000000
623218.000000
624080.000000
624771.000000
625164.000000
626020.000000
626605.000000
627018.000000
627902.000000
628642.000000
629064.000000
629923.000000
630367.000000
630835.000000
631381.000000
631911.000000
632345.000000
633337.000000
634101.000000
634790.000000
635188.000000
636127.000000
636870.000000
637285.000000
638217.000000
638944.000000
639354.000000
640276.000000
640726.000000
641183.000000
641738.000000
642279.000000
642811.000000
643342.000000
643875.000000
644412.000000
644947.000000
645488.000000
646023.000000
646559.000000
647096.000000
647633.000000
648169.000000
648708.000000
649247.000000
649788.000000
650334.000000
650877.000000
651425.000000
651970.000000
652519.000000
653066.000000
653616.000000
654164.000000
654716.000000
655267.000000
655820.000000
656372.000000
656927.000000
657482.000000
658037.000000
658594.000000
659153.000000
659710.000000
660268.000000
660833.000000
661400.000000
661966.000000
662531.000000
663092.000000
663657.000000
664226.000000
664796.000000
665365.000000
665933.000000
666499.000000
667065.000000
667628.000000
668197.000000
668765.000000
669333.000000
669902.000000
670470.000000
671045.000000
671623.000000
672200.000000
672773.000000
673342.000000
673914.000000
674489.000000
675079.000000
675662.000000
676241.000000
676821.000000
677404.000000
678008.000000
678603.000000
679191.000000
679779.000000
680370.000000
680964.000000
681552.000000
682148.000000
682744.000000
683333.000000
683922.000000
684513.000000
685097.000000
685680.000000
686253.000000
686830.000000
687404.000000
687962.000000
688879.000000
689617.000000
690043.000000
690926.000000
691622.000000
692072.000000
692942.000000
693655.000000
694067.000000
694968.000000
695677.000000
696123.000000
697005.000000
697713.000000
698125.000000
699075.000000
699835.000000
700234.000000
701202.000000
701963.000000
702363.000000
703343.000000
703994.000000
704417.000000
705431.000000
706214.000000
706619.000000
707615.000000
708386.000000
708790.000000
709759.000000
710508.000000
710907.000000
711874.000000
712630.000000
713030.000000
713972.000000
714689.000000
715089.000000
715990.000000
716682.000000
717079.000000
717948.000000
718595.000000
719001.000000
719867.000000
720559.000000
720953.000000
721819.000000
722517.000000
722913.000000
723771.000000
724365.000000
724781.000000
725692.000000
726448.000000
726861.000000
727807.000000
728483.000000
728881.000000
729869.000000
730633.000000
731050.000000
731986.000000
732488.000000
732935.000000
733936.000000
734398.000000
734876.000000
735462.000000
736076.000000
736637.000000
737182.000000
737617.000000
738082.000000
738541.000000
739570.000000
740356.000000
741129.000000
741810.000000
742243.000000
743194.000000
743926.000000
744322.000000
745199.000000
745748.000000
746175.000000
747038.000000
747710.000000
748106.000000
748930.000000
749572.000000
749972.000000
750796.000000
751443.000000
751837.000000
752667.000000
753338.000000
753731.000000
754580.000000
755185.000000
755597.000000
756483.000000
757035.000000
757477.000000
758388.000000
758928.000000
759369.000000
760399.000000
761179.000000
761903.000000
762304.000000
763275.000000
764044.000000
764446.000000
765388.000000
766125.000000
766523.000000
767339.000000
768141.000000
768818.000000
769224.000000
770133.000000
770888.000000
771297.000000
772225.000000
772966.000000
773366.000000
774322.000000
775062.000000
775463.000000
776349.000000
777062.000000
777460.000000
778339.000000
779059.000000
779458.000000
780325.000000
781025.000000
781420.000000
782305.000000
783040.000000
783442.000000
784312.000000
784908.000000
785331.000000
786253.000000
787039.000000
787734.000000
788135.000000
789099.000000
789856.000000
790273.000000
791210.000000
791946.000000
792351.000000
793310.000000
793805.000000
794257.000000
794827.000000
795402.000000
795948.000000
796488.000000
797034.000000
797580.000000
798126.000000
798673.000000
799217.000000
799759.000000
800304.000000
800850.000000
801398.000000
801949.000000
802498.000000
803046.000000
803593.000000
804139.000000
804687.000000
805240.000000
805797.000000
806358.000000
806922.000000
807480.000000
808038.000000
808593.000000
809150.000000
809708.000000
810267.000000
810825.000000
811387.000000
811949.000000
812514.000000
813075.000000
813641.000000
814211.000000
814786.000000
815358.000000
815931.000000
816501.000000
817076.000000
817654.000000
818231.000000
818808.000000
819387.000000
819964.000000
820542.000000
821120.000000
821706.000000
822289.000000
822868.000000
823452.000000
824053.000000
824647.000000
825232.000000
825818.000000
826408.000000
826999.000000
827588.000000
828175.000000
828763.000000
829350.000000
829953.000000
830578.000000
831430.000000
831895.000000
832434.000000
833298.000000
833756.000000
834594.000000
835306.000000
835711.000000
836566.000000
837248.000000
837657.000000
838498.000000
839167.000000
839610.000000
840428.000000
841149.000000
841550.000000
842439.000000
843195.000000
843592.000000
844572.000000
845088.000000
845554.000000
846571.000000
847357.000000
847771.000000
848733.000000
849485.000000
849887.000000
850231.000000
850697.000000
851434.000000
851885.000000
852759.000000
853483.000000
853880.000000
854529.000000
855366.000000
856075.000000
856471.000000
856891.000000
857929.000000
858577.000000
859007.000000
859584.000000
860170.000000
860705.000000
861236.000000
861771.000000
862307.000000
862812.000000
863394.000000
863936.000000
864478.000000
865016.000000
865578.000000
866129.000000
866682.000000
867236.000000
867790.000000
868345.000000
868906.000000
869467.000000
870030.000000
870596.000000
871163.000000
871734.000000
872307.000000
872875.000000
873444.000000
874015.000000
874585.000000
875153.000000
875720.000000
876287.000000
876853.000000
877420.000000
877995.000000
878575.000000
879160.000000
879744.000000
880322.000000
880896.000000
881468.000000
882040.000000
882609.000000
883177.000000
883745.000000
884313.000000
884880.000000
885450.000000
886022.000000
886598.000000
887178.000000
887750.000000
888328.000000
888904.000000
889487.000000
890068.000000
890566.000000
890996.000000
891650.000000
892116.000000
893313.000000
894109.000000
894524.000000
895469.000000
895937.000000
896417.000000
897090.000000
897976.000000
898652.000000
899074.000000
899971.000000
900714.000000
901122.000000
