ECG (ms)
123.000000
1170.000000
2221.000000
3264.000000
4221.000000
5127.000000
5978.000000
6766.000000
7526.000000
8326.000000
9373.000000
10435.000000
11524.000000
12598.000000
13685.000000
14783.000000
15834.000000
16734.000000
17603.000000
18612.000000
19660.000000
20715.000000
21715.000000
22623.000000
23461.000000
24487.000000
25578.000000
26613.000000
27549.000000
28407.000000
29219.000000
30074.000000
31182.000000
32231.000000
33283.000000
34299.000000
35285.000000
36301.000000
37322.000000
38308.000000
39199.000000
40038.000000
41081.000000
42189.000000
43262.000000
44331.000000
45362.000000
46290.000000
47125.000000
48010.000000
49150.000000
50248.000000
51322.000000
52324.000000
53342.000000
54398.000000
55375.000000
56356.000000
57361.000000
58332.000000
59233.000000
60094.000000
61075.000000
61745.000000
62978.000000
63924.000000
64830.000000
65832.000000
66802.000000
67738.000000
68651.000000
69614.000000
70740.000000
71810.000000
72883.000000
73909.000000
74805.000000
75675.000000
76620.000000
77716.000000
78711.000000
79671.000000
80699.000000
81766.000000
82752.000000
83649.000000
84586.000000
85653.000000
86666.000000
87609.000000
88506.000000
89449.000000
90531.000000
91609.000000
92655.000000
93577.000000
94431.000000
95423.000000
96081.000000
97308.000000
98283.000000
99236.000000
100132.000000
101156.000000
102177.000000
103104.000000
104130.000000
105172.000000
106096.000000
106966.000000
107941.000000
108970.000000
109970.000000
110839.000000
111700.000000
112527.000000
113565.000000
114643.000000
115678.000000
116642.000000
117549.000000
118401.000000
119285.000000
120340.000000
121401.000000
122344.000000
123248.000000
124253.000000
125193.000000
126037.000000
126868.000000
127903.000000
128957.000000
129979.000000
130869.000000
131748.000000
132793.000000
133838.000000
134801.000000
135735.000000
136774.000000
137815.000000
138764.000000
139673.000000
140670.000000
141738.000000
142666.000000
143626.000000
144633.000000
145634.000000
146525.000000
147461.000000
148477.000000
149460.000000
150363.000000
151207.000000
152038.000000
153029.000000
154154.000000
155235.000000
156194.000000
157068.000000
157908.000000
158864.000000
159959.000000
161018.000000
161926.000000
162860.000000
163846.000000
164795.000000
165793.000000
166819.000000
167853.000000
168773.000000
169654.000000
170531.000000
171444.000000
172525.000000
173537.000000
174479.000000
175336.000000
176175.000000
177198.000000
177863.000000
179076.000000
179917.000000
180738.000000
181632.000000
182308.000000
183466.000000
184261.000000
185059.000000
186057.000000
187184.000000
188280.000000
189329.000000
190302.000000
191185.000000
192252.000000
193284.000000
194277.000000
195171.000000
196109.000000
197200.000000
198126.000000
199041.000000
199966.000000
200975.000000
202048.000000
203080.000000
204004.000000
204896.000000
205853.000000
206873.000000
207828.000000
208705.000000
209587.000000
210484.000000
211511.000000
212534.000000
213440.000000
214224.000000
214989.000000
215767.000000
216554.000000
217425.000000
218476.000000
219505.000000
220418.000000
221320.000000
222301.000000
223344.000000
224286.000000
225157.000000
226033.000000
226988.000000
228024.000000
228977.000000
229851.000000
230745.000000
231678.000000
232626.000000
233531.000000
234473.000000
235350.000000
236202.000000
237190.000000
238230.000000
239177.000000
240157.000000
241105.000000
241979.000000
242802.000000
243670.000000
244753.000000
245825.000000
246810.000000
247678.000000
248508.000000
249342.000000
250389.000000
251434.000000
252465.000000
253421.000000
254305.000000
255172.000000
256222.000000
257287.000000
258287.000000
259188.000000
260010.000000
260834.000000
261862.000000
262920.000000
263941.000000
264925.000000
265801.000000
266607.000000
267498.000000
268573.000000
269582.000000
270580.000000
271581.000000
272533.000000
273404.000000
274259.000000
275248.000000
276288.000000
277238.000000
278093.000000
278938.000000
279847.000000
280786.000000
281679.000000
282521.000000
283400.000000
284416.000000
285407.000000
286296.000000
287127.000000
288031.000000
289052.000000
290021.000000
290992.000000
291731.000000
292737.000000
293504.000000
294336.000000
295350.000000
296343.000000
297288.000000
298364.000000
299438.000000
300470.000000
301460.000000
302553.000000
303584.000000
304516.000000
305355.000000
306198.000000
307315.000000
308366.000000
309281.000000
310248.000000
311260.000000
312154.000000
313042.000000
314027.000000
315021.000000
315952.000000
316893.000000
317925.000000
318932.000000
319842.000000
320820.000000
321869.000000
322836.000000
323786.000000
324720.000000
325786.000000
326827.000000
327761.000000
328686.000000
329651.000000
330565.000000
331446.000000
332442.000000
333427.000000
334325.000000
335182.000000
336084.000000
337091.000000
338057.000000
338967.000000
339828.000000
340818.000000
341829.000000
342751.000000
343613.000000
344583.000000
345588.000000
346490.000000
347374.000000
348337.000000
349299.000000
350169.000000
351076.000000
352041.000000
352935.000000
353766.000000
354601.000000
355423.000000
356509.000000
357576.000000
358656.000000
359696.000000
360703.000000
361611.000000
362441.000000
363282.000000
364370.000000
365444.000000
366454.000000
367425.000000
368299.000000
369124.000000
369997.000000
370967.000000
372039.000000
373030.000000
373907.000000
374750.000000
375747.000000
376858.000000
377935.000000
378965.000000
379919.000000
380812.000000
381833.000000
382864.000000
383869.000000
384765.000000
385616.000000
386639.000000
387724.000000
388734.000000
389677.000000
390663.000000
391692.000000
392689.000000
393614.000000
394623.000000
395677.000000
396664.000000
397717.000000
398673.000000
399567.000000
400460.000000
401501.000000
402515.000000
403470.000000
404422.000000
405322.000000
406405.000000
407508.000000
408552.000000
409545.000000
410563.000000
411501.000000
412356.000000
413318.000000
414389.000000
415359.000000
416268.000000
417137.000000
418105.000000
419174.000000
420167.000000
421043.000000
421912.000000
422873.000000
423816.000000
424682.000000
425545.000000
426656.000000
427709.000000
428673.000000
429605.000000
430601.000000
431585.000000
432475.000000
433314.000000
434146.000000
435198.000000
436270.000000
437251.000000
438184.000000
439199.000000
440249.000000
441240.000000
442134.000000
442990.000000
443971.000000
445017.000000
446040.000000
446991.000000
447868.000000
448790.000000
449874.000000
450866.000000
451841.000000
452741.000000
453578.000000
454420.000000
455554.000000
456662.000000
457758.000000
458821.000000
459779.000000
460630.000000
461460.000000
462355.000000
463411.000000
464428.000000
465382.000000
466169.000000
466944.000000
467760.000000
468585.000000
469408.000000
470511.000000
471577.000000
472645.000000
473608.000000
474464.000000
475265.000000
476196.000000
477310.000000
478409.000000
479482.000000
480460.000000
481343.000000
482319.000000
483434.000000
484522.000000
485510.000000
486432.000000
487324.000000
488291.000000
489441.000000
490548.000000
491535.000000
492441.000000
493366.000000
494413.000000
495468.000000
496430.000000
497313.000000
498219.000000
499294.000000
500343.000000
501383.000000
502352.000000
503247.000000
504248.000000
504924.000000
506156.000000
507066.000000
508043.000000
508972.000000
509898.000000
511023.000000
512139.000000
513252.000000
514361.000000
515479.000000
516552.000000
517453.000000
518275.000000
519170.000000
520339.000000
521442.000000
522528.000000
523528.000000
524421.000000
525250.000000
526227.000000
527359.000000
528404.000000
529404.000000
530353.000000
531223.000000
532118.000000
533163.000000
534211.000000
535186.000000
536063.000000
536957.000000
538017.000000
539084.000000
540031.000000
540924.000000
541895.000000
542878.000000
543778.000000
544636.000000
545599.000000
546634.000000
547579.000000
548455.000000
549346.000000
550331.000000
551341.000000
552312.000000
553184.000000
554113.000000
555116.000000
556081.000000
556947.000000
557773.000000
558579.000000
559421.000000
560555.000000
561672.000000
562780.000000
563846.000000
564807.000000
565671.000000
566740.000000
567808.000000
568772.000000
569637.000000
570467.000000
571300.000000
572421.000000
573517.000000
574603.000000
575637.000000
576625.000000
577601.000000
578641.000000
579654.000000
580595.000000
581554.000000
582527.000000
583489.000000
584583.000000
585683.000000
586755.000000
587818.000000
588827.000000
589768.000000
590744.000000
591733.000000
592648.000000
593486.000000
594313.000000
595185.000000
596281.000000
597330.000000
598359.000000
599324.000000
600220.000000
601181.000000
602102.000000
603025.000000
603887.000000
604717.000000
605649.000000
606744.000000
607775.000000
608707.000000
609641.000000
610633.000000
611552.000000
612393.000000
613204.000000
614073.000000
615034.000000
616006.000000
616924.000000
617789.000000
618790.000000
619842.000000
620819.000000
621776.000000
622699.000000
623538.000000
624397.000000
625375.000000
626248.000000
627088.000000
628062.000000
629128.000000
630068.000000
630958.000000
631875.000000
632850.000000
633730.000000
634614.000000
635620.000000
636570.000000
637425.000000
638368.000000
639432.000000
640447.000000
641359.000000
642215.000000
643058.000000
644017.000000
645121.000000
646110.000000
647050.000000
648070.000000
649097.000000
650004.000000
650827.000000
651616.000000
652598.000000
653710.000000
654749.000000
655662.000000
656681.000000
657704.000000
658620.000000
659517.000000
660541.000000
661484.000000
662353.000000
663275.000000
664391.000000
665401.000000
666343.000000
667340.000000
668288.000000
669187.000000
670154.000000
671250.000000
672176.000000
673100.000000
674090.000000
675038.000000
675966.000000
677046.000000
678098.000000
679036.000000
679998.000000
681008.000000
681926.000000
682873.000000
683897.000000
684820.000000
685725.000000
686706.000000
687681.000000
688574.000000
689562.000000
690529.000000
691410.000000
692370.000000
693323.000000
694226.000000
695037.000000
696127.000000
697210.000000
698193.000000
699067.000000
699978.000000
700962.000000
701860.000000
702859.000000
703843.000000
704857.000000
705782.000000
706797.000000
707873.000000
708931.000000
709909.000000
710950.000000
711941.000000
712846.000000
713792.000000
714859.000000
715801.000000
716701.000000
717707.000000
718698.000000
719702.000000
720617.000000
721602.000000
722623.000000
723635.000000
724548.000000
725395.000000
726245.000000
727375.000000
728458.000000
729455.000000
730493.000000
731504.000000
732429.000000
733302.000000
734207.000000
735297.000000
736322.000000
737303.000000
738170.000000
739010.000000
740045.000000
741130.000000
742153.000000
743160.000000
744199.000000
745167.000000
746020.000000
747035.000000
748168.000000
749264.000000
750380.000000
751368.000000
752272.000000
753337.000000
754425.000000
755415.000000
756317.000000
757227.000000
758253.000000
759371.000000
760432.000000
761421.000000
762366.000000
763429.000000
764382.000000
765297.000000
766357.000000
767310.000000
768252.000000
769263.000000
770223.000000
771168.000000
772226.000000
773240.000000
774158.000000
775138.000000
776127.000000
777017.000000
777922.000000
778939.000000
779884.000000
780859.000000
781845.000000
782766.000000
783750.000000
784712.000000
785595.000000
786470.000000
787434.000000
788345.000000
789195.000000
790217.000000
791190.000000
792054.000000
792891.000000
793720.000000
794853.000000
795942.000000
796925.000000
797822.000000
798824.000000
799791.000000
800648.000000
801608.000000
802645.000000
803565.000000
804507.000000
805532.000000
806457.000000
807425.000000
808478.000000
809430.000000
810301.000000
811257.000000
812284.000000
813224.000000
814116.000000
814965.000000
816050.000000
817182.000000
818230.000000
819163.000000
820091.000000
821066.000000
821941.000000
822819.000000
823592.000000
824363.000000
825154.000000
825916.000000
826755.000000
827856.000000
828922.000000
829873.000000
830804.000000
831780.000000
832677.000000
833518.000000
834357.000000
835263.000000
836411.000000
837486.000000
838474.000000
839513.000000
840550.000000
841442.000000
842271.000000
843174.000000
844203.000000
845124.000000
846057.000000
847193.000000
848265.000000
849238.000000
850285.000000
851287.000000
852195.000000
853219.000000
854251.000000
855179.000000
856205.000000
857204.000000
858133.000000
859075.000000
860077.000000
860986.000000
861870.000000
862896.000000
863888.000000
864762.000000
865707.000000
866762.000000
867749.000000
868675.000000
869533.000000
870577.000000
871601.000000
872498.000000
873357.000000
874218.000000
875337.000000
876404.000000
877330.000000
878287.000000
879372.000000
880384.000000
881345.000000
882243.000000
883337.000000
884409.000000
885354.000000
886344.000000
887404.000000
888359.000000
889240.000000
890192.000000
891285.000000
892341.000000
893433.000000
894569.000000
895610.000000
896551.000000
897660.000000
898774.000000
899766.000000
900645.000000
901541.000000
902684.000000
903739.000000
904741.000000
905792.000000
906909.000000
907952.000000
908975.000000
910070.000000
911040.000000
912019.000000
913080.000000
914133.000000
