ECG (ms)
575.000000
1492.000000
2370.000000
3272.000000
4155.000000
5050.000000
6018.000000
7028.000000
7996.000000
8958.000000
9865.000000
10786.000000
11650.000000
12394.000000
13137.000000
14007.000000
15004.000000
15984.000000
16903.000000
17848.000000
18819.000000
19718.000000
20606.000000
21542.000000
22425.000000
23315.000000
24260.000000
25187.000000
26102.000000
27054.000000
27958.000000
28838.000000
29753.000000
30633.000000
31533.000000
32524.000000
33471.000000
34465.000000
35416.000000
36329.000000
37265.000000
38180.000000
39097.000000
40028.000000
40958.000000
41840.000000
42711.000000
43586.000000
44500.000000
45453.000000
46380.000000
47318.000000
48327.000000
49301.000000
50219.000000
51082.000000
52004.000000
52938.000000
53881.000000
54834.000000
55750.000000
56646.000000
57577.000000
58499.000000
59376.000000
60293.000000
61261.000000
62263.000000
63240.000000
64192.000000
65186.000000
66146.000000
67098.000000
67987.000000
68840.000000
69709.000000
70678.000000
71625.000000
72556.000000
73519.000000
74490.000000
75462.000000
76375.000000
77252.000000
78134.000000
79078.000000
79996.000000
80924.000000
81905.000000
82839.000000
83714.000000
84620.000000
85602.000000
86566.000000
87483.000000
88375.000000
89367.000000
90365.000000
91281.000000
92234.000000
93182.000000
94041.000000
94891.000000
95842.000000
96806.000000
97681.000000
98642.000000
99626.000000
100581.000000
101519.000000
102387.000000
103274.000000
104152.000000
105020.000000
105979.000000
106959.000000
107878.000000
108864.000000
109808.000000
110702.000000
111614.000000
112489.000000
113350.000000
114263.000000
115168.000000
116082.000000
117020.000000
117923.000000
118858.000000
119760.000000
120656.000000
121578.000000
122459.000000
123344.000000
124317.000000
125289.000000
126235.000000
127218.000000
128119.000000
129027.000000
129979.000000
130898.000000
131829.000000
132785.000000
133702.000000
134667.000000
135615.000000
136553.000000
137494.000000
138423.000000
139311.000000
140221.000000
141165.000000
142036.000000
142913.000000
143902.000000
144832.000000
145732.000000
146630.000000
147539.000000
148372.000000
149226.000000
150007.000000
150733.000000
151578.000000
152561.000000
153473.000000
154393.000000
155328.000000
156180.000000
157007.000000
157823.000000
158699.000000
159550.000000
160480.000000
161468.000000
162412.000000
163298.000000
164225.000000
165157.000000
166030.000000
166891.000000
167824.000000
168790.000000
169730.000000
170620.000000
171487.000000
172454.000000
173405.000000
174323.000000
175169.000000
176000.000000
176923.000000
177900.000000
178855.000000
179730.000000
180570.000000
181435.000000
182337.000000
183222.000000
184143.000000
185126.000000
186059.000000
186936.000000
187854.000000
188835.000000
189792.000000
190692.000000
191552.000000
192464.000000
193410.000000
194325.000000
195255.000000
196170.000000
197029.000000
197952.000000
198916.000000
199824.000000
200776.000000
201732.000000
202619.000000
203529.000000
204461.000000
205331.000000
206248.000000
207184.000000
208100.000000
209077.000000
210011.000000
210929.000000
211859.000000
212789.000000
213782.000000
214774.000000
215727.000000
216776.000000
217788.000000
218750.000000
219728.000000
220696.000000
221613.000000
222568.000000
223487.000000
224384.000000
225304.000000
226228.000000
227090.000000
227939.000000
228880.000000
229796.000000
230724.000000
231676.000000
232612.000000
233551.000000
234530.000000
235516.000000
236435.000000
237360.000000
238348.000000
239311.000000
240252.000000
241121.000000
242005.000000
243005.000000
243953.000000
244876.000000
245852.000000
246855.000000
247759.000000
248647.000000
249561.000000
250498.000000
251393.000000
252322.000000
253279.000000
254184.000000
255119.000000
256057.000000
256993.000000
257937.000000
258917.000000
259832.000000
260724.000000
261655.000000
262649.000000
263567.000000
264498.000000
265446.000000
266345.000000
267224.000000
268197.000000
269155.000000
270103.000000
271091.000000
272047.000000
272985.000000
273953.000000
274891.000000
275741.000000
276644.000000
277612.000000
278554.000000
279534.000000
280538.000000
281475.000000
282431.000000
283399.000000
284303.000000
285204.000000
286109.000000
286998.000000
287864.000000
288853.000000
289849.000000
290777.000000
291722.000000
292697.000000
293632.000000
294555.000000
295509.000000
296472.000000
297365.000000
298264.000000
299212.000000
300127.000000
301043.000000
302020.000000
302956.000000
303853.000000
304790.000000
305725.000000
306602.000000
307523.000000
308480.000000
309370.000000
310281.000000
311247.000000
312147.000000
313070.000000
314010.000000
314895.000000
315804.000000
316725.000000
317605.000000
318461.000000
319396.000000
320313.000000
321197.000000
322104.000000
323037.000000
323923.000000
324822.000000
325747.000000
326648.000000
327579.000000
328481.000000
329271.000000
330037.000000
330865.000000
331744.000000
332753.000000
333719.000000
334642.000000
335565.000000
336467.000000
337373.000000
338298.000000
339217.000000
340122.000000
341058.000000
342007.000000
342887.000000
343751.000000
344585.000000
345371.000000
346088.000000
346787.000000
347529.000000
348391.000000
349239.000000
350127.000000
351035.000000
351875.000000
352716.000000
353613.000000
354483.000000
355294.000000
356128.000000
357115.000000
358003.000000
358887.000000
359819.000000
360759.000000
361642.000000
362492.000000
363336.000000
364159.000000
364972.000000
365869.000000
366809.000000
367680.000000
368547.000000
369440.000000
370289.000000
371148.000000
372045.000000
372959.000000
373849.000000
374766.000000
375772.000000
376711.000000
377658.000000
378638.000000
379581.000000
380489.000000
381420.000000
382317.000000
383191.000000
384102.000000
385011.000000
385902.000000
386826.000000
387780.000000
388694.000000
389619.000000
390534.000000
391444.000000
392373.000000
393281.000000
394166.000000
395102.000000
396056.000000
396964.000000
397964.000000
398912.000000
399840.000000
400763.000000
401680.000000
402554.000000
403456.000000
404351.000000
405232.000000
406140.000000
407068.000000
407957.000000
408889.000000
409862.000000
410798.000000
411676.000000
412544.000000
413390.000000
414220.000000
415151.000000
416147.000000
417091.000000
418069.000000
419032.000000
419932.000000
420805.000000
421656.000000
422449.000000
423236.000000
424144.000000
425054.000000
425981.000000
426991.000000
427968.000000
428960.000000
429966.000000
430930.000000
431893.000000
432849.000000
433758.000000
434701.000000
435616.000000
436462.000000
437310.000000
438207.000000
439083.000000
439984.000000
440915.000000
441813.000000
442741.000000
443672.000000
444548.000000
445460.000000
446370.000000
447258.000000
448184.000000
449117.000000
450023.000000
450945.000000
451871.000000
452761.000000
453685.000000
454606.000000
455495.000000
456412.000000
457339.000000
458236.000000
459178.000000
460095.000000
460977.000000
461868.000000
462848.000000
463773.000000
464695.000000
465688.000000
466678.000000
467641.000000
468546.000000
469479.000000
470442.000000
471330.000000
472156.000000
473006.000000
473973.000000
474936.000000
475946.000000
476973.000000
477939.000000
478848.000000
479781.000000
480693.000000
481567.000000
482446.000000
483413.000000
484338.000000
485250.000000
486205.000000
487103.000000
488038.000000
489052.000000
490002.000000
490944.000000
491915.000000
492829.000000
493706.000000
494590.000000
495467.000000
496341.000000
497284.000000
498217.000000
499150.000000
500114.000000
501071.000000
501998.000000
502957.000000
503915.000000
504802.000000
505718.000000
506661.000000
507554.000000
508490.000000
509459.000000
510377.000000
511310.000000
512249.000000
513132.000000
514054.000000
515004.000000
515901.000000
516787.000000
517702.000000
518576.000000
519464.000000
520379.000000
521250.000000
522163.000000
523098.000000
523985.000000
524889.000000
525806.000000
526688.000000
527602.000000
528550.000000
529451.000000
530366.000000
531283.000000
532162.000000
533055.000000
533942.000000
534800.000000
535662.000000
536554.000000
537444.000000
538370.000000
539344.000000
540290.000000
541257.000000
542157.000000
543040.000000
543919.000000
544764.000000
545564.000000
546397.000000
547292.000000
548136.000000
548984.000000
549890.000000
550733.000000
551582.000000
552536.000000
553423.000000
554303.000000
555198.000000
556089.000000
556994.000000
557967.000000
558916.000000
559838.000000
560817.000000
561796.000000
562721.000000
563659.000000
564604.000000
565497.000000
566417.000000
567407.000000
568353.000000
569286.000000
570221.000000
571131.000000
572026.000000
572966.000000
573888.000000
574806.000000
575762.000000
576651.000000
577540.000000
578429.000000
579308.000000
580216.000000
581139.000000
582044.000000
582996.000000
583960.000000
584869.000000
585791.000000
586691.000000
587521.000000
588352.000000
589200.000000
590058.000000
591031.000000
591979.000000
592857.000000
593701.000000
594526.000000
595385.000000
596314.000000
597262.000000
598174.000000
599087.000000
600008.000000
600882.000000
601729.000000
602568.000000
603340.000000
604056.000000
604888.000000
605825.000000
606775.000000
607689.000000
608497.000000
609265.000000
610053.000000
610853.000000
611657.000000
612543.000000
613442.000000
614311.000000
615214.000000
616098.000000
616967.000000
617886.000000
618780.000000
619622.000000
620498.000000
621463.000000
622399.000000
623359.000000
624337.000000
625276.000000
626212.000000
627172.000000
628115.000000
629011.000000
629958.000000
630931.000000
631866.000000
632809.000000
633773.000000
634687.000000
635586.000000
636500.000000
637392.000000
638275.000000
639163.000000
640099.000000
641012.000000
641949.000000
642896.000000
643780.000000
644642.000000
645546.000000
646493.000000
647484.000000
648482.000000
649439.000000
650385.000000
651335.000000
652244.000000
653151.000000
654087.000000
654996.000000
655877.000000
656757.000000
657662.000000
658551.000000
659474.000000
660399.000000
661263.000000
662127.000000
663019.000000
663876.000000
664748.000000
665650.000000
666533.000000
667437.000000
668345.000000
669197.000000
670051.000000
670910.000000
671749.000000
672661.000000
673641.000000
674531.000000
675421.000000
676313.000000
677174.000000
678041.000000
678950.000000
679873.000000
680800.000000
681745.000000
682652.000000
683518.000000
684362.000000
685181.000000
685988.000000
686825.000000
687700.000000
688541.000000
689413.000000
690288.000000
691136.000000
691990.000000
692859.000000
693713.000000
694567.000000
695447.000000
696303.000000
697135.000000
698006.000000
698854.000000
699685.000000
700551.000000
701410.000000
702242.000000
703082.000000
703927.000000
704739.000000
705573.000000
706429.000000
707257.000000
708094.000000
708951.000000
709796.000000
710635.000000
711507.000000
712342.000000
713154.000000
713957.000000
714763.000000
715559.000000
716403.000000
717313.000000
718204.000000
719091.000000
719978.000000
720833.000000
721711.000000
722600.000000
723460.000000
724342.000000
725237.000000
726106.000000
726989.000000
727891.000000
728758.000000
729634.000000
730532.000000
731411.000000
732288.000000
733171.000000
734062.000000
734987.000000
735911.000000
736791.000000
737662.000000
738561.000000
739420.000000
740305.000000
741205.000000
742080.000000
743002.000000
743929.000000
744823.000000
745729.000000
746661.000000
747566.000000
748494.000000
749444.000000
750369.000000
751324.000000
752276.000000
753206.000000
754173.000000
755121.000000
756063.000000
757026.000000
757945.000000
758850.000000
759764.000000
760661.000000
761553.000000
762472.000000
763372.000000
764276.000000
765265.000000
766208.000000
767128.000000
768049.000000
768943.000000
769829.000000
770744.000000
771728.000000
772669.000000
773644.000000
774614.000000
775525.000000
776449.000000
777356.000000
778246.000000
779194.000000
780140.000000
781041.000000
782001.000000
782971.000000
783881.000000
784783.000000
785708.000000
786626.000000
787507.000000
788423.000000
789392.000000
790306.000000
791230.000000
792163.000000
793080.000000
793953.000000
794833.000000
795714.000000
796571.000000
797437.000000
798390.000000
799316.000000
800189.000000
801067.000000
801968.000000
802845.000000
803727.000000
804612.000000
805470.000000
806343.000000
807270.000000
808214.000000
809110.000000
810016.000000
810965.000000
811895.000000
812809.000000
813730.000000
814615.000000
815469.000000
816377.000000
817265.000000
818103.000000
818896.000000
819634.000000
820340.000000
821064.000000
821908.000000
822791.000000
823728.000000
824662.000000
825521.000000
826320.000000
827129.000000
827922.000000
828723.000000
829575.000000
830533.000000
831463.000000
832409.000000
833349.000000
834260.000000
835229.000000
836194.000000
837146.000000
838135.000000
839081.000000
840037.000000
841040.000000
841997.000000
842921.000000
843867.000000
844812.000000
845724.000000
846686.000000
847651.000000
848540.000000
849445.000000
850404.000000
851320.000000
852261.000000
853247.000000
854175.000000
855119.000000
856093.000000
857004.000000
857968.000000
858946.000000
859848.000000
860804.000000
861732.000000
862619.000000
863552.000000
864482.000000
865384.000000
866319.000000
867242.000000
868091.000000
868935.000000
869759.000000
870574.000000
871456.000000
872391.000000
873293.000000
874201.000000
875114.000000
875985.000000
876836.000000
877596.000000
878296.000000
879008.000000
879800.000000
880743.000000
881738.000000
882642.000000
883565.000000
884491.000000
885365.000000
886234.000000
887096.000000
887944.000000
888817.000000
889713.000000
890595.000000
891514.000000
892489.000000
893418.000000
894338.000000
895249.000000
896138.000000
897033.000000
897924.000000
898788.000000
899673.000000
900547.000000
901434.000000
902345.000000
903249.000000
904149.000000
905071.000000
905953.000000
906815.000000
907681.000000
908582.000000
909473.000000
910454.000000
911440.000000
912358.000000
913291.000000
914231.000000
915137.000000
916017.000000
916932.000000
917833.000000
918739.000000
919688.000000
920649.000000
921565.000000
922508.000000
923423.000000
924333.000000
925242.000000
926092.000000
926942.000000
927851.000000
928818.000000
929824.000000
930827.000000
931796.000000
932800.000000
933773.000000
934720.000000
935607.000000
936475.000000
937392.000000
938312.000000
939239.000000
940221.000000
941177.000000
942086.000000
942975.000000
943876.000000
944747.000000
945674.000000
946705.000000
947652.000000
948615.000000
949595.000000
950521.000000
951440.000000
952430.000000
953384.000000
954327.000000
955295.000000
956206.000000
957137.000000
958063.000000
958944.000000
959850.000000
960778.000000
961666.000000
962580.000000
963511.000000
964430.000000
965370.000000
966314.000000
967201.000000
968108.000000
969025.000000
969912.000000
970840.000000
971795.000000
972708.000000
973659.000000
974626.000000
975529.000000
976457.000000
977404.000000
978310.000000
979233.000000
980203.000000
981150.000000
982157.000000
983141.000000
984097.000000
985045.000000
985987.000000
986881.000000
987775.000000
988707.000000
989564.000000
990441.000000
991421.000000
992325.000000
993244.000000
994201.000000
995124.000000
996077.000000
997016.000000
997902.000000
998788.000000
999694.000000
1000590.000000
1001532.000000
1002507.000000
1003418.000000
1004321.000000
1005227.000000
1006114.000000
1007052.000000
1008042.000000
1008992.000000
1009919.000000
1010860.000000
1011778.000000
1012695.000000
1013659.000000
1014607.000000
1015513.000000
1016458.000000
1017393.000000
1018298.000000
1019227.000000
1020131.000000
1021054.000000
1022012.000000
1022968.000000
1023965.000000
1024964.000000
1025907.000000
1026855.000000
1027771.000000
1028707.000000
1029681.000000
1030630.000000
1031555.000000
1032499.000000
1033428.000000
1034322.000000
1035215.000000
1036176.000000
1037093.000000
1038070.000000
1039107.000000
1040079.000000
1041046.000000
1042054.000000
1043070.000000
1044022.000000
1044985.000000
1045963.000000
1046857.000000
1047735.000000
1048648.000000
1049608.000000
1050538.000000
1051534.000000
1052571.000000
1053543.000000
1054537.000000
1055520.000000
1056447.000000
1057363.000000
1058340.000000
1059300.000000
1060212.000000
1061171.000000
1062148.000000
1063073.000000
1064044.000000
1065017.000000
1065930.000000
1066868.000000
1067817.000000
1068741.000000
1069721.000000
1070738.000000
1071692.000000
1072678.000000
1073686.000000
1074646.000000
1075623.000000
1076608.000000
1077536.000000
1078523.000000
1079571.000000
1080521.000000
1081501.000000
1082476.000000
1083401.000000
1084381.000000
1085382.000000
1086334.000000
1087318.000000
1088306.000000
1089272.000000
1090244.000000
1091201.000000
1092159.000000
1093149.000000
1094090.000000
1095039.000000
1096016.000000
1096938.000000
1097882.000000
1098817.000000
1099729.000000
1100676.000000
1101627.000000
1102552.000000
1103487.000000
1104417.000000
1105352.000000
1106306.000000
1107227.000000
1108130.000000
1109063.000000
1110002.000000
1110954.000000
1111937.000000
1112875.000000
1113836.000000
1114802.000000
1115746.000000
1116728.000000
1117709.000000
1118641.000000
1119616.000000
1120580.000000
1121531.000000
1122535.000000
1123479.000000
1124409.000000
1125347.000000
1126273.000000
1127171.000000
1128098.000000
1129004.000000
1129857.000000
1130747.000000
1131668.000000
1132561.000000
1133483.000000
1134432.000000
1135323.000000
1136193.000000
1137088.000000
1137952.000000
1138829.000000
1139758.000000
1140647.000000
1141562.000000
1142492.000000
1143377.000000
1144303.000000
1145254.000000
1146147.000000
1147040.000000
1147951.000000
1148822.000000
1149719.000000
1150669.000000
1151620.000000
1152580.000000
1153546.000000
1154476.000000
1155402.000000
1156307.000000
1157176.000000
1158014.000000
1158768.000000
1159474.000000
1160202.000000
1161009.000000
1161906.000000
1162826.000000
1163666.000000
1164503.000000
1165327.000000
1166104.000000
1166869.000000
1167749.000000
1168675.000000
1169561.000000
1170521.000000
1171520.000000
1172448.000000
1173381.000000
1174316.000000
1175204.000000
1176053.000000
1176900.000000
1177840.000000
1178732.000000
1179672.000000
1180585.000000
1181456.000000
1182332.000000
1183259.000000
1184164.000000
1185107.000000
1186044.000000
1186924.000000
1187824.000000
1188744.000000
1189623.000000
1190483.000000
1191345.000000
1192161.000000
1192976.000000
1193821.000000
1194682.000000
1195548.000000
1196432.000000
1197321.000000
1198187.000000
1199050.000000
1199965.000000
1200899.000000
1201839.000000
1202812.000000
1203785.000000
1204753.000000
1205716.000000
1206649.000000
1207607.000000
1208567.000000
1209473.000000
1210447.000000
1211418.000000
1212373.000000
1213364.000000
1214321.000000
1215268.000000
1216206.000000
1217117.000000
1217998.000000
1218913.000000
1219842.000000
1220766.000000
1221723.000000
1222686.000000
1223616.000000
1224546.000000
1225474.000000
1226365.000000
1227270.000000
1228242.000000
1229169.000000
1230088.000000
1230983.000000
1231858.000000
1232780.000000
1233721.000000
1234635.000000
1235560.000000
1236479.000000
1237387.000000
1238290.000000
1239190.000000
1240078.000000
1241005.000000
1241950.000000
1242880.000000
1243798.000000
1244666.000000
1245552.000000
1246495.000000
1247410.000000
1248318.000000
1249226.000000
1250104.000000
1250971.000000
1251849.000000
1252722.000000
1253587.000000
1254521.000000
1255503.000000
1256411.000000
1257326.000000
1258255.000000
1259166.000000
1260120.000000
1261119.000000
1262081.000000
1263030.000000
1263966.000000
1264862.000000
1265776.000000
1266705.000000
1267635.000000
1268559.000000
1269526.000000
1270494.000000
1271407.000000
1272292.000000
1273193.000000
1274094.000000
1274989.000000
1275946.000000
1276907.000000
1277815.000000
1278733.000000
1279653.000000
1280573.000000
1281485.000000
1282459.000000
1283444.000000
1284376.000000
1285353.000000
1286321.000000
1287234.000000
1288183.000000
1289146.000000
1290050.000000
1290965.000000
1291878.000000
1292762.000000
1293681.000000
1294629.000000
1295510.000000
1296436.000000
1297405.000000
1298291.000000
1299206.000000
1300200.000000
1301162.000000
1302125.000000
1303083.000000
1304005.000000
1304969.000000
1305932.000000
1306855.000000
1307842.000000
1308861.000000
1309795.000000
1310750.000000
1311695.000000
1312620.000000
1313540.000000
1314459.000000
1315380.000000
1316357.000000
1317324.000000
1318274.000000
1319250.000000
1320200.000000
1321105.000000
1322021.000000
1322943.000000
1323869.000000
1324824.000000
1325758.000000
1326692.000000
1327626.000000
1328501.000000
1329343.000000
1330122.000000
1330838.000000
1331549.000000
1332343.000000
1333185.000000
1334125.000000
1335060.000000
1335940.000000
1336800.000000
1337641.000000
1338434.000000
1339259.000000
1340122.000000
1340951.000000
1341786.000000
1342703.000000
1343610.000000
1344494.000000
1345383.000000
1346237.000000
1347062.000000
1347910.000000
1348809.000000
1349699.000000
1350618.000000
1351564.000000
1352457.000000
1353364.000000
1354277.000000
1355147.000000
1356026.000000
1356892.000000
1357742.000000
1358641.000000
1359605.000000
1360556.000000
1361527.000000
1362466.000000
1363334.000000
1364176.000000
1365018.000000
1365857.000000
1366635.000000
1367370.000000
1368128.000000
1369081.000000
1369535.000000
1369986.000000
1370929.000000
1371892.000000
1372801.000000
1373685.000000
1374547.000000
1375401.000000
1376237.000000
1377152.000000
1378105.000000
1379033.000000
1379975.000000
1380873.000000
1381716.000000
1382530.000000
1383394.000000
1384350.000000
1385290.000000
1386181.000000
1387099.000000
1388034.000000
1388947.000000
1389922.000000
1390949.000000
1391903.000000
1392811.000000
1393709.000000
1394551.000000
1395458.000000
1396509.000000
1397515.000000
1398531.000000
1399543.000000
1400508.000000
1401481.000000
1402462.000000
1403393.000000
1404377.000000
1405365.000000
1406355.000000
1407355.000000
1408290.000000
1409212.000000
1410170.000000
1411034.000000
1411887.000000
1412800.000000
1413767.000000
1414785.000000
1415829.000000
1416817.000000
1417807.000000
1418799.000000
1419749.000000
1420723.000000
1421663.000000
1422577.000000
1423522.000000
1424426.000000
1425349.000000
1426311.000000
1427304.000000
1428276.000000
1429226.000000
1430113.000000
1430974.000000
1431893.000000
1432755.000000
1433628.000000
1434437.000000
1435219.000000
1436107.000000
1437076.000000
1438026.000000
1438917.000000
1439802.000000
1440672.000000
1441484.000000
1442295.000000
1443274.000000
1444210.000000
1445123.000000
1446081.000000
1447005.000000
1447905.000000
1448808.000000
1449719.000000
1450640.000000
1451627.000000
1452585.000000
1453527.000000
1454518.000000
1455490.000000
1456440.000000
1457387.000000
1458272.000000
1459134.000000
1460032.000000
1460913.000000
1461803.000000
1462722.000000
1463629.000000
1464529.000000
1465462.000000
1466343.000000
1467222.000000
1468134.000000
1469013.000000
1469873.000000
1470746.000000
1471612.000000
1472513.000000
1473422.000000
1474291.000000
1475174.000000
1476080.000000
1476957.000000
1477854.000000
1478760.000000
1479658.000000
1480568.000000
1481464.000000
1482353.000000
1483325.000000
1484276.000000
1485188.000000
1486119.000000
1487053.000000
1488007.000000
1488976.000000
1489897.000000
1490799.000000
1491732.000000
1492676.000000
1493635.000000
1494609.000000
1495533.000000
1496438.000000
1497338.000000
1498205.000000
1499101.000000
1500007.000000
1500888.000000
1501807.000000
1502710.000000
1503590.000000
1504480.000000
1505367.000000
1506231.000000
1507127.000000
1508023.000000
1508928.000000
1509874.000000
1510773.000000
1511631.000000
1512506.000000
1513392.000000
1514246.000000
1515129.000000
1516066.000000
1516955.000000
1517863.000000
1518772.000000
1519620.000000
1520479.000000
1521355.000000
1522225.000000
1523141.000000
1524058.000000
1524957.000000
1525875.000000
1526769.000000
1527640.000000
1528505.000000
1529374.000000
1530306.000000
1531233.000000
1532139.000000
1533049.000000
1533918.000000
1534727.000000
1535502.000000
1536279.000000
1537160.000000
1538115.000000
1539057.000000
1540048.000000
1541020.000000
1541999.000000
1542985.000000
1543908.000000
1544819.000000
1545734.000000
1546637.000000
1547551.000000
1548539.000000
1549519.000000
1550473.000000
1551446.000000
1552383.000000
1553299.000000
1554205.000000
1555083.000000
1555954.000000
1556860.000000
1557761.000000
1558706.000000
1559671.000000
1560576.000000
1561461.000000
1562375.000000
1563249.000000
1564100.000000
1564950.000000
1565812.000000
1566698.000000
1567639.000000
1568527.000000
1569424.000000
1570361.000000
1571297.000000
1572248.000000
1573204.000000
1574145.000000
1575101.000000
1576074.000000
1576989.000000
1577904.000000
1578824.000000
1579727.000000
1580699.000000
1581643.000000
1582536.000000
1583434.000000
1584373.000000
1585299.000000
1586247.000000
1587190.000000
1588092.000000
1589006.000000
1589903.000000
1590778.000000
1591652.000000
1592567.000000
1593472.000000
1594449.000000
1595418.000000
1596355.000000
1597296.000000
1598198.000000
1599084.000000
1600008.000000
1600919.000000
1601903.000000
1602876.000000
1603802.000000
1604719.000000
1605600.000000
1606473.000000
1607361.000000
1608225.000000
1609096.000000
1610011.000000
1610891.000000
1611779.000000
1612673.000000
1613531.000000
1614392.000000
1615272.000000
1616134.000000
1616993.000000
1617885.000000
1618764.000000
1619652.000000
1620544.000000
1621421.000000
1622296.000000
1623188.000000
1624076.000000
1624974.000000
1625868.000000
1626733.000000
1627582.000000
1628415.000000
1629229.000000
1630058.000000
1630937.000000
1631808.000000
1632699.000000
1633628.000000
1634512.000000
1635411.000000
1636309.000000
1637164.000000
1638027.000000
1638884.000000
1639723.000000
1640574.000000
1641480.000000
1642408.000000
1643343.000000
1644266.000000
1645180.000000
1646055.000000
1646931.000000
1647800.000000
1648655.000000
1649510.000000
1650403.000000
1651292.000000
1652274.000000
1653241.000000
1654161.000000
1655073.000000
1655947.000000
1656776.000000
1657599.000000
1658442.000000
1659277.000000
1660046.000000
1660795.000000
1661622.000000
1662533.000000
1663440.000000
1664369.000000
1665245.000000
1666091.000000
1666979.000000
1667823.000000
1668665.000000
1669522.000000
1670367.000000
1671245.000000
1672168.000000
1673067.000000
1673997.000000
1674953.000000
1675833.000000
1676733.000000
1677606.000000
1678463.000000
1679369.000000
1680319.000000
1681250.000000
1682204.000000
1683137.000000
1684017.000000
1684880.000000
1685735.000000
1686569.000000
1687426.000000
1688302.000000
1689142.000000
1689997.000000
1690883.000000
1691759.000000
1692656.000000
1693530.000000
1694396.000000
1695263.000000
1696124.000000
1696960.000000
1697832.000000
1698770.000000
1699691.000000
1700636.000000
1701555.000000
1702445.000000
1703325.000000
1704178.000000
1704988.000000
1705818.000000
1706708.000000
1707616.000000
1708540.000000
1709479.000000
1710395.000000
1711290.000000
1712183.000000
1713059.000000
1713943.000000
1714808.000000
1715639.000000
1716473.000000
1717306.000000
1718154.000000
1719033.000000
1719942.000000
1720814.000000
1721688.000000
1722563.000000
1723407.000000
1724257.000000
1725096.000000
1725913.000000
1726752.000000
1727632.000000
1728503.000000
1729408.000000
1730337.000000
1731231.000000
1732122.000000
1733010.000000
1733854.000000
1734705.000000
1735573.000000
1736462.000000
1737373.000000
1738276.000000
1739163.000000
1740052.000000
1740920.000000
1741742.000000
1742557.000000
1743413.000000
1744251.000000
1745115.000000
1746029.000000
1746946.000000
1747870.000000
1748822.000000
1749729.000000
1750642.000000
1751547.000000
1752410.000000
1753278.000000
1754181.000000
1755070.000000
1755990.000000
1756927.000000
1757820.000000
1758715.000000
1759595.000000
1760430.000000
1761200.000000
1761949.000000
1762715.000000
1763662.000000
1764613.000000
1765539.000000
1766416.000000
1767304.000000
1768267.000000
1769248.000000
1770217.000000
1771172.000000
1772070.000000
1772978.000000
1773922.000000
1774869.000000
1775761.000000
1776645.000000
1777578.000000
1778553.000000
1779489.000000
1780437.000000
1781377.000000
1782280.000000
1783198.000000
1784126.000000
1785057.000000
1785990.000000
1786914.000000
1787801.000000
1788710.000000
1789618.000000
1790515.000000
1791422.000000
1792317.000000
1793192.000000
1794062.000000
1794932.000000
1795787.000000
1796671.000000
1797583.000000
1798478.000000
1799394.000000
1800318.000000
1801208.000000
1802096.000000
1802953.000000
1803789.000000
1804659.000000
1805562.000000
1806482.000000
1807419.000000
1808287.000000
1809083.000000
1809834.000000
1810573.000000
1811385.000000
1812267.000000
1813139.000000
1814032.000000
1814882.000000
1815724.000000
1816562.000000
1817442.000000
1818288.000000
1819169.000000
1820055.000000
1820931.000000
1821863.000000
1822757.000000
1823637.000000
1824556.000000
1825468.000000
1826334.000000
1827250.000000
1828191.000000
1829090.000000
1830008.000000
1830915.000000
1831785.000000
1832687.000000
1833617.000000
1834493.000000
1835402.000000
1836342.000000
1837254.000000
1838197.000000
1839141.000000
1840060.000000
1841015.000000
1841968.000000
1842921.000000
1843869.000000
1844745.000000
1845581.000000
1846432.000000
1847372.000000
1848298.000000
1849237.000000
1850207.000000
1851140.000000
1852083.000000
1852653.000000
1853877.000000
1854732.000000
1855594.000000
