ECG (ms)
372.000000
1103.000000
1829.000000
2549.000000
3275.000000
4004.000000
4745.000000
5473.000000
6197.000000
6929.000000
7663.000000
8402.000000
9131.000000
9862.000000
10597.000000
11323.000000
12043.000000
12767.000000
13496.000000
14224.000000
14943.000000
15663.000000
16389.000000
17122.000000
17848.000000
18570.000000
19295.000000
20024.000000
20754.000000
21476.000000
22198.000000
22920.000000
23646.000000
24366.000000
25083.000000
25807.000000
26534.000000
27258.000000
27975.000000
28696.000000
29422.000000
30158.000000
30891.000000
31628.000000
32356.000000
33076.000000
33800.000000
34527.000000
35258.000000
35980.000000
36702.000000
37430.000000
38169.000000
38906.000000
39639.000000
40378.000000
41126.000000
41876.000000
42632.000000
43376.000000
44112.000000
44852.000000
45593.000000
46327.000000
47043.000000
47757.000000
48472.000000
49186.000000
49892.000000
50603.000000
51335.000000
52075.000000
52820.000000
53569.000000
54317.000000
55059.000000
55797.000000
56527.000000
57256.000000
57990.000000
58731.000000
59479.000000
60238.000000
61002.000000
61762.000000
62508.000000
63247.000000
63990.000000
64742.000000
65514.000000
66276.000000
67028.000000
67789.000000
68560.000000
69341.000000
70132.000000
70896.000000
71648.000000
72403.000000
73165.000000
73938.000000
74702.000000
75473.000000
76226.000000
76970.000000
77724.000000
78489.000000
79259.000000
80008.000000
80756.000000
81507.000000
82264.000000
83004.000000
83744.000000
84489.000000
85236.000000
85970.000000
86704.000000
87447.000000
88200.000000
88941.000000
89676.000000
90415.000000
91160.000000
91905.000000
92640.000000
93380.000000
94131.000000
94887.000000
95632.000000
96382.000000
97135.000000
97896.000000
98645.000000
99389.000000
100133.000000
100889.000000
101635.000000
102375.000000
103125.000000
103887.000000
104659.000000
105414.000000
106168.000000
106931.000000
107703.000000
108458.000000
109201.000000
109954.000000
110719.000000
111488.000000
112249.000000
113011.000000
113755.000000
114495.000000
115240.000000
115996.000000
116754.000000
117494.000000
118228.000000
118966.000000
119714.000000
120462.000000
121195.000000
121925.000000
122663.000000
123404.000000
124136.000000
124866.000000
125605.000000
126349.000000
127080.000000
127811.000000
128551.000000
129297.000000
130030.000000
130764.000000
131509.000000
132266.000000
133007.000000
133741.000000
134480.000000
135229.000000
135970.000000
136705.000000
137444.000000
138187.000000
138929.000000
139661.000000
140397.000000
141136.000000
141878.000000
142612.000000
143341.000000
144075.000000
144819.000000
145550.000000
146282.000000
147025.000000
147775.000000
148508.000000
149245.000000
149988.000000
150730.000000
151461.000000
152194.000000
152932.000000
153672.000000
154402.000000
155135.000000
155875.000000
156626.000000
157363.000000
158101.000000
158845.000000
159598.000000
160337.000000
161077.000000
161821.000000
162577.000000
163321.000000
164059.000000
164809.000000
165572.000000
166333.000000
167109.000000
167863.000000
168609.000000
169367.000000
170139.000000
170899.000000
171646.000000
172404.000000
173173.000000
173935.000000
174680.000000
175432.000000
176189.000000
176968.000000
177720.000000
178459.000000
179198.000000
179941.000000
180683.000000
181413.000000
182144.000000
182879.000000
183615.000000
184340.000000
185068.000000
185800.000000
186548.000000
187280.000000
188007.000000
188736.000000
189470.000000
190197.000000
190921.000000
191651.000000
192390.000000
193121.000000
193845.000000
194577.000000
195316.000000
196053.000000
196780.000000
197514.000000
198254.000000
198986.000000
199708.000000
200438.000000
201172.000000
201901.000000
202622.000000
203348.000000
204077.000000
204802.000000
205519.000000
206241.000000
206966.000000
207701.000000
208430.000000
209152.000000
209873.000000
210596.000000
211327.000000
212050.000000
212765.000000
213486.000000
214211.000000
214945.000000
215669.000000
216390.000000
217118.000000
217853.000000
218578.000000
219300.000000
220027.000000
220764.000000
221488.000000
222214.000000
222945.000000
223681.000000
224409.000000
225128.000000
225855.000000
226593.000000
227325.000000
228050.000000
228784.000000
229529.000000
230273.000000
231004.000000
231739.000000
232477.000000
233219.000000
233950.000000
234680.000000
235411.000000
236147.000000
236872.000000
237600.000000
238332.000000
239074.000000
239805.000000
240531.000000
241263.000000
242000.000000
242740.000000
243468.000000
244194.000000
244925.000000
245668.000000
246397.000000
247120.000000
247849.000000
248589.000000
249317.000000
250040.000000
250768.000000
251506.000000
252254.000000
252987.000000
253716.000000
254455.000000
255199.000000
255939.000000
256665.000000
257399.000000
258138.000000
258880.000000
259612.000000
260338.000000
261069.000000
261811.000000
262544.000000
263274.000000
264012.000000
264757.000000
265493.000000
266222.000000
266957.000000
267697.000000
268446.000000
269183.000000
269910.000000
270643.000000
271386.000000
272120.000000
272845.000000
273579.000000
274317.000000
275068.000000
275825.000000
276569.000000
277295.000000
278023.000000
278752.000000
279494.000000
280223.000000
280944.000000
281671.000000
282408.000000
283159.000000
283894.000000
284618.000000
285348.000000
286082.000000
286818.000000
287542.000000
288263.000000
288987.000000
289720.000000
290447.000000
291163.000000
291886.000000
292616.000000
293349.000000
294073.000000
294796.000000
295523.000000
296262.000000
296998.000000
297725.000000
298456.000000
299195.000000
299951.000000
300693.000000
301429.000000
302175.000000
302932.000000
303677.000000
304412.000000
305152.000000
305894.000000
306647.000000
307388.000000
308119.000000
308857.000000
309606.000000
310362.000000
311106.000000
311841.000000
312584.000000
313334.000000
314088.000000
314827.000000
315559.000000
316296.000000
317038.000000
317783.000000
318518.000000
319249.000000
319982.000000
320723.000000
321468.000000
322200.000000
322931.000000
323668.000000
324412.000000
325143.000000
325869.000000
326599.000000
327340.000000
328086.000000
328821.000000
329555.000000
330293.000000
331040.000000
331796.000000
332537.000000
333270.000000
333987.000000
334703.000000
335437.000000
336175.000000
336908.000000
337629.000000
338339.000000
339046.000000
339752.000000
340462.000000
341171.000000
341882.000000
342591.000000
343299.000000
344009.000000
344727.000000
345458.000000
346199.000000
346951.000000
347690.000000
348425.000000
349167.000000
349920.000000
350689.000000
351458.000000
352218.000000
352957.000000
353693.000000
354429.000000
355175.000000
355925.000000
356662.000000
357401.000000
358150.000000
358910.000000
359659.000000
360396.000000
361136.000000
361892.000000
362639.000000
363377.000000
364126.000000
364887.000000
365636.000000
366375.000000
367125.000000
367892.000000
368649.000000
369397.000000
370156.000000
370930.000000
371714.000000
372471.000000
373217.000000
373978.000000
374753.000000
375531.000000
376283.000000
377038.000000
377802.000000
378576.000000
379332.000000
380077.000000
380830.000000
381592.000000
382344.000000
383085.000000
383832.000000
384578.000000
385311.000000
386047.000000
386786.000000
387524.000000
388252.000000
388989.000000
389732.000000
390468.000000
391196.000000
391933.000000
392676.000000
393408.000000
394135.000000
394870.000000
395613.000000
396347.000000
397076.000000
397811.000000
398551.000000
399283.000000
400012.000000
400751.000000
401494.000000
402228.000000
402959.000000
403698.000000
404449.000000
405184.000000
405920.000000
406665.000000
407425.000000
408172.000000
408907.000000
409647.000000
410402.000000
411166.000000
411918.000000
412653.000000
413395.000000
414146.000000
414908.000000
415658.000000
416396.000000
417138.000000
417893.000000
418659.000000
419408.000000
420148.000000
420902.000000
421664.000000
422423.000000
423165.000000
423913.000000
424669.000000
425434.000000
426184.000000
426938.000000
427706.000000
428477.000000
429225.000000
429973.000000
430723.000000
431490.000000
432241.000000
432976.000000
433716.000000
434467.000000
435218.000000
435953.000000
436687.000000
437425.000000
438165.000000
438896.000000
439626.000000
440360.000000
441102.000000
441838.000000
442569.000000
443307.000000
444053.000000
444786.000000
445515.000000
446247.000000
446995.000000
447761.000000
448514.000000
449249.000000
449991.000000
450741.000000
451511.000000
452266.000000
453003.000000
453745.000000
454495.000000
455248.000000
455986.000000
456717.000000
457454.000000
458202.000000
458943.000000
459677.000000
460419.000000
461172.000000
461922.000000
462661.000000
463410.000000
464169.000000
464912.000000
465651.000000
466398.000000
467154.000000
467897.000000
468643.000000
469391.000000
470146.000000
470884.000000
471621.000000
472361.000000
473103.000000
473834.000000
474566.000000
475307.000000
476063.000000
476804.000000
477541.000000
478286.000000
479034.000000
479774.000000
480520.000000
481281.000000
482059.000000
482817.000000
483571.000000
484332.000000
485105.000000
485858.000000
486614.000000
487377.000000
488150.000000
488901.000000
489647.000000
490401.000000
491166.000000
491921.000000
492659.000000
493401.000000
494149.000000
494913.000000
495664.000000
496400.000000
497144.000000
497893.000000
498643.000000
499381.000000
500119.000000
500870.000000
501629.000000
502378.000000
503119.000000
503871.000000
504636.000000
505391.000000
506135.000000
506896.000000
507670.000000
508461.000000
509226.000000
509979.000000
510738.000000
511509.000000
512275.000000
513023.000000
513781.000000
514546.000000
515330.000000
516092.000000
516835.000000
517579.000000
518330.000000
519094.000000
519843.000000
520581.000000
521323.000000
522077.000000
522832.000000
523573.000000
524323.000000
525089.000000
525846.000000
526586.000000
527330.000000
528079.000000
528839.000000
529582.000000
530320.000000
531062.000000
531823.000000
532573.000000
533310.000000
534055.000000
534809.000000
535558.000000
536295.000000
537042.000000
537794.000000
538535.000000
539268.000000
540005.000000
540748.000000
541499.000000
542237.000000
542970.000000
543713.000000
544460.000000
545198.000000
545928.000000
546661.000000
547407.000000
548150.000000
548882.000000
549626.000000
550376.000000
551123.000000
551854.000000
552589.000000
553342.000000
554106.000000
554854.000000
555587.000000
556331.000000
557093.000000
557855.000000
558597.000000
559350.000000
560111.000000
560861.000000
561597.000000
562342.000000
563095.000000
563859.000000
564605.000000
565343.000000
566086.000000
566837.000000
567577.000000
568304.000000
569038.000000
569778.000000
570538.000000
571284.000000
572016.000000
572761.000000
573509.000000
574261.000000
574994.000000
575733.000000
576480.000000
577236.000000
577974.000000
578711.000000
579454.000000
580215.000000
580967.000000
581701.000000
582443.000000
583194.000000
583964.000000
584713.000000
585455.000000
586202.000000
586965.000000
587724.000000
588465.000000
589207.000000
589961.000000
590713.000000
591446.000000
592173.000000
592912.000000
593658.000000
594396.000000
595120.000000
595853.000000
596596.000000
597350.000000
598086.000000
598824.000000
599570.000000
600331.000000
601077.000000
601810.000000
602553.000000
603312.000000
604058.000000
604794.000000
605542.000000
606297.000000
607039.000000
607775.000000
608518.000000
609267.000000
610000.000000
610723.000000
611453.000000
612188.000000
612916.000000
613636.000000
614362.000000
615095.000000
615822.000000
616540.000000
617264.000000
617997.000000
618725.000000
619447.000000
620176.000000
620921.000000
621659.000000
622388.000000
623120.000000
623858.000000
624595.000000
625320.000000
626048.000000
626779.000000
627506.000000
628223.000000
628944.000000
629667.000000
630398.000000
631123.000000
631842.000000
632565.000000
633297.000000
634022.000000
634739.000000
635462.000000
636193.000000
636937.000000
637665.000000
638393.000000
639125.000000
639862.000000
640587.000000
641313.000000
642046.000000
642791.000000
643520.000000
644252.000000
644988.000000
645735.000000
646465.000000
647196.000000
647933.000000
648677.000000
649409.000000
650136.000000
650866.000000
651600.000000
652321.000000
653037.000000
653755.000000
654479.000000
655197.000000
655907.000000
656623.000000
657348.000000
658068.000000
658780.000000
659494.000000
660218.000000
660937.000000
661651.000000
662369.000000
663091.000000
663807.000000
664521.000000
665241.000000
665967.000000
666688.000000
667402.000000
668121.000000
668845.000000
669567.000000
670283.000000
671004.000000
671730.000000
672463.000000
673182.000000
673900.000000
674620.000000
675350.000000
676071.000000
676791.000000
677516.000000
678249.000000
678976.000000
679699.000000
680429.000000
681167.000000
681916.000000
682652.000000
683378.000000
684104.000000
684833.000000
685568.000000
686293.000000
687013.000000
687740.000000
688475.000000
689224.000000
689966.000000
690694.000000
691425.000000
692162.000000
692897.000000
693624.000000
694357.000000
695100.000000
695855.000000
696593.000000
697337.000000
698085.000000
698835.000000
699567.000000
700298.000000
701034.000000
701771.000000
702496.000000
703221.000000
703954.000000
704695.000000
705428.000000
706157.000000
706892.000000
707635.000000
708373.000000
709099.000000
709829.000000
710560.000000
711295.000000
712018.000000
712735.000000
713463.000000
714200.000000
714948.000000
715683.000000
716407.000000
717131.000000
717867.000000
718615.000000
719354.000000
720080.000000
720813.000000
721555.000000
722309.000000
723047.000000
723778.000000
724511.000000
725245.000000
725988.000000
726721.000000
727442.000000
728147.000000
728863.000000
729577.000000
730295.000000
731007.000000
731710.000000
732411.000000
733111.000000
733816.000000
734516.000000
735220.000000
735929.000000
736648.000000
737376.000000
738102.000000
738823.000000
739553.000000
740286.000000
741029.000000
741756.000000
742482.000000
743215.000000
743956.000000
744687.000000
745414.000000
746145.000000
746883.000000
747615.000000
748340.000000
749073.000000
749820.000000
750579.000000
751328.000000
752064.000000
752807.000000
753558.000000
754310.000000
755045.000000
755786.000000
756532.000000
757280.000000
758014.000000
758753.000000
759498.000000
760238.000000
760968.000000
761702.000000
762437.000000
763179.000000
763909.000000
764640.000000
765381.000000
766131.000000
766865.000000
767596.000000
768333.000000
769076.000000
769811.000000
770544.000000
771289.000000
772042.000000
772777.000000
773513.000000
774253.000000
775003.000000
775738.000000
776472.000000
777212.000000
777963.000000
778696.000000
779427.000000
780163.000000
780905.000000
781634.000000
782360.000000
783089.000000
783827.000000
784557.000000
785280.000000
786010.000000
786749.000000
787484.000000
788208.000000
788939.000000
789676.000000
790407.000000
791149.000000
791896.000000
792658.000000
793401.000000
794140.000000
794887.000000
795651.000000
796404.000000
797142.000000
797889.000000
798648.000000
799406.000000
800143.000000
800884.000000
801633.000000
802385.000000
803119.000000
803845.000000
804577.000000
805316.000000
806051.000000
806774.000000
807495.000000
808225.000000
808957.000000
809677.000000
810393.000000
811115.000000
811845.000000
812569.000000
813284.000000
814000.000000
814727.000000
815461.000000
816187.000000
816902.000000
817622.000000
818349.000000
819086.000000
819813.000000
820529.000000
821250.000000
821976.000000
822702.000000
823419.000000
824132.000000
824848.000000
825573.000000
826296.000000
827012.000000
827733.000000
828465.000000
829201.000000
829927.000000
830655.000000
831391.000000
832139.000000
832878.000000
833605.000000
834338.000000
835079.000000
835830.000000
836566.000000
837300.000000
838040.000000
838797.000000
839542.000000
840273.000000
841014.000000
841760.000000
842503.000000
843233.000000
843964.000000
844709.000000
845472.000000
846218.000000
846951.000000
847685.000000
848423.000000
849175.000000
849924.000000
850662.000000
851387.000000
852118.000000
852858.000000
853612.000000
854353.000000
855083.000000
855820.000000
856568.000000
857331.000000
858072.000000
858800.000000
859534.000000
860274.000000
861011.000000
861735.000000
862465.000000
863200.000000
863940.000000
864662.000000
865375.000000
866092.000000
866810.000000
867534.000000
868253.000000
868966.000000
869689.000000
870424.000000
871165.000000
871890.000000
872615.000000
873349.000000
874096.000000
874826.000000
875546.000000
876275.000000
877009.000000
877733.000000
878449.000000
879173.000000
879905.000000
880630.000000
881345.000000
882065.000000
882788.000000
883510.000000
884223.000000
884949.000000
885686.000000
886420.000000
887142.000000
887872.000000
888612.000000
889368.000000
890105.000000
890833.000000
891570.000000
892313.000000
893049.000000
893779.000000
894520.000000
895277.000000
896026.000000
896762.000000
897510.000000
898276.000000
899028.000000
899768.000000
900514.000000
901270.000000
