ECG (ms)
63.000000
899.000000
1754.000000
2623.000000
3444.000000
4318.000000
5219.000000
6103.000000
6940.000000
7819.000000
8728.000000
9605.000000
10436.000000
11359.000000
12266.000000
13118.000000
13970.000000
14865.000000
15797.000000
16662.000000
17554.000000
18501.000000
19444.000000
20309.000000
21239.000000
22186.000000
23120.000000
23972.000000
24927.000000
25893.000000
26863.000000
27748.000000
28634.000000
29545.000000
30447.000000
31276.000000
32176.000000
33101.000000
34036.000000
34917.000000
35790.000000
36710.000000
37651.000000
38551.000000
39443.000000
40369.000000
41313.000000
42250.000000
43121.000000
44033.000000
45067.000000
46042.000000
47022.000000
48018.000000
48935.000000
49823.000000
50777.000000
51776.000000
52696.000000
53643.000000
54627.000000
55582.000000
56435.000000
57362.000000
58346.000000
59335.000000
60219.000000
61119.000000
62052.000000
62914.000000
63803.000000
64750.000000
65672.000000
66527.000000
67489.000000
68499.000000
69469.000000
70334.000000
71202.000000
72081.000000
72942.000000
73793.000000
74728.000000
75788.000000
76710.000000
77620.000000
78508.000000
79333.000000
80186.000000
81061.000000
81944.000000
82769.000000
83655.000000
84641.000000
85563.000000
86416.000000
87311.000000
88252.000000
89133.000000
89956.000000
90897.000000
91799.000000
92694.000000
93554.000000
94448.000000
95355.000000
96261.000000
97106.000000
98008.000000
98940.000000
99876.000000
100740.000000
101685.000000
102655.000000
103576.000000
104425.000000
105374.000000
106336.000000
107218.000000
108114.000000
109036.000000
109992.000000
110858.000000
111774.000000
112710.000000
113645.000000
114510.000000
115416.000000
116393.000000
117321.000000
118163.000000
119033.000000
119921.000000
120791.000000
121651.000000
122624.000000
123603.000000
124452.000000
125327.000000
126194.000000
127021.000000
127882.000000
128791.000000
129714.000000
130578.000000
131509.000000
132492.000000
133365.000000
134219.000000
135107.000000
136012.000000
136864.000000
137761.000000
138755.000000
139699.000000
140532.000000
141392.000000
142321.000000
143192.000000
144111.000000
145127.000000
146071.000000
146941.000000
147856.000000
148848.000000
149755.000000
150686.000000
151686.000000
152692.000000
153621.000000
154567.000000
155504.000000
156403.000000
157339.000000
158316.000000
158817.000000
159870.000000
160936.000000
161897.000000
162858.000000
163910.000000
164953.000000
165881.000000
166926.000000
167973.000000
168910.000000
169899.000000
170971.000000
172048.000000
173037.000000
174066.000000
175120.000000
176064.000000
177108.000000
178176.000000
179112.000000
179992.000000
180954.000000
181955.000000
182856.000000
183940.000000
185064.000000
186129.000000
187113.000000
188141.000000
189161.000000
190092.000000
191134.000000
192152.000000
193083.000000
194087.000000
195091.000000
195977.000000
196944.000000
197988.000000
198963.000000
199872.000000
200879.000000
201913.000000
202871.000000
203881.000000
204921.000000
205897.000000
206854.000000
207858.000000
208878.000000
209777.000000
210732.000000
211795.000000
212763.000000
213800.000000
214826.000000
215750.000000
216574.000000
217488.000000
218586.000000
219565.000000
220404.000000
221270.000000
222176.000000
223007.000000
223884.000000
224823.000000
226358.000000
227371.000000
228394.000000
229249.000000
230052.000000
230938.000000
231926.000000
232788.000000
233685.000000
234657.000000
235506.000000
236317.000000
237231.000000
238187.000000
239009.000000
239860.000000
240828.000000
241754.000000
242640.000000
243573.000000
244466.000000
245279.000000
246117.000000
247052.000000
247906.000000
248736.000000
249592.000000
250400.000000
251164.000000
251951.000000
252649.000000
253410.000000
254210.000000
255008.000000
255805.000000
256624.000000
257470.000000
258284.000000
259125.000000
259960.000000
260755.000000
261584.000000
262437.000000
263280.000000
264082.000000
264913.000000
265756.000000
266541.000000
267342.000000
268171.000000
269002.000000
269802.000000
270628.000000
271487.000000
272334.000000
273137.000000
274026.000000
274958.000000
275793.000000
276584.000000
277424.000000
278302.000000
279215.000000
280068.000000
280974.000000
281914.000000
282881.000000
283749.000000
284676.000000
285607.000000
286504.000000
287347.000000
288253.000000
289155.000000
290066.000000
290907.000000
291805.000000
292701.000000
293574.000000
294393.000000
295251.000000
296145.000000
297013.000000
297838.000000
298701.000000
299586.000000
300487.000000
301324.000000
302201.000000
303093.000000
303975.000000
304816.000000
305683.000000
306581.000000
307430.000000
308283.000000
309209.000000
310119.000000
310959.000000
311809.000000
312720.000000
313664.000000
314523.000000
315417.000000
316343.000000
317410.000000
318512.000000
319434.000000
320351.000000
321286.000000
322130.000000
323032.000000
323987.000000
324947.000000
325823.000000
326827.000000
327836.000000
328742.000000
329614.000000
330504.000000
331358.000000
332183.000000
333095.000000
334031.000000
334913.000000
335860.000000
336835.000000
337738.000000
338620.000000
339547.000000
340462.000000
341323.000000
342247.000000
343235.000000
344167.000000
345075.000000
346034.000000
346983.000000
347868.000000
348838.000000
349900.000000
350838.000000
351733.000000
352635.000000
353527.000000
354378.000000
355311.000000
356286.000000
357179.000000
358084.000000
359046.000000
359979.000000
360808.000000
361679.000000
362584.000000
363444.000000
364308.000000
365265.000000
365762.000000
366780.000000
367725.000000
368760.000000
369731.000000
370627.000000
372174.000000
373116.000000
374005.000000
375009.000000
376062.000000
377018.000000
377919.000000
378856.000000
379850.000000
380735.000000
381219.000000
382301.000000
383311.000000
384230.000000
385166.000000
386149.000000
387046.000000
387865.000000
388757.000000
389769.000000
390674.000000
391637.000000
392714.000000
393753.000000
394674.000000
395670.000000
396805.000000
397909.000000
398911.000000
399837.000000
400897.000000
401947.000000
402916.000000
403942.000000
405019.000000
406093.000000
407088.000000
408145.000000
409207.000000
410160.000000
411140.000000
412242.000000
413336.000000
414345.000000
415367.000000
416417.000000
417420.000000
418494.000000
419659.000000
420706.000000
421658.000000
422732.000000
423841.000000
424864.000000
425845.000000
426874.000000
427742.000000
428563.000000
429681.000000
430690.000000
431763.000000
432886.000000
433906.000000
434872.000000
435926.000000
436858.000000
437668.000000
438534.000000
439622.000000
440582.000000
441617.000000
442672.000000
443646.000000
444688.000000
445787.000000
446849.000000
447863.000000
448937.000000
450012.000000
451019.000000
452083.000000
453161.000000
454206.000000
455256.000000
456296.000000
457253.000000
458184.000000
459257.000000
460275.000000
461309.000000
462443.000000
463462.000000
464366.000000
465370.000000
466352.000000
467213.000000
468194.000000
469200.000000
470074.000000
470957.000000
472029.000000
473086.000000
474093.000000
475170.000000
476217.000000
477181.000000
478255.000000
479342.000000
480309.000000
481339.000000
482406.000000
483438.000000
484389.000000
485373.000000
486425.000000
487360.000000
488292.000000
489330.000000
490350.000000
491253.000000
492345.000000
493435.000000
494427.000000
495523.000000
496645.000000
497718.000000
498756.000000
499839.000000
500936.000000
501970.000000
503108.000000
504203.000000
505175.000000
506083.000000
507159.000000
508212.000000
509156.000000
510232.000000
511302.000000
512256.000000
513327.000000
514367.000000
515307.000000
516274.000000
517342.000000
518364.000000
519326.000000
520410.000000
521491.000000
522547.000000
523592.000000
524697.000000
525770.000000
526812.000000
527787.000000
528824.000000
529922.000000
530963.000000
531949.000000
532980.000000
534050.000000
535040.000000
536175.000000
537292.000000
538394.000000
539516.000000
540557.000000
541487.000000
542639.000000
543819.000000
544895.000000
546035.000000
547134.000000
548148.000000
549244.000000
550410.000000
551530.000000
552558.000000
553621.000000
554721.000000
555758.000000
556881.000000
557999.000000
559058.000000
560088.000000
561172.000000
562207.000000
563187.000000
564263.000000
565333.000000
566359.000000
567353.000000
568488.000000
569573.000000
570583.000000
571649.000000
572737.000000
573724.000000
574711.000000
575791.000000
576859.000000
577869.000000
578975.000000
580058.000000
581020.000000
581996.000000
583077.000000
584180.000000
585274.000000
586404.000000
587503.000000
588478.000000
589483.000000
590546.000000
591583.000000
592431.000000
593340.000000
594359.000000
595336.000000
596244.000000
597278.000000
598504.000000
599572.000000
600680.000000
601683.000000
602570.000000
603491.000000
604530.000000
605509.000000
606451.000000
607488.000000
608591.000000
609543.000000
610474.000000
611414.000000
612363.000000
613249.000000
614172.000000
615140.000000
616022.000000
616965.000000
617963.000000
618881.000000
619751.000000
620671.000000
621563.000000
622417.000000
623274.000000
624173.000000
625102.000000
625943.000000
626789.000000
627644.000000
628515.000000
629336.000000
630139.000000
631037.000000
632037.000000
633072.000000
633988.000000
634487.000000
635641.000000
636777.000000
637774.000000
638753.000000
639726.000000
640577.000000
641453.000000
642343.000000
643122.000000
643912.000000
644820.000000
645634.000000
646451.000000
647214.000000
647968.000000
648825.000000
649630.000000
650429.000000
651237.000000
652054.000000
652835.000000
653664.000000
654540.000000
655371.000000
656185.000000
657028.000000
657910.000000
658747.000000
659555.000000
660421.000000
661302.000000
662125.000000
662952.000000
663827.000000
664708.000000
665546.000000
666380.000000
667236.000000
668128.000000
668960.000000
669840.000000
670758.000000
671633.000000
672459.000000
673331.000000
674246.000000
675128.000000
675931.000000
676795.000000
677682.000000
678525.000000
679340.000000
680202.000000
681075.000000
681978.000000
682827.000000
683758.000000
684713.000000
685687.000000
686618.000000
687530.000000
688519.000000
689618.000000
690645.000000
691605.000000
692552.000000
693514.000000
694408.000000
695280.000000
696287.000000
697479.000000
698563.000000
699654.000000
700728.000000
701717.000000
702639.000000
703664.000000
704744.000000
705789.000000
706763.000000
707795.000000
708837.000000
709913.000000
711047.000000
712082.000000
713027.000000
714104.000000
715213.000000
716195.000000
717318.000000
718407.000000
719313.000000
720317.000000
721432.000000
722439.000000
723351.000000
724378.000000
725460.000000
726471.000000
727633.000000
728775.000000
729865.000000
730861.000000
731993.000000
733092.000000
734144.000000
735097.000000
736278.000000
737435.000000
738552.000000
739557.000000
740638.000000
741728.000000
742746.000000
743675.000000
744770.000000
745859.000000
746883.000000
747994.000000
749056.000000
750044.000000
751147.000000
752284.000000
753344.000000
754369.000000
755422.000000
756526.000000
757573.000000
758566.000000
759619.000000
760697.000000
761698.000000
762846.000000
763983.000000
765035.000000
766160.000000
767244.000000
768240.000000
769351.000000
770466.000000
771476.000000
772523.000000
773620.000000
774636.000000
775767.000000
776896.000000
777962.000000
778995.000000
780067.000000
781100.000000
782014.000000
782852.000000
783938.000000
784990.000000
785953.000000
787105.000000
788086.000000
788977.000000
789935.000000
790997.000000
792083.000000
793044.000000
794018.000000
795019.000000
795943.000000
796881.000000
798130.000000
799245.000000
800340.000000
801436.000000
802514.000000
803529.000000
804628.000000
805730.000000
806746.000000
807683.000000
808685.000000
809749.000000
810792.000000
811754.000000
812880.000000
814031.000000
815144.000000
816102.000000
817080.000000
818273.000000
819321.000000
820556.000000
821714.000000
822838.000000
824021.000000
825125.000000
826132.000000
827263.000000
828415.000000
829446.000000
830529.000000
831653.000000
832721.000000
833790.000000
834917.000000
836007.000000
836981.000000
837950.000000
839013.000000
840057.000000
841114.000000
842234.000000
843250.000000
844234.000000
845289.000000
846344.000000
847287.000000
848267.000000
849284.000000
850359.000000
851362.000000
852496.000000
853557.000000
854561.000000
855569.000000
856586.000000
857590.000000
858792.000000
859970.000000
861454.000000
862505.000000
863560.000000
864535.000000
865698.000000
866789.000000
867864.000000
868894.000000
870058.000000
871108.000000
872091.000000
873010.000000
874116.000000
875155.000000
876231.000000
877414.000000
878467.000000
879463.000000
880599.000000
881718.000000
882726.000000
883727.000000
884782.000000
885796.000000
886924.000000
888050.000000
889071.000000
890123.000000
891162.000000
892166.000000
893110.000000
894270.000000
895401.000000
896441.000000
897497.000000
898630.000000
899744.000000
900768.000000
901843.000000
902963.000000
904070.000000
905088.000000
906200.000000
907327.000000
908319.000000
909369.000000
910444.000000
911341.000000
912219.000000
913131.000000
914033.000000
914945.000000
915879.000000
916905.000000
917838.000000
918754.000000
919734.000000
920665.000000
921507.000000
922391.000000
923432.000000
924466.000000
925361.000000
926330.000000
927506.000000
928531.000000
929756.000000
930876.000000
931809.000000
932773.000000
934030.000000
935144.000000
936163.000000
937207.000000
938347.000000
939422.000000
940470.000000
941558.000000
942610.000000
943739.000000
944796.000000
945828.000000
946875.000000
947896.000000
949430.000000
950525.000000
951610.000000
952651.000000
953772.000000
954883.000000
955887.000000
956940.000000
958005.000000
959028.000000
960028.000000
961054.000000
962122.000000
963186.000000
964382.000000
965536.000000
966603.000000
967746.000000
968879.000000
969935.000000
971073.000000
972221.000000
973249.000000
974365.000000
975408.000000
976357.000000
977258.000000
978515.000000
979704.000000
980792.000000
981971.000000
983146.000000
984227.000000
985348.000000
986503.000000
987561.000000
988631.000000
989749.000000
990788.000000
991948.000000
993104.000000
994159.000000
995261.000000
996407.000000
997483.000000
998527.000000
999591.000000
1000655.000000
1001632.000000
1002756.000000
1003901.000000
1004972.000000
1006140.000000
1007251.000000
1008219.000000
1009284.000000
1010247.000000
1011184.000000
1012098.000000
1013106.000000
1014241.000000
1015356.000000
1016275.000000
1017206.000000
1018187.000000
1019231.000000
1020216.000000
1021273.000000
1022313.000000
1023286.000000
1024479.000000
1025572.000000
1026469.000000
1027446.000000
1028443.000000
1029348.000000
1030124.000000
1030990.000000
1032108.000000
1033003.000000
1033950.000000
1035054.000000
1036113.000000
1037341.000000
1038473.000000
1039565.000000
1040719.000000
1041852.000000
1042849.000000
1043973.000000
1045055.000000
1046062.000000
1047015.000000
1048181.000000
1049324.000000
1050362.000000
1051511.000000
1052648.000000
1053751.000000
1054847.000000
1055959.000000
1056987.000000
1058108.000000
1059234.000000
1060305.000000
1061408.000000
1062507.000000
1063552.000000
1064607.000000
1065695.000000
1066740.000000
1067827.000000
1068885.000000
1069843.000000
1070795.000000
1071848.000000
1072919.000000
1073915.000000
1075010.000000
1076105.000000
1077107.000000
1078148.000000
1079184.000000
1080189.000000
1081305.000000
1082400.000000
1083390.000000
1084488.000000
1085578.000000
1086551.000000
1087480.000000
1088560.000000
1089671.000000
1090688.000000
1091671.000000
1092715.000000
1093767.000000
1094756.000000
1095842.000000
1096959.000000
1097992.000000
1098984.000000
1100078.000000
1101153.000000
1102143.000000
1103180.000000
1104218.000000
1105222.000000
1106141.000000
1107188.000000
1108290.000000
1109343.000000
1110309.000000
1111237.000000
1112095.000000
1112942.000000
1114206.000000
1115316.000000
1116285.000000
1117452.000000
1118584.000000
1119632.000000
1120809.000000
1121895.000000
1122790.000000
1123810.000000
1124968.000000
1126054.000000
1127009.000000
1127873.000000
1128632.000000
1129350.000000
1130125.000000
1131100.000000
1131912.000000
1132789.000000
1133693.000000
1134516.000000
1135379.000000
1136279.000000
1137115.000000
1137907.000000
1138734.000000
1139590.000000
1140415.000000
1141219.000000
1142071.000000
1142938.000000
1143760.000000
1144598.000000
1145433.000000
1146273.000000
1147069.000000
1147902.000000
1148755.000000
1149608.000000
1150404.000000
1151227.000000
1152063.000000
1152917.000000
1153740.000000
1154577.000000
1155448.000000
1156311.000000
1157117.000000
1157940.000000
1158809.000000
1159697.000000
1160520.000000
1161346.000000
1162221.000000
1163113.000000
1163932.000000
1164757.000000
1165642.000000
1166528.000000
1167355.000000
1168197.000000
1169067.000000
1169884.000000
1170664.000000
1171455.000000
1172206.000000
1172947.000000
1173717.000000
1174468.000000
1175240.000000
1176043.000000
1176829.000000
1177574.000000
1178358.000000
1179165.000000
1179991.000000
1180776.000000
1181599.000000
1182449.000000
1183315.000000
1184178.000000
1185014.000000
1185878.000000
1186751.000000
1187598.000000
1188423.000000
1189286.000000
1190201.000000
1191071.000000
1191902.000000
1192767.000000
1193663.000000
1194577.000000
1195413.000000
1196260.000000
1197137.000000
1198113.000000
1198982.000000
1199906.000000
1200947.000000
1202128.000000
1203093.000000
