ECG (ms)
22.000000
745.000000
1402.000000
2033.000000
2712.000000
3511.000000
4259.000000
4946.000000
5580.000000
6243.000000
6952.000000
7662.000000
8331.000000
9021.000000
9872.000000
10651.000000
11388.000000
12063.000000
12694.000000
13348.000000
14006.000000
14695.000000
15339.000000
15990.000000
16697.000000
17458.000000
18133.000000
18787.000000
19475.000000
20174.000000
20878.000000
21529.000000
22158.000000
22777.000000
23428.000000
24080.000000
24708.000000
25347.000000
26016.000000
26767.000000
27421.000000
28071.000000
28761.000000
29414.000000
30036.000000
30703.000000
31370.000000
32022.000000
32655.000000
33280.000000
33895.000000
34512.000000
35160.000000
35806.000000
36432.000000
37060.000000
37668.000000
38282.000000
38887.000000
39469.000000
40063.000000
40640.000000
41224.000000
41808.000000
42405.000000
43014.000000
43651.000000
44334.000000
45080.000000
45750.000000
46449.000000
47176.000000
47881.000000
48535.000000
49183.000000
49866.000000
50601.000000
51357.000000
52082.000000
52704.000000
53286.000000
53888.000000
54575.000000
55489.000000
56273.000000
56971.000000
57624.000000
58244.000000
58864.000000
59519.000000
60326.000000
61095.000000
61880.000000
62606.000000
63348.000000
64112.000000
64822.000000
65525.000000
66245.000000
66985.000000
67685.000000
68360.000000
69038.000000
69718.000000
70394.000000
71072.000000
71754.000000
72432.000000
73064.000000
73702.000000
74301.000000
74888.000000
75499.000000
76204.000000
76938.000000
77699.000000
78464.000000
79210.000000
79909.000000
80540.000000
81151.000000
81746.000000
82374.000000
83037.000000
83723.000000
84654.000000
85526.000000
86284.000000
87073.000000
87858.000000
88583.000000
89299.000000
90021.000000
90724.000000
91484.000000
92272.000000
93002.000000
93754.000000
94520.000000
95233.000000
95899.000000
96546.000000
97165.000000
97772.000000
98492.000000
99159.000000
99874.000000
100647.000000
101404.000000
102085.000000
102759.000000
103407.000000
104044.000000
104681.000000
105344.000000
106019.000000
106708.000000
107351.000000
107973.000000
108559.000000
109131.000000
109695.000000
110262.000000
110850.000000
111472.000000
112389.000000
113214.000000
113941.000000
114682.000000
115413.000000
116133.000000
116836.000000
117544.000000
118223.000000
118868.000000
119472.000000
120078.000000
120743.000000
121415.000000
122063.000000
122678.000000
123264.000000
123906.000000
124740.000000
125476.000000
126197.000000
126903.000000
127567.000000
128209.000000
128857.000000
129540.000000
130344.000000
131088.000000
131807.000000
132624.000000
133540.000000
134375.000000
135089.000000
135814.000000
136572.000000
137316.000000
138084.000000
138837.000000
139559.000000
140298.000000
141132.000000
141998.000000
142747.000000
143451.000000
144159.000000
144882.000000
145591.000000
146307.000000
146991.000000
147701.000000
148444.000000
149210.000000
149931.000000
150631.000000
151320.000000
152017.000000
152708.000000
153393.000000
154063.000000
154726.000000
155401.000000
156077.000000
156770.000000
157485.000000
158212.000000
158932.000000
159638.000000
160303.000000
160955.000000
161593.000000
162178.000000
162749.000000
163407.000000
164086.000000
164804.000000
165546.000000
166258.000000
166976.000000
167667.000000
168319.000000
168967.000000
169650.000000
170501.000000
171265.000000
172013.000000
172804.000000
173539.000000
174254.000000
175055.000000
175891.000000
176625.000000
177331.000000
178027.000000
178738.000000
179412.000000
180086.000000
180804.000000
181560.000000
182294.000000
183015.000000
183745.000000
184440.000000
185136.000000
185851.000000
186583.000000
187303.000000
188033.000000
188763.000000
189545.000000
190285.000000
190983.000000
191705.000000
192447.000000
193217.000000
193935.000000
194653.000000
195423.000000
196220.000000
196945.000000
197677.000000
198390.000000
199114.000000
199802.000000
200524.000000
201250.000000
201977.000000
202672.000000
203365.000000
204088.000000
204814.000000
205496.000000
206177.000000
206888.000000
207624.000000
208324.000000
208999.000000
209686.000000
210383.000000
211107.000000
211806.000000
212483.000000
213183.000000
213903.000000
214634.000000
215331.000000
216039.000000
216762.000000
217494.000000
218222.000000
218909.000000
219613.000000
220310.000000
221037.000000
221727.000000
222431.000000
223166.000000
223918.000000
224631.000000
225315.000000
226001.000000
226706.000000
227415.000000
228120.000000
228793.000000
229449.000000
230104.000000
230763.000000
231407.000000
232036.000000
232610.000000
233206.000000
233864.000000
234531.000000
235192.000000
235907.000000
236584.000000
237255.000000
237906.000000
238542.000000
239164.000000
239810.000000
240488.000000
241137.000000
241768.000000
242397.000000
243059.000000
243757.000000
244475.000000
245161.000000
245846.000000
246605.000000
247410.000000
248172.000000
248847.000000
249523.000000
250233.000000
250902.000000
251547.000000
252228.000000
253107.000000
253865.000000
254601.000000
255371.000000
256151.000000
256853.000000
257552.000000
258319.000000
259112.000000
259833.000000
260521.000000
261210.000000
261904.000000
262559.000000
263212.000000
263911.000000
264635.000000
265321.000000
266004.000000
266730.000000
267462.000000
268163.000000
268840.000000
269516.000000
270217.000000
270941.000000
271680.000000
272378.000000
273068.000000
273774.000000
274491.000000
275180.000000
275844.000000
276508.000000
277221.000000
278001.000000
278809.000000
279578.000000
280275.000000
280970.000000
281719.000000
282486.000000
283240.000000
283949.000000
284631.000000
285317.000000
286008.000000
286698.000000
287381.000000
288038.000000
288697.000000
289393.000000
290121.000000
290856.000000
291555.000000
292237.000000
292909.000000
293591.000000
294285.000000
294985.000000
295675.000000
296347.000000
297018.000000
297743.000000
298484.000000
299234.000000
299940.000000
300613.000000
301278.000000
301961.000000
302675.000000
303393.000000
304081.000000
304762.000000
305484.000000
306222.000000
306969.000000
307726.000000
308414.000000
309087.000000
309762.000000
310455.000000
311158.000000
311878.000000
312587.000000
313279.000000
313966.000000
314704.000000
315458.000000
316207.000000
316936.000000
317613.000000
318271.000000
318928.000000
319602.000000
320330.000000
321072.000000
321827.000000
322552.000000
323237.000000
323934.000000
324647.000000
325383.000000
326099.000000
326788.000000
327459.000000
328161.000000
328892.000000
329641.000000
330392.000000
331121.000000
331806.000000
332478.000000
333162.000000
333865.000000
334608.000000
335349.000000
336056.000000
336793.000000
337552.000000
338303.000000
339005.000000
339683.000000
340363.000000
341068.000000
341766.000000
342449.000000
343139.000000
343870.000000
344694.000000
345495.000000
346220.000000
346918.000000
347623.000000
348345.000000
349048.000000
349731.000000
350414.000000
351138.000000
351901.000000
352658.000000
353355.000000
354036.000000
354720.000000
355436.000000
356185.000000
356935.000000
357652.000000
358335.000000
359005.000000
359701.000000
360441.000000
361193.000000
361925.000000
362606.000000
363284.000000
363981.000000
364696.000000
365428.000000
366168.000000
366869.000000
367581.000000
368353.000000
369124.000000
369896.000000
370612.000000
371307.000000
372025.000000
372785.000000
373542.000000
374277.000000
374961.000000
375638.000000
376325.000000
377033.000000
377772.000000
378530.000000
379264.000000
380007.000000
380766.000000
381535.000000
382261.000000
382952.000000
383652.000000
384388.000000
385151.000000
385925.000000
386648.000000
387336.000000
388031.000000
388752.000000
389489.000000
390232.000000
390933.000000
391624.000000
392341.000000
393071.000000
393793.000000
394500.000000
395192.000000
395896.000000
396630.000000
397385.000000
398115.000000
398817.000000
399539.000000
400283.000000
401048.000000
401755.000000
402444.000000
403158.000000
403892.000000
404699.000000
405467.000000
406256.000000
407062.000000
407877.000000
408609.000000
409326.000000
410049.000000
410775.000000
411470.000000
412169.000000
412910.000000
413699.000000
414456.000000
415179.000000
415936.000000
416698.000000
417456.000000
418165.000000
418856.000000
419551.000000
420306.000000
421073.000000
421837.000000
422548.000000
423232.000000
423925.000000
424684.000000
425447.000000
426225.000000
426930.000000
427606.000000
428274.000000
428973.000000
429702.000000
430440.000000
431171.000000
431877.000000
432553.000000
433216.000000
433893.000000
434593.000000
435302.000000
436012.000000
436695.000000
437355.000000
438008.000000
438686.000000
439420.000000
440149.000000
440897.000000
441605.000000
442286.000000
442965.000000
443666.000000
444396.000000
445140.000000
445869.000000
446554.000000
447235.000000
447922.000000
448680.000000
449494.000000
450297.000000
451107.000000
451841.000000
452534.000000
453222.000000
453941.000000
454665.000000
455408.000000
456174.000000
456904.000000
457614.000000
458346.000000
459150.000000
459937.000000
460696.000000
461398.000000
462081.000000
462757.000000
463467.000000
464209.000000
464968.000000
465733.000000
466452.000000
467141.000000
467824.000000
468527.000000
469244.000000
469959.000000
470686.000000
471412.000000
472137.000000
472850.000000
473532.000000
474199.000000
474867.000000
475551.000000
476244.000000
476914.000000
477517.000000
478087.000000
478683.000000
479346.000000
480001.000000
480693.000000
481491.000000
482274.000000
483052.000000
483718.000000
484338.000000
484936.000000
485553.000000
486244.000000
487177.000000
488026.000000
488848.000000
489602.000000
490306.000000
491016.000000
491765.000000
492534.000000
493326.000000
494061.000000
494751.000000
495427.000000
496201.000000
497004.000000
497793.000000
498562.000000
499286.000000
499983.000000
500686.000000
501461.000000
502253.000000
503005.000000
503699.000000
504411.000000
505201.000000
506021.000000
506873.000000
507629.000000
508375.000000
509141.000000
509896.000000
510593.000000
511272.000000
511969.000000
512737.000000
513507.000000
514307.000000
515021.000000
515707.000000
516388.000000
517097.000000
517819.000000
518565.000000
519319.000000
520013.000000
520714.000000
521443.000000
522208.000000
522982.000000
523747.000000
524485.000000
525214.000000
525982.000000
526779.000000
527568.000000
528297.000000
529002.000000
529712.000000
530491.000000
531347.000000
532223.000000
532998.000000
533716.000000
534419.000000
535175.000000
535992.000000
536873.000000
537681.000000
538446.000000
539225.000000
540080.000000
540959.000000
541788.000000
542545.000000
543241.000000
543915.000000
544588.000000
545292.000000
546062.000000
546873.000000
547675.000000
548420.000000
549155.000000
549892.000000
550670.000000
551439.000000
552211.000000
552930.000000
553617.000000
554324.000000
555054.000000
555794.000000
556503.000000
557206.000000
557935.000000
558731.000000
559532.000000
560273.000000
560967.000000
561659.000000
562362.000000
563075.000000
563852.000000
564604.000000
565332.000000
566081.000000
566872.000000
567673.000000
568399.000000
569099.000000
569814.000000
570553.000000
571298.000000
572054.000000
572766.000000
573443.000000
574112.000000
574794.000000
575506.000000
576242.000000
576999.000000
577725.000000
578425.000000
579136.000000
579853.000000
580580.000000
581296.000000
581995.000000
582668.000000
583353.000000
584045.000000
584755.000000
585459.000000
586155.000000
586859.000000
587613.000000
588380.000000
589161.000000
589883.000000
590559.000000
591221.000000
591896.000000
592611.000000
593397.000000
594163.000000
594888.000000
595609.000000
596364.000000
597160.000000
597955.000000
598681.000000
599378.000000
600079.000000
600820.000000
601583.000000
602344.000000
603066.000000
603763.000000
604442.000000
605145.000000
605881.000000
606624.000000
607354.000000
608051.000000
608733.000000
609402.000000
610082.000000
610812.000000
611561.000000
612322.000000
613053.000000
613793.000000
614546.000000
615302.000000
616051.000000
616753.000000
617461.000000
618203.000000
618954.000000
619689.000000
620414.000000
621116.000000
621862.000000
622655.000000
623485.000000
624263.000000
624970.000000
625650.000000
626335.000000
627049.000000
627807.000000
628629.000000
629424.000000
630174.000000
630909.000000
631711.000000
632538.000000
633340.000000
634143.000000
634903.000000
635644.000000
636395.000000
637129.000000
637832.000000
638521.000000
639208.000000
639967.000000
640791.000000
641624.000000
642465.000000
643206.000000
643919.000000
644637.000000
645385.000000
646153.000000
646923.000000
647640.000000
648347.000000
649084.000000
649815.000000
650531.000000
651222.000000
651919.000000
652650.000000
653409.000000
654198.000000
654942.000000
655647.000000
656340.000000
657048.000000
657831.000000
658599.000000
659399.000000
660132.000000
660840.000000
661535.000000
662247.000000
663010.000000
663790.000000
664563.000000
665283.000000
665990.000000
666700.000000
667498.000000
668342.000000
669181.000000
669956.000000
670663.000000
671372.000000
672124.000000
672912.000000
673729.000000
674525.000000
675268.000000
676007.000000
676790.000000
677643.000000
678481.000000
679275.000000
680002.000000
680691.000000
681378.000000
682118.000000
682907.000000
683760.000000
684588.000000
685351.000000
686070.000000
686794.000000
687562.000000
688351.000000
689157.000000
689947.000000
690672.000000
691371.000000
692068.000000
692794.000000
693535.000000
694293.000000
695071.000000
695833.000000
696552.000000
697271.000000
698027.000000
698839.000000
699625.000000
700389.000000
701115.000000
701792.000000
702463.000000
703086.000000
703661.000000
704242.000000
704874.000000
705554.000000
706230.000000
707019.000000
707857.000000
708669.000000
709434.000000
710156.000000
710820.000000
711462.000000
712167.000000
713068.000000
713919.000000
714721.000000
715440.000000
716097.000000
716767.000000
717668.000000
718532.000000
719349.000000
720123.000000
720805.000000
721435.000000
722066.000000
722731.000000
723650.000000
724510.000000
725323.000000
726087.000000
726831.000000
727582.000000
728339.000000
729106.000000
729831.000000
730508.000000
731219.000000
732050.000000
732869.000000
733674.000000
734426.000000
735115.000000
735794.000000
736526.000000
737440.000000
738329.000000
739155.000000
739887.000000
740615.000000
741350.000000
742107.000000
742886.000000
743631.000000
744380.000000
745225.000000
746096.000000
746981.000000
747789.000000
748529.000000
749255.000000
749997.000000
750765.000000
751562.000000
752320.000000
753071.000000
753864.000000
754690.000000
755533.000000
756337.000000
757074.000000
757789.000000
758525.000000
759310.000000
760120.000000
760884.000000
761609.000000
762350.000000
763140.000000
763920.000000
764692.000000
765423.000000
766135.000000
766846.000000
767613.000000
768447.000000
769297.000000
770124.000000
770874.000000
771600.000000
772325.000000
773086.000000
773886.000000
774697.000000
775487.000000
776227.000000
776954.000000
777711.000000
778491.000000
779282.000000
780030.000000
780744.000000
781465.000000
782244.000000
783089.000000
783923.000000
784733.000000
785487.000000
786198.000000
786922.000000
787730.000000
788597.000000
789467.000000
790250.000000
790999.000000
791808.000000
792689.000000
793585.000000
794363.000000
795092.000000
795824.000000
796603.000000
797425.000000
798283.000000
799087.000000
799818.000000
800536.000000
801296.000000
802101.000000
802934.000000
803733.000000
804458.000000
805162.000000
805885.000000
806664.000000
807464.000000
808293.000000
809050.000000
809788.000000
810554.000000
811345.000000
812161.000000
813003.000000
813772.000000
814513.000000
815275.000000
816090.000000
816883.000000
817622.000000
818338.000000
819061.000000
819846.000000
820602.000000
821379.000000
822100.000000
822793.000000
823483.000000
824208.000000
824953.000000
825707.000000
826417.000000
827116.000000
827874.000000
828631.000000
829376.000000
830079.000000
830770.000000
831465.000000
832218.000000
832966.000000
833718.000000
834432.000000
835125.000000
835824.000000
836556.000000
837278.000000
838009.000000
838682.000000
839333.000000
839935.000000
840505.000000
841098.000000
841730.000000
842381.000000
843012.000000
843661.000000
844422.000000
845172.000000
845907.000000
846623.000000
847279.000000
847906.000000
848522.000000
849178.000000
849996.000000
850806.000000
851613.000000
852332.000000
853003.000000
853688.000000
854535.000000
855347.000000
856146.000000
856931.000000
857639.000000
858321.000000
858967.000000
859674.000000
860619.000000
861496.000000
862366.000000
863148.000000
863841.000000
864500.000000
865163.000000
865883.000000
866552.000000
867208.000000
867858.000000
868539.000000
869333.000000
870119.000000
870885.000000
871584.000000
872225.000000
872839.000000
873472.000000
874183.000000
874974.000000
875760.000000
876478.000000
877137.000000
877790.000000
878508.000000
879264.000000
880021.000000
880771.000000
881439.000000
882076.000000
882727.000000
883401.000000
884153.000000
884930.000000
885641.000000
886356.000000
887067.000000
887929.000000
888795.000000
889598.000000
890341.000000
891023.000000
891681.000000
892383.000000
893300.000000
894176.000000
895046.000000
895799.000000
896496.000000
897159.000000
897968.000000
898812.000000
899644.000000
900409.000000
901092.000000
