ECG (ms)
725.000000
1521.000000
2308.000000
3070.000000
3827.000000
4585.000000
5354.000000
6160.000000
7042.000000
7961.000000
8827.000000
9636.000000
10426.000000
11213.000000
11973.000000
12710.000000
13438.000000
14159.000000
14877.000000
15616.000000
16413.000000
17421.000000
18316.000000
19185.000000
19994.000000
20785.000000
21595.000000
22407.000000
23183.000000
23959.000000
24743.000000
25540.000000
26329.000000
27121.000000
27925.000000
28747.000000
29554.000000
30370.000000
31197.000000
32020.000000
32806.000000
33581.000000
34358.000000
35156.000000
35932.000000
36738.000000
37560.000000
38376.000000
39181.000000
40002.000000
40849.000000
41669.000000
42466.000000
43256.000000
44060.000000
44872.000000
45660.000000
46455.000000
47262.000000
48108.000000
48908.000000
49700.000000
50493.000000
51301.000000
52087.000000
52878.000000
53675.000000
54485.000000
55273.000000
56062.000000
56848.000000
57640.000000
58437.000000
59275.000000
60178.000000
61009.000000
61845.000000
62703.000000
63576.000000
64395.000000
65221.000000
66057.000000
66878.000000
67664.000000
68468.000000
69318.000000
70157.000000
70972.000000
71806.000000
72661.000000
73508.000000
74317.000000
75122.000000
75929.000000
76764.000000
77562.000000
78360.000000
79159.000000
79979.000000
80784.000000
81601.000000
82445.000000
83287.000000
84115.000000
84979.000000
85895.000000
86744.000000
87569.000000
88388.000000
89201.000000
89982.000000
90750.000000
91550.000000
92423.000000
93372.000000
94242.000000
95111.000000
96007.000000
96847.000000
97669.000000
98499.000000
99335.000000
100140.000000
100948.000000
101811.000000
102721.000000
103574.000000
104441.000000
105308.000000
106165.000000
106993.000000
107806.000000
108625.000000
109419.000000
110212.000000
111033.000000
111923.000000
112778.000000
113630.000000
114521.000000
115404.000000
116229.000000
117063.000000
117896.000000
118707.000000
119496.000000
120268.000000
121042.000000
121796.000000
122555.000000
123337.000000
124169.000000
124994.000000
125812.000000
126649.000000
127526.000000
128339.000000
129137.000000
129937.000000
130746.000000
131539.000000
132318.000000
133113.000000
133930.000000
134738.000000
135536.000000
136356.000000
137230.000000
138056.000000
138870.000000
139692.000000
140525.000000
141333.000000
142139.000000
142935.000000
143732.000000
144512.000000
145293.000000
146105.000000
146959.000000
147782.000000
148626.000000
149505.000000
150376.000000
151228.000000
152092.000000
152955.000000
153776.000000
154598.000000
155434.000000
156268.000000
157077.000000
157882.000000
158707.000000
159557.000000
160372.000000
161160.000000
161946.000000
162746.000000
163553.000000
164359.000000
165150.000000
165913.000000
166709.000000
167584.000000
168482.000000
169327.000000
170180.000000
171019.000000
171816.000000
172591.000000
173364.000000
174140.000000
174908.000000
175681.000000
176495.000000
177351.000000
178170.000000
178995.000000
179834.000000
180692.000000
181499.000000
182311.000000
183112.000000
183909.000000
184686.000000
185469.000000
186278.000000
187096.000000
187888.000000
188695.000000
189529.000000
190362.000000
191159.000000
191954.000000
192746.000000
193556.000000
194357.000000
195181.000000
196040.000000
196903.000000
197742.000000
198607.000000
199494.000000
200342.000000
201190.000000
202042.000000
202868.000000
203659.000000
204439.000000
205231.000000
206050.000000
206842.000000
207663.000000
208540.000000
209438.000000
210288.000000
211140.000000
211985.000000
212824.000000
213618.000000
214388.000000
215152.000000
215947.000000
216770.000000
217664.000000
218641.000000
219647.000000
220638.000000
221554.000000
222384.000000
223194.000000
224003.000000
224823.000000
225631.000000
226414.000000
227211.000000
228031.000000
228909.000000
229796.000000
230648.000000
231500.000000
232369.000000
233233.000000
234048.000000
234854.000000
235658.000000
236469.000000
237287.000000
238078.000000
238874.000000
239686.000000
240528.000000
241381.000000
242177.000000
242982.000000
243795.000000
244611.000000
245390.000000
246182.000000
246991.000000
247809.000000
248625.000000
249457.000000
250289.000000
251107.000000
251884.000000
252662.000000
253436.000000
254226.000000
254996.000000
255792.000000
256613.000000
257471.000000
258300.000000
259104.000000
259918.000000
260743.000000
261578.000000
262386.000000
263208.000000
264033.000000
264889.000000
265694.000000
266495.000000
267301.000000
268140.000000
268959.000000
269765.000000
270610.000000
271528.000000
272404.000000
273239.000000
274073.000000
274901.000000
275711.000000
276548.000000
277443.000000
278341.000000
279188.000000
280053.000000
280954.000000
281787.000000
282593.000000
283406.000000
284236.000000
285042.000000
285856.000000
286716.000000
287613.000000
288443.000000
289266.000000
290095.000000
290957.000000
291767.000000
292570.000000
293386.000000
294248.000000
295103.000000
295923.000000
296750.000000
297615.000000
298497.000000
299338.000000
300141.000000
300944.000000
301764.000000
302596.000000
303415.000000
304221.000000
305051.000000
305962.000000
306861.000000
307694.000000
308534.000000
309371.000000
310204.000000
311001.000000
311811.000000
312650.000000
313491.000000
314329.000000
315179.000000
316039.000000
316870.000000
317700.000000
318550.000000
319402.000000
320209.000000
321025.000000
321844.000000
322666.000000
323475.000000
324287.000000
325104.000000
325926.000000
326759.000000
327607.000000
328487.000000
329332.000000
330137.000000
330940.000000
331745.000000
332561.000000
333365.000000
334162.000000
334977.000000
335837.000000
336689.000000
337510.000000
338338.000000
339178.000000
340016.000000
340820.000000
341631.000000
342453.000000
343296.000000
344095.000000
344882.000000
345675.000000
346495.000000
347358.000000
348184.000000
349022.000000
349887.000000
350769.000000
351604.000000
352458.000000
353332.000000
354181.000000
354981.000000
355781.000000
356576.000000
357391.000000
358183.000000
358986.000000
359803.000000
360626.000000
361450.000000
362301.000000
363177.000000
364039.000000
364864.000000
365702.000000
366588.000000
367458.000000
368296.000000
369134.000000
370003.000000
370853.000000
371703.000000
372596.000000
373512.000000
374372.000000
375228.000000
376085.000000
376915.000000
377725.000000
378558.000000
379419.000000
380294.000000
381147.000000
382006.000000
382847.000000
383656.000000
384459.000000
385273.000000
386121.000000
386944.000000
387780.000000
388617.000000
389444.000000
390238.000000
391036.000000
391844.000000
392679.000000
393479.000000
394283.000000
395088.000000
395911.000000
396727.000000
397528.000000
398343.000000
399181.000000
400030.000000
400843.000000
401636.000000
402417.000000
403200.000000
404004.000000
404883.000000
405791.000000
406665.000000
407474.000000
408261.000000
409051.000000
409842.000000
410642.000000
411432.000000
412234.000000
413054.000000
413891.000000
414711.000000
415536.000000
416364.000000
417173.000000
417972.000000
418781.000000
419612.000000
420433.000000
421255.000000
422090.000000
422948.000000
423772.000000
424582.000000
425403.000000
426260.000000
427101.000000
427952.000000
428835.000000
429720.000000
430559.000000
431400.000000
432237.000000
433061.000000
433860.000000
434654.000000
435445.000000
436246.000000
437036.000000
437858.000000
438713.000000
439634.000000
440481.000000
441314.000000
442146.000000
442976.000000
443769.000000
444567.000000
445373.000000
446207.000000
446998.000000
447790.000000
448597.000000
449421.000000
450211.000000
450974.000000
451741.000000
452537.000000
453372.000000
454178.000000
454976.000000
455796.000000
456633.000000
457425.000000
458200.000000
458977.000000
459756.000000
460522.000000
461279.000000
462037.000000
462805.000000
463579.000000
464302.000000
465014.000000
465726.000000
466463.000000
467210.000000
467963.000000
468842.000000
469731.000000
470558.000000
471387.000000
472225.000000
473056.000000
473826.000000
474594.000000
475370.000000
476174.000000
476941.000000
477713.000000
478506.000000
479374.000000
480181.000000
480984.000000
481818.000000
482689.000000
483490.000000
484306.000000
485117.000000
485965.000000
486749.000000
487521.000000
488326.000000
489274.000000
490186.000000
491101.000000
492020.000000
492900.000000
493732.000000
494570.000000
495474.000000
496378.000000
497203.000000
498011.000000
498862.000000
499730.000000
500559.000000
501494.000000
502479.000000
503400.000000
504266.000000
505086.000000
505902.000000
506695.000000
507455.000000
508269.000000
509196.000000
510105.000000
510925.000000
511725.000000
512534.000000
513380.000000
514192.000000
514988.000000
515860.000000
516853.000000
517729.000000
518604.000000
519552.000000
520484.000000
521329.000000
522167.000000
523065.000000
523977.000000
524788.000000
525617.000000
526494.000000
527373.000000
528186.000000
528998.000000
529853.000000
530764.000000
531581.000000
532408.000000
533276.000000
534160.000000
534969.000000
535778.000000
536626.000000
537482.000000
538288.000000
539085.000000
539948.000000
540925.000000
541802.000000
542652.000000
543513.000000
544371.000000
545152.000000
545903.000000
546663.000000
547448.000000
548226.000000
549042.000000
549942.000000
550876.000000
551738.000000
552582.000000
553395.000000
554176.000000
554930.000000
555677.000000
556439.000000
557240.000000
558003.000000
558791.000000
559605.000000
560456.000000
561236.000000
562014.000000
562788.000000
563593.000000
564370.000000
565168.000000
566044.000000
566940.000000
567815.000000
568727.000000
569680.000000
570547.000000
571372.000000
572174.000000
572997.000000
573852.000000
574702.000000
575536.000000
576408.000000
577378.000000
578350.000000
579244.000000
580112.000000
580979.000000
581804.000000
582615.000000
583439.000000
584283.000000
585117.000000
585943.000000
586836.000000
587775.000000
588656.000000
589529.000000
590398.000000
591264.000000
592070.000000
592864.000000
593693.000000
594586.000000
595432.000000
596293.000000
597213.000000
598186.000000
599089.000000
599971.000000
600857.000000
601744.000000
602573.000000
603392.000000
604245.000000
605154.000000
606015.000000
606866.000000
607742.000000
608599.000000
609391.000000
610177.000000
611004.000000
611942.000000
612824.000000
613685.000000
614581.000000
615471.000000
616295.000000
617113.000000
617970.000000
618883.000000
619755.000000
620620.000000
621526.000000
622458.000000
623320.000000
624174.000000
625023.000000
625893.000000
626740.000000
627595.000000
628465.000000
629308.000000
630122.000000
630933.000000
631752.000000
632574.000000
633384.000000
634255.000000
635193.000000
636167.000000
637067.000000
637927.000000
638781.000000
639604.000000
640420.000000
641242.000000
642110.000000
642979.000000
643825.000000
644681.000000
645542.000000
646403.000000
647224.000000
648031.000000
648831.000000
649640.000000
650426.000000
651198.000000
651933.000000
652634.000000
653380.000000
654120.000000
654910.000000
655935.000000
656825.000000
657635.000000
658425.000000
659196.000000
659952.000000
660706.000000
661453.000000
662192.000000
662957.000000
663707.000000
664480.000000
665340.000000
666270.000000
667139.000000
667999.000000
668868.000000
669706.000000
670478.000000
671242.000000
672013.000000
672840.000000
673656.000000
674511.000000
675447.000000
676413.000000
677320.000000
678188.000000
679064.000000
679940.000000
680761.000000
681566.000000
682394.000000
683207.000000
684037.000000
685044.000000
686007.000000
686857.000000
687699.000000
688569.000000
689475.000000
690321.000000
691155.000000
691988.000000
692817.000000
693620.000000
694391.000000
695177.000000
696042.000000
696845.000000
697650.000000
698478.000000
699353.000000
700192.000000
701005.000000
701838.000000
702702.000000
703512.000000
704318.000000
705157.000000
706041.000000
706942.000000
707772.000000
708592.000000
709420.000000
710264.000000
711058.000000
711863.000000
712688.000000
713602.000000
714447.000000
715291.000000
716190.000000
717098.000000
717957.000000
718849.000000
719766.000000
720677.000000
721521.000000
722361.000000
723324.000000
724281.000000
725159.000000
726029.000000
726953.000000
727870.000000
728738.000000
729604.000000
730517.000000
731403.000000
732238.000000
733073.000000
733944.000000
734867.000000
735746.000000
736621.000000
737511.000000
738420.000000
739266.000000
740091.000000
740936.000000
741809.000000
742638.000000
743472.000000
744337.000000
745248.000000
746088.000000
746923.000000
747753.000000
748594.000000
749410.000000
750215.000000
751022.000000
751832.000000
752622.000000
753448.000000
754385.000000
755421.000000
756357.000000
757293.000000
758274.000000
759218.000000
760083.000000
760934.000000
761770.000000
762580.000000
763392.000000
764214.000000
765066.000000
765884.000000
766727.000000
767599.000000
768494.000000
769332.000000
770181.000000
771033.000000
771915.000000
772778.000000
773614.000000
774445.000000
775281.000000
776155.000000
776988.000000
777806.000000
778635.000000
779485.000000
780363.000000
781231.000000
782055.000000
782890.000000
783748.000000
784627.000000
785506.000000
786324.000000
787138.000000
787987.000000
788871.000000
789721.000000
790566.000000
791460.000000
792385.000000
793253.000000
794095.000000
794936.000000
795806.000000
796649.000000
797491.000000
798358.000000
799231.000000
800070.000000
800890.000000
801712.000000
802540.000000
803336.000000
804132.000000
804944.000000
805796.000000
806639.000000
807463.000000
808305.000000
809140.000000
809938.000000
810716.000000
811491.000000
812259.000000
812968.000000
813661.000000
814370.000000
815177.000000
816297.000000
817254.000000
818198.000000
819098.000000
819977.000000
820827.000000
821631.000000
822418.000000
823186.000000
823936.000000
824676.000000
825384.000000
826109.000000
826865.000000
827666.000000
828458.000000
829244.000000
830042.000000
830858.000000
831681.000000
832488.000000
833278.000000
834065.000000
834858.000000
835680.000000
836503.000000
837301.000000
838099.000000
838909.000000
839725.000000
840564.000000
841374.000000
842190.000000
843055.000000
844003.000000
844899.000000
845785.000000
846693.000000
847591.000000
848464.000000
849267.000000
850068.000000
850899.000000
851815.000000
852658.000000
853456.000000
854238.000000
855016.000000
855812.000000
856598.000000
857417.000000
858337.000000
859316.000000
860198.000000
861054.000000
861914.000000
862733.000000
863545.000000
864359.000000
865166.000000
865936.000000
866694.000000
867453.000000
868243.000000
869037.000000
869846.000000
870697.000000
871563.000000
872379.000000
873208.000000
874050.000000
874864.000000
875649.000000
876433.000000
877217.000000
878002.000000
878768.000000
879546.000000
880353.000000
881175.000000
881954.000000
882723.000000
883502.000000
884276.000000
885041.000000
885794.000000
886582.000000
887372.000000
888141.000000
888915.000000
889690.000000
890492.000000
891276.000000
892050.000000
892898.000000
893754.000000
894574.000000
895364.000000
896160.000000
896964.000000
897723.000000
898471.000000
899259.000000
900148.000000
901048.000000
901890.000000
902761.000000
903663.000000
904498.000000
905307.000000
906122.000000
906955.000000
907762.000000
908562.000000
909382.000000
910222.000000
911036.000000
911815.000000
912605.000000
913406.000000
914189.000000
914973.000000
