ECG (ms)
868.000000
1836.000000
2647.000000
3443.000000
4354.000000
5209.000000
6066.000000
6857.000000
7715.000000
8606.000000
9437.000000
10251.000000
11127.000000
11996.000000
12816.000000
13704.000000
14586.000000
15433.000000
16219.000000
17089.000000
17986.000000
18791.000000
19605.000000
20487.000000
21372.000000
22168.000000
23022.000000
23879.000000
24739.000000
25529.000000
26351.000000
27158.000000
27963.000000
28734.000000
29618.000000
30495.000000
31297.000000
32135.000000
33032.000000
33868.000000
34654.000000
35526.000000
36401.000000
37260.000000
38054.000000
38931.000000
39823.000000
40644.000000
41457.000000
42291.000000
43154.000000
44024.000000
44795.000000
45573.000000
46578.000000
47485.000000
48297.000000
49148.000000
50076.000000
50982.000000
51797.000000
52595.000000
53497.000000
54440.000000
55381.000000
56228.000000
57139.000000
58030.000000
58837.000000
59607.000000
60413.000000
61255.000000
62056.000000
62844.000000
63785.000000
64670.000000
65535.000000
66321.000000
67156.000000
68009.000000
68848.000000
69636.000000
70456.000000
71294.000000
72210.000000
73070.000000
73919.000000
74802.000000
75667.000000
76466.000000
77252.000000
78146.000000
79096.000000
79916.000000
80735.000000
81636.000000
82553.000000
83432.000000
84225.000000
85074.000000
85945.000000
86846.000000
87665.000000
88509.000000
89426.000000
90284.000000
91095.000000
92010.000000
92952.000000
93769.000000
94682.000000
95595.000000
96446.000000
97310.000000
98223.000000
99115.000000
99935.000000
100879.000000
101728.000000
102541.000000
103440.000000
104322.000000
105135.000000
105950.000000
106824.000000
107672.000000
108483.000000
109377.000000
110260.000000
111090.000000
111929.000000
112864.000000
113771.000000
114593.000000
115445.000000
116314.000000
117120.000000
117919.000000
118880.000000
119822.000000
120629.000000
121565.000000
122485.000000
123360.000000
124176.000000
125126.000000
126035.000000
126831.000000
127683.000000
128582.000000
129427.000000
130256.000000
131195.000000
132086.000000
132897.000000
133762.000000
134658.000000
135499.000000
136343.000000
137219.000000
138065.000000
138900.000000
139802.000000
140717.000000
141551.000000
142364.000000
143218.000000
144098.000000
144907.000000
145702.000000
146550.000000
147545.000000
148491.000000
149419.000000
150233.000000
151071.000000
151978.000000
152889.000000
153696.000000
154558.000000
155422.000000
156254.000000
157072.000000
158039.000000
158937.000000
159774.000000
160668.000000
161562.000000
162417.000000
163241.000000
164148.000000
165053.000000
165881.000000
166751.000000
167653.000000
168470.000000
169366.000000
170256.000000
171108.000000
172007.000000
172914.000000
173751.000000
174575.000000
175488.000000
176368.000000
177160.000000
178064.000000
179015.000000
179862.000000
180716.000000
181636.000000
182532.000000
183324.000000
184157.000000
185017.000000
185804.000000
186603.000000
187505.000000
188503.000000
189338.000000
190287.000000
191200.000000
192014.000000
192904.000000
193792.000000
194634.000000
195509.000000
196470.000000
197383.000000
198215.000000
199076.000000
200009.000000
200927.000000
201733.000000
202620.000000
203494.000000
204317.000000
205225.000000
206205.000000
207059.000000
207958.000000
208915.000000
209785.000000
210549.000000
211356.000000
212225.000000
213114.000000
213923.000000
214855.000000
215829.000000
216638.000000
217574.000000
218508.000000
219362.000000
220161.000000
221098.000000
222007.000000
222814.000000
223673.000000
224542.000000
225344.000000
226217.000000
227145.000000
228031.000000
228854.000000
229745.000000
230600.000000
231379.000000
232256.000000
233182.000000
234005.000000
234842.000000
235783.000000
236681.000000
237495.000000
238394.000000
239282.000000
240100.000000
240951.000000
241841.000000
242642.000000
243506.000000
244455.000000
245363.000000
246197.000000
247125.000000
248015.000000
248809.000000
249692.000000
250600.000000
251453.000000
252365.000000
253309.000000
254152.000000
255011.000000
255909.000000
256799.000000
257600.000000
258453.000000
259398.000000
260224.000000
261114.000000
262081.000000
262914.000000
263790.000000
264647.000000
265450.000000
266299.000000
267204.000000
268030.000000
268931.000000
269870.000000
270732.000000
271567.000000
272476.000000
273387.000000
274202.000000
275035.000000
275903.000000
276764.000000
277575.000000
278481.000000
279382.000000
280234.000000
281045.000000
281930.000000
282827.000000
283625.000000
284481.000000
285351.000000
286222.000000
287056.000000
288035.000000
288943.000000
289739.000000
290613.000000
291488.000000
292351.000000
293283.000000
294190.000000
295021.000000
295898.000000
296776.000000
297629.000000
298467.000000
299363.000000
300287.000000
301105.000000
301975.000000
302851.000000
303702.000000
304574.000000
305531.000000
306417.000000
307230.000000
308141.000000
309016.000000
309820.000000
310615.000000
311502.000000
312432.000000
313287.000000
314127.000000
315044.000000
316063.000000
316967.000000
317807.000000
318706.000000
319584.000000
320382.000000
321277.000000
322131.000000
322934.000000
323881.000000
324774.000000
325609.000000
326526.000000
327398.000000
328207.000000
329028.000000
329873.000000
330752.000000
331544.000000
332285.000000
333061.000000
334088.000000
335287.000000
336375.000000
337305.000000
338147.000000
339006.000000
339884.000000
340784.000000
342039.000000
343099.000000
344151.000000
345126.000000
346174.000000
347220.000000
348256.000000
349228.000000
350202.000000
351180.000000
352133.000000
353028.000000
354017.000000
355000.000000
355904.000000
357059.000000
358091.000000
359083.000000
360155.000000
361175.000000
362072.000000
362997.000000
363803.000000
364566.000000
365447.000000
366359.000000
367170.000000
368067.000000
368983.000000
369903.000000
370747.000000
371651.000000
372587.000000
373399.000000
374313.000000
375249.000000
376094.000000
376971.000000
377824.000000
378645.000000
379453.000000
380322.000000
381176.000000
382004.000000
382935.000000
383793.000000
384577.000000
385462.000000
386344.000000
387254.000000
388057.000000
388952.000000
389825.000000
390653.000000
391577.000000
392500.000000
393452.000000
394337.000000
395293.000000
396238.000000
397172.000000
398027.000000
398973.000000
399934.000000
400943.000000
401882.000000
402832.000000
403779.000000
404697.000000
405546.000000
406345.000000
407672.000000
408655.000000
409660.000000
410797.000000
411803.000000
412908.000000
414015.000000
414981.000000
416046.000000
417074.000000
417969.000000
419014.000000
420046.000000
420955.000000
421993.000000
423004.000000
423979.000000
425113.000000
426111.000000
427072.000000
428082.000000
428984.000000
429965.000000
430999.000000
431906.000000
432910.000000
433872.000000
434814.000000
435821.000000
436733.000000
437701.000000
438679.000000
439598.000000
440584.000000
441496.000000
442382.000000
443308.000000
444195.000000
445093.000000
446037.000000
447013.000000
447874.000000
448798.000000
449768.000000
450613.000000
451529.000000
452454.000000
453342.000000
454274.000000
455254.000000
456120.000000
457051.000000
457920.000000
458820.000000
459728.000000
460585.000000
461514.000000
462446.000000
463315.000000
464256.000000
465225.000000
466154.000000
467021.000000
467980.000000
468950.000000
469855.000000
470789.000000
471801.000000
472721.000000
473683.000000
474643.000000
475524.000000
476477.000000
477449.000000
478457.000000
479408.000000
480410.000000
481474.000000
482522.000000
483479.000000
484352.000000
485247.000000
486193.000000
487060.000000
488069.000000
489033.000000
489924.000000
490818.000000
491747.000000
492552.000000
493427.000000
494374.000000
495218.000000
496086.000000
497103.000000
497995.000000
498826.000000
499777.000000
500708.000000
501517.000000
502393.000000
503296.000000
504127.000000
505075.000000
506023.000000
506871.000000
507742.000000
508677.000000
509498.000000
510390.000000
511288.000000
512120.000000
513006.000000
513906.000000
514724.000000
515578.000000
516502.000000
517356.000000
518209.000000
519154.000000
520085.000000
521002.000000
521862.000000
522744.000000
523637.000000
524487.000000
525350.000000
526295.000000
527227.000000
528168.000000
529076.000000
529969.000000
530806.000000
531785.000000
532665.000000
533495.000000
534587.000000
535499.000000
536338.000000
537343.000000
538242.000000
539096.000000
540080.000000
540983.000000
541815.000000
542702.000000
543571.000000
544363.000000
545190.000000
545965.000000
546699.000000
547520.000000
548306.000000
549195.000000
550110.000000
550933.000000
551826.000000
552787.000000
553634.000000
554509.000000
555402.000000
556270.000000
557062.000000
557923.000000
558808.000000
559624.000000
560552.000000
561542.000000
562422.000000
563279.000000
564220.000000
565188.000000
566192.000000
567088.000000
567980.000000
568901.000000
569875.000000
570705.000000
571751.000000
572685.000000
573535.000000
574514.000000
575772.000000
576762.000000
577777.000000
578642.000000
579460.000000
580349.000000
581336.000000
582239.000000
583446.000000
584521.000000
585584.000000
586619.000000
587427.000000
588246.000000
589491.000000
590388.000000
591369.000000
592365.000000
593290.000000
594316.000000
595416.000000
596484.000000
597520.000000
598634.000000
599673.000000
600543.000000
601341.000000
602470.000000
603293.000000
604230.000000
605227.000000
606171.000000
607324.000000
608304.000000
609428.000000
610579.000000
611572.000000
612605.000000
613549.000000
614342.000000
615188.000000
616375.000000
617294.000000
618319.000000
619382.000000
620319.000000
621292.000000
622211.000000
623026.000000
623940.000000
624929.000000
625788.000000
626700.000000
627644.000000
628509.000000
629483.000000
630464.000000
631429.000000
632353.000000
633367.000000
634409.000000
635523.000000
636572.000000
637615.000000
638665.000000
639638.000000
640541.000000
641506.000000
642491.000000
643416.000000
644364.000000
645468.000000
646509.000000
647423.000000
648476.000000
649481.000000
650418.000000
651453.000000
652439.000000
653402.000000
654422.000000
655378.000000
656303.000000
657321.000000
658255.000000
659167.000000
660168.000000
661151.000000
662057.000000
662994.000000
663916.000000
664782.000000
665882.000000
666967.000000
667948.000000
669055.000000
670120.000000
671096.000000
672180.000000
673260.000000
674220.000000
675199.000000
676272.000000
677175.000000
678342.000000
679317.000000
680238.000000
681398.000000
682449.000000
683368.000000
684301.000000
685275.000000
686156.000000
687300.000000
688349.000000
689393.000000
690291.000000
691153.000000
692089.000000
692926.000000
693780.000000
694799.000000
695829.000000
696930.000000
697990.000000
698852.000000
699744.000000
700626.000000
701428.000000
702313.000000
703255.000000
704128.000000
705090.000000
706079.000000
707013.000000
707894.000000
708850.000000
709825.000000
710679.000000
711479.000000
712349.000000
713413.000000
714289.000000
715278.000000
716263.000000
717138.000000
718153.000000
719134.000000
719963.000000
720850.000000
721730.000000
722542.000000
723357.000000
724378.000000
725288.000000
726108.000000
726878.000000
727671.000000
728777.000000
729718.000000
730627.000000
731467.000000
732363.000000
733332.000000
734274.000000
735103.000000
735966.000000
736860.000000
737699.000000
738561.000000
739473.000000
740333.000000
741315.000000
742292.000000
743251.000000
744199.000000
745144.000000
746010.000000
746861.000000
747917.000000
748834.000000
749665.000000
750556.000000
751458.000000
752286.000000
753225.000000
754171.000000
755002.000000
755888.000000
756794.000000
757635.000000
758485.000000
759417.000000
760363.000000
761296.000000
762206.000000
763140.000000
763997.000000
764789.000000
765648.000000
766627.000000
767452.000000
768385.000000
769409.000000
770366.000000
771284.000000
772257.000000
773242.000000
774160.000000
775052.000000
775977.000000
776937.000000
777842.000000
778829.000000
779821.000000
780838.000000
781731.000000
782708.000000
783508.000000
784333.000000
785256.000000
786187.000000
787001.000000
788297.000000
789396.000000
790385.000000
791483.000000
792473.000000
793477.000000
794650.000000
795700.000000
796737.000000
797795.000000
798789.000000
799736.000000
800687.000000
801624.000000
802484.000000
803477.000000
804469.000000
805383.000000
806510.000000
807606.000000
808617.000000
809674.000000
810657.000000
811472.000000
812329.000000
813240.000000
814151.000000
814969.000000
815892.000000
816855.000000
817709.000000
818565.000000
819526.000000
820453.000000
821289.000000
822199.000000
823134.000000
824036.000000
824874.000000
825799.000000
826741.000000
827604.000000
828576.000000
829437.000000
830345.000000
831284.000000
832149.000000
833094.000000
834042.000000
834972.000000
835831.000000
836755.000000
837635.000000
838464.000000
839403.000000
840389.000000
841223.000000
842161.000000
843073.000000
843908.000000
844778.000000
845670.000000
846522.000000
847372.000000
848267.000000
849090.000000
849956.000000
850827.000000
851684.000000
852504.000000
853381.000000
854257.000000
855083.000000
855920.000000
856804.000000
857810.000000
858642.000000
859501.000000
860350.000000
861182.000000
861974.000000
862901.000000
863758.000000
864590.000000
865520.000000
866432.000000
867256.000000
868129.000000
869033.000000
870008.000000
870908.000000
871843.000000
872835.000000
873786.000000
874655.000000
875653.000000
876622.000000
877586.000000
878464.000000
879414.000000
880400.000000
881329.000000
882216.000000
883152.000000
884063.000000
884998.000000
885872.000000
886862.000000
887857.000000
888773.000000
889671.000000
890464.000000
891314.000000
892290.000000
893143.000000
894053.000000
895444.000000
896476.000000
897628.000000
898776.000000
899785.000000
900856.000000
901906.000000
902819.000000
903852.000000
904851.000000
905728.000000
906769.000000
907869.000000
908865.000000
910007.000000
911052.000000
912081.000000
913146.000000
914090.000000
915053.000000
916096.000000
917082.000000
918055.000000
919111.000000
920052.000000
921068.000000
922124.000000
923064.000000
924040.000000
925007.000000
925896.000000
926931.000000
927967.000000
928921.000000
929963.000000
930987.000000
932021.000000
932906.000000
933812.000000
934698.000000
935579.000000
936550.000000
937654.000000
938715.000000
939844.000000
941035.000000
942093.000000
943201.000000
944245.000000
945177.000000
946271.000000
947351.000000
948278.000000
949304.000000
950301.000000
951312.000000
952329.000000
953286.000000
954294.000000
955350.000000
956305.000000
957286.000000
958184.000000
959109.000000
960001.000000
960974.000000
961900.000000
962747.000000
963638.000000
964614.000000
965509.000000
966354.000000
967316.000000
968216.000000
969054.000000
970048.000000
970986.000000
971855.000000
972767.000000
973640.000000
974512.000000
975446.000000
976291.000000
977102.000000
977983.000000
978909.000000
979763.000000
980700.000000
981617.000000
982432.000000
983275.000000
984167.000000
984976.000000
985830.000000
986736.000000
987564.000000
988398.000000
989442.000000
990380.000000
991236.000000
992137.000000
993074.000000
994047.000000
994896.000000
995812.000000
996690.000000
997487.000000
998322.000000
999120.000000
999912.000000
1000818.000000
1001727.000000
1002526.000000
1003378.000000
1004293.000000
1005109.000000
1005971.000000
1006995.000000
1007890.000000
1008690.000000
1009549.000000
1010427.000000
1011257.000000
1012181.000000
1013107.000000
1014084.000000
1014925.000000
1015795.000000
1016640.000000
1017414.000000
1018243.000000
1019167.000000
1020076.000000
1020943.000000
1021989.000000
1023104.000000
1024206.000000
1025235.000000
1026101.000000
1026966.000000
1027905.000000
1029180.000000
1030285.000000
1031469.000000
1032470.000000
1033352.000000
1034188.000000
1035019.000000
1036358.000000
1037468.000000
1038406.000000
1039483.000000
1040610.000000
1041587.000000
1042681.000000
1043676.000000
1044626.000000
1045677.000000
1046754.000000
1047685.000000
1048638.000000
1049502.000000
1050305.000000
1051210.000000
1052180.000000
1053021.000000
1054075.000000
1055047.000000
1055909.000000
1056881.000000
1057865.000000
1058808.000000
1059728.000000
1060747.000000
1061712.000000
1062691.000000
1063603.000000
1064596.000000
1065555.000000
1066447.000000
1067282.000000
1068311.000000
1069269.000000
1070139.000000
1071407.000000
1072515.000000
1073554.000000
1074678.000000
1075674.000000
1076653.000000
1077619.000000
1078506.000000
1079509.000000
1080521.000000
1081455.000000
1082501.000000
1083472.000000
1084498.000000
1085599.000000
1086624.000000
1087551.000000
1088535.000000
1089544.000000
1090461.000000
1091411.000000
1092392.000000
1093227.000000
1094049.000000
1094914.000000
1095776.000000
1096592.000000
1097551.000000
1098446.000000
1099305.000000
1100279.000000
1101239.000000
1102217.000000
1103129.000000
1103974.000000
1104885.000000
1105825.000000
1106682.000000
1107544.000000
1108576.000000
1109488.000000
1110363.000000
1111337.000000
1112253.000000
1113070.000000
1113955.000000
1114896.000000
1115734.000000
1116632.000000
1117586.000000
1118428.000000
1119335.000000
1120351.000000
1121217.000000
1122109.000000
1123092.000000
1124107.000000
1125096.000000
1125994.000000
1127044.000000
1128069.000000
1129006.000000
1129869.000000
1131062.000000
1132009.000000
1132919.000000
1133999.000000
1134977.000000
1135900.000000
1137014.000000
1137998.000000
1138891.000000
1139880.000000
1140893.000000
1141779.000000
1142842.000000
1143856.000000
1144731.000000
1145711.000000
1146648.000000
1147519.000000
1148448.000000
1149414.000000
1150275.000000
1151230.000000
1152187.000000
1153038.000000
1153999.000000
1154992.000000
1155889.000000
1156730.000000
1157690.000000
1158651.000000
1159495.000000
1160438.000000
1161368.000000
1162212.000000
1163105.000000
1164044.000000
1164901.000000
1165829.000000
1167090.000000
1168114.000000
1168991.000000
1169873.000000
1171111.000000
1172060.000000
1173149.000000
1174196.000000
1175160.000000
1176281.000000
1177369.000000
1178320.000000
1179198.000000
1180033.000000
1180846.000000
1181841.000000
1183155.000000
1184177.000000
1185322.000000
1186395.000000
1187347.000000
1188453.000000
1189582.000000
1190582.000000
1191677.000000
1192741.000000
1193681.000000
1194653.000000
