ECG (ms)
197.000000
1208.000000
2222.000000
3264.000000
4243.000000
5217.000000
6216.000000
7215.000000
8268.000000
9257.000000
10273.000000
11299.000000
12221.000000
13202.000000
14238.000000
15148.000000
15941.000000
16705.000000
17575.000000
18800.000000
19953.000000
21090.000000
22141.000000
23226.000000
24332.000000
25347.000000
26356.000000
27408.000000
28487.000000
29487.000000
30586.000000
31736.000000
32787.000000
33772.000000
34724.000000
35647.000000
36525.000000
37646.000000
38892.000000
40008.000000
41026.000000
42071.000000
43059.000000
43973.000000
44938.000000
45970.000000
47013.000000
47946.000000
48754.000000
49602.000000
50521.000000
51462.000000
52271.000000
53284.000000
54390.000000
55524.000000
56636.000000
57654.000000
58697.000000
59795.000000
60865.000000
61962.000000
63081.000000
64135.000000
65208.000000
66288.000000
67288.000000
68341.000000
69438.000000
70486.000000
71560.000000
72590.000000
73537.000000
74554.000000
75553.000000
76642.000000
77775.000000
78820.000000
79908.000000
80976.000000
82043.000000
83198.000000
84206.000000
85222.000000
86192.000000
87074.000000
88122.000000
89220.000000
90190.000000
91221.000000
92276.000000
93221.000000
94086.000000
94989.000000
96060.000000
97164.000000
98337.000000
99503.000000
100577.000000
101686.000000
102803.000000
103917.000000
104954.000000
105947.000000
106804.000000
107701.000000
108764.000000
109839.000000
110854.000000
111848.000000
112827.000000
113751.000000
114677.000000
115566.000000
116523.000000
117457.000000
118673.000000
119843.000000
120896.000000
121906.000000
122856.000000
123937.000000
125107.000000
126212.000000
127266.000000
128149.000000
129028.000000
129918.000000
131090.000000
132426.000000
133722.000000
134947.000000
137292.000000
138511.000000
139579.000000
140709.000000
141790.000000
142879.000000
144090.000000
145147.000000
146180.000000
147343.000000
148373.000000
149213.000000
150010.000000
150893.000000
152041.000000
152921.000000
154193.000000
155404.000000
156541.000000
157712.000000
158775.000000
159824.000000
160878.000000
161869.000000
162929.000000
163990.000000
164881.000000
165790.000000
166601.000000
167531.000000
168660.000000
169798.000000
170860.000000
171873.000000
173026.000000
174079.000000
175140.000000
176214.000000
177177.000000
178350.000000
179499.000000
180626.000000
181749.000000
182720.000000
183674.000000
184670.000000
185734.000000
186846.000000
187966.000000
189029.000000
190041.000000
190955.000000
191820.000000
192778.000000
194110.000000
195250.000000
196391.000000
197552.000000
198585.000000
199739.000000
200935.000000
201976.000000
203110.000000
204174.000000
205139.000000
206172.000000
207349.000000
208428.000000
209604.000000
210717.000000
211721.000000
212713.000000
213684.000000
214558.000000
215564.000000
216697.000000
217655.000000
218601.000000
219551.000000
220454.000000
221465.000000
222555.000000
223561.000000
224544.000000
225574.000000
226538.000000
227434.000000
228354.000000
229429.000000
230540.000000
231519.000000
232470.000000
233507.000000
234497.000000
235452.000000
236508.000000
237595.000000
238609.000000
239447.000000
240207.000000
240957.000000
242113.000000
243276.000000
244516.000000
245711.000000
246843.000000
248044.000000
249220.000000
250363.000000
251565.000000
252639.000000
253738.000000
254895.000000
255997.000000
257123.000000
258371.000000
259484.000000
260531.000000
261594.000000
262555.000000
263442.000000
264375.000000
265412.000000
266355.000000
267426.000000
268454.000000
269382.000000
270354.000000
271346.000000
272300.000000
273326.000000
274305.000000
275320.000000
276451.000000
277488.000000
278458.000000
279522.000000
280640.000000
281703.000000
282779.000000
283802.000000
284793.000000
285779.000000
286607.000000
287446.000000
288339.000000
289246.000000
290123.000000
291180.000000
292265.000000
293294.000000
294380.000000
295482.000000
296485.000000
297507.000000
298517.000000
299428.000000
300402.000000
301517.000000
302549.000000
303543.000000
304646.000000
305722.000000
306669.000000
307640.000000
308584.000000
309478.000000
310441.000000
311456.000000
312347.000000
313284.000000
314273.000000
315256.000000
316141.000000
317054.000000
318055.000000
318970.000000
319877.000000
320830.000000
321720.000000
322669.000000
323800.000000
324835.000000
325749.000000
326662.000000
327600.000000
328514.000000
329654.000000
330799.000000
331838.000000
332912.000000
333977.000000
334965.000000
335971.000000
337115.000000
338156.000000
339212.000000
340307.000000
341311.000000
342289.000000
343402.000000
344481.000000
345519.000000
346493.000000
347403.000000
348542.000000
349681.000000
350778.000000
351951.000000
353092.000000
354183.000000
355352.000000
356476.000000
357546.000000
358713.000000
359861.000000
361011.000000
362157.000000
363220.000000
364366.000000
365492.000000
366507.000000
367675.000000
368782.000000
369875.000000
371091.000000
372178.000000
373228.000000
374169.000000
375133.000000
376273.000000
377416.000000
378478.000000
379504.000000
380363.000000
381138.000000
381894.000000
382765.000000
384084.000000
385314.000000
386558.000000
387764.000000
388871.000000
389907.000000
390767.000000
391693.000000
392709.000000
393724.000000
394740.000000
395851.000000
396952.000000
397946.000000
398994.000000
400023.000000
400906.000000
401883.000000
402886.000000
403898.000000
404975.000000
405888.000000
406714.000000
407572.000000
408512.000000
409430.000000
410425.000000
411511.000000
412625.000000
413775.000000
414803.000000
415823.000000
416950.000000
417978.000000
418931.000000
420149.000000
421255.000000
422441.000000
423622.000000
424620.000000
425603.000000
426662.000000
427647.000000
428822.000000
429841.000000
430981.000000
432126.000000
433141.000000
434234.000000
435364.000000
436360.000000
437507.000000
438621.000000
439629.000000
440643.000000
441631.000000
442513.000000
443576.000000
444717.000000
445745.000000
446815.000000
447879.000000
448840.000000
449839.000000
450889.000000
451953.000000
453005.000000
453911.000000
454808.000000
455748.000000
456670.000000
457782.000000
458851.000000
459862.000000
460908.000000
461837.000000
462766.000000
463704.000000
464629.000000
465568.000000
466593.000000
467566.000000
468545.000000
469605.000000
470522.000000
471515.000000
472525.000000
473475.000000
474472.000000
475348.000000
476179.000000
477101.000000
478133.000000
479116.000000
480151.000000
481092.000000
481956.000000
482891.000000
483923.000000
484850.000000
485861.000000
486912.000000
487955.000000
489073.000000
490093.000000
491132.000000
492202.000000
493138.000000
494112.000000
495220.000000
496244.000000
497272.000000
498279.000000
499135.000000
499922.000000
500695.000000
501554.000000
502752.000000
503936.000000
505131.000000
506283.000000
507226.000000
508080.000000
508878.000000
509749.000000
510967.000000
512087.000000
513175.000000
514140.000000
515128.000000
516266.000000
517381.000000
518478.000000
519706.000000
520930.000000
522072.000000
523214.000000
524255.000000
525363.000000
526463.000000
527496.000000
528548.000000
529497.000000
530362.000000
531280.000000
532194.000000
533114.000000
534166.000000
535158.000000
536059.000000
537059.000000
538133.000000
539043.000000
539925.000000
540836.000000
541669.000000
542462.000000
543536.000000
544730.000000
545764.000000
546698.000000
547679.000000
548728.000000
549686.000000
550841.000000
552004.000000
553053.000000
554134.000000
555203.000000
556136.000000
557122.000000
558222.000000
559248.000000
560262.000000
561305.000000
562292.000000
563264.000000
564329.000000
565396.000000
566358.000000
567383.000000
568407.000000
569405.000000
570571.000000
571667.000000
572750.000000
573818.000000
574784.000000
575798.000000
576844.000000
577778.000000
578808.000000
579893.000000
580922.000000
582024.000000
583058.000000
584116.000000
585313.000000
586381.000000
587489.000000
588532.000000
589508.000000
590539.000000
591572.000000
592608.000000
593824.000000
594971.000000
596019.000000
597165.000000
598234.000000
599315.000000
600476.000000
601609.000000
602745.000000
603817.000000
604822.000000
605928.000000
606952.000000
608001.000000
609114.000000
610163.000000
611246.000000
612387.000000
613492.000000
614574.000000
615634.000000
616543.000000
617466.000000
618531.000000
619493.000000
620553.000000
621631.000000
622616.000000
623696.000000
624773.000000
625754.000000
626786.000000
627855.000000
628832.000000
629795.000000
630808.000000
631753.000000
632599.000000
633481.000000
634528.000000
635632.000000
636666.000000
637751.000000
638897.000000
639978.000000
640992.000000
642082.000000
643121.000000
644031.000000
644943.000000
645965.000000
646947.000000
647995.000000
648956.000000
649782.000000
650627.000000
651421.000000
652262.000000
653177.000000
654232.000000
655283.000000
656213.000000
657205.000000
658281.000000
659258.000000
660245.000000
661293.000000
662253.000000
663247.000000
664345.000000
665369.000000
666391.000000
667523.000000
668568.000000
669598.000000
670673.000000
671668.000000
672660.000000
673711.000000
674717.000000
675841.000000
676936.000000
677963.000000
679118.000000
680149.000000
681112.000000
682141.000000
683136.000000
684091.000000
685074.000000
685995.000000
687030.000000
688191.000000
689263.000000
690353.000000
691380.000000
692334.000000
693334.000000
694327.000000
695278.000000
696342.000000
697351.000000
698285.000000
699256.000000
700244.000000
701186.000000
702240.000000
703251.000000
704215.000000
705209.000000
706152.000000
707003.000000
707873.000000
708811.000000
709692.000000
710704.000000
711789.000000
712758.000000
713725.000000
714716.000000
715642.000000
716528.000000
717437.000000
718325.000000
719241.000000
720248.000000
721223.000000
722094.000000
722886.000000
723696.000000
724760.000000
725882.000000
727027.000000
728080.000000
729142.000000
730280.000000
731390.000000
732467.000000
733665.000000
734779.000000
735844.000000
736941.000000
737989.000000
738988.000000
740041.000000
741107.000000
742118.000000
743218.000000
744259.000000
745254.000000
746338.000000
747376.000000
748378.000000
749420.000000
750410.000000
751367.000000
752397.000000
753419.000000
754455.000000
755567.000000
756519.000000
757461.000000
758441.000000
759423.000000
760393.000000
761461.000000
762489.000000
763419.000000
764438.000000
765492.000000
766424.000000
767459.000000
768597.000000
769607.000000
770643.000000
771650.000000
772638.000000
773761.000000
774790.000000
775852.000000
776953.000000
777934.000000
778972.000000
780046.000000
781105.000000
782246.000000
783268.000000
784327.000000
785344.000000
786316.000000
787414.000000
788467.000000
789545.000000
790638.000000
791557.000000
792534.000000
793434.000000
794322.000000
795300.000000
796292.000000
797239.000000
798171.000000
799078.000000
800142.000000
801147.000000
802022.000000
802822.000000
803601.000000
804769.000000
805795.000000
806817.000000
807853.000000
808812.000000
809833.000000
810901.000000
811826.000000
812805.000000
813802.000000
814717.000000
815732.000000
816798.000000
817763.000000
818749.000000
819687.000000
820567.000000
821696.000000
822912.000000
824018.000000
825152.000000
826219.000000
827134.000000
828111.000000
829319.000000
830414.000000
831479.000000
832604.000000
833593.000000
834606.000000
835639.000000
836524.000000
837430.000000
838439.000000
839423.000000
840419.000000
841477.000000
842436.000000
843420.000000
844414.000000
845371.000000
846350.000000
847356.000000
848317.000000
849247.000000
850241.000000
851208.000000
852160.000000
853112.000000
854012.000000
854859.000000
855836.000000
856915.000000
857823.000000
858784.000000
859731.000000
860586.000000
861462.000000
862404.000000
863256.000000
864176.000000
865099.000000
865976.000000
866870.000000
867785.000000
868611.000000
869431.000000
870218.000000
870984.000000
871735.000000
872491.000000
873366.000000
874257.000000
875208.000000
876170.000000
877002.000000
877824.000000
878661.000000
879492.000000
880280.000000
881079.000000
882373.000000
883521.000000
884464.000000
885527.000000
886658.000000
887726.000000
888838.000000
889884.000000
890925.000000
891957.000000
892876.000000
893898.000000
894988.000000
896032.000000
897099.000000
898077.000000
898973.000000
899870.000000
900773.000000
901706.000000
902734.000000
903683.000000
904687.000000
905686.000000
906583.000000
907511.000000
908490.000000
909399.000000
910371.000000
911359.000000
912268.000000
913284.000000
914259.000000
915228.000000
916278.000000
917230.000000
918247.000000
919253.000000
920202.000000
921243.000000
922181.000000
923096.000000
924159.000000
925310.000000
926389.000000
927504.000000
928533.000000
929532.000000
930604.000000
931603.000000
932473.000000
933355.000000
934310.000000
935220.000000
936273.000000
937356.000000
938374.000000
939428.000000
940388.000000
941281.000000
942248.000000
943221.000000
944064.000000
944841.000000
945606.000000
946533.000000
947602.000000
948504.000000
949642.000000
950816.000000
951971.000000
953171.000000
954383.000000
955539.000000
956732.000000
957830.000000
959101.000000
960296.000000
961373.000000
962576.000000
963673.000000
964679.000000
965849.000000
966893.000000
967956.000000
969068.000000
970073.000000
971080.000000
972124.000000
973104.000000
974177.000000
975279.000000
976336.000000
977430.000000
978533.000000
979596.000000
980679.000000
981764.000000
982768.000000
983817.000000
985063.000000
986178.000000
987247.000000
988312.000000
989270.000000
990337.000000
991472.000000
992510.000000
993689.000000
994748.000000
995789.000000
996922.000000
997973.000000
999037.000000
1000151.000000
1001137.000000
1002113.000000
1003129.000000
1004154.000000
1005102.000000
1006143.000000
1007205.000000
1008196.000000
1009331.000000
1010420.000000
1011447.000000
1012492.000000
1013445.000000
1014381.000000
1015605.000000
1016725.000000
1017866.000000
1018993.000000
1020096.000000
1021163.000000
1022190.000000
1023164.000000
1024209.000000
1025208.000000
1026279.000000
1027353.000000
1028311.000000
1029346.000000
1030458.000000
1031485.000000
1032548.000000
1033558.000000
1034518.000000
1035607.000000
1036670.000000
1037681.000000
1038725.000000
1039757.000000
1040715.000000
1041699.000000
1042722.000000
1043726.000000
1044813.000000
1045874.000000
1046824.000000
1047836.000000
1048938.000000
1050030.000000
1051141.000000
1052237.000000
1053273.000000
1054415.000000
1055501.000000
1056547.000000
1057627.000000
1058637.000000
1059579.000000
1060561.000000
1061591.000000
1062567.000000
1063602.000000
1064656.000000
1065615.000000
1066662.000000
1067705.000000
1068729.000000
1069781.000000
1070761.000000
1071717.000000
1072738.000000
1073797.000000
1074787.000000
1075851.000000
1076961.000000
1078057.000000
1079156.000000
1080122.000000
1081149.000000
1082319.000000
1083381.000000
1084532.000000
1085627.000000
1086584.000000
1087673.000000
1088870.000000
1089996.000000
1091209.000000
1092383.000000
1093562.000000
1094747.000000
1095842.000000
1097040.000000
1098185.000000
1099251.000000
1100338.000000
1101345.000000
1102286.000000
1103316.000000
1104416.000000
1105498.000000
1106610.000000
1107621.000000
1108573.000000
1109619.000000
1110658.000000
1111628.000000
1112645.000000
1113680.000000
1114598.000000
1115523.000000
1116554.000000
1117502.000000
1118369.000000
1119263.000000
1120387.000000
1121478.000000
1122470.000000
1123546.000000
1124589.000000
1125522.000000
1126557.000000
1127616.000000
1128671.000000
1129784.000000
1130795.000000
1131772.000000
1132811.000000
1133798.000000
1134731.000000
1135715.000000
1136756.000000
1137744.000000
1138798.000000
1139826.000000
1140693.000000
1141478.000000
1142266.000000
1143204.000000
1144294.000000
1145229.000000
1146074.000000
1147251.000000
1148322.000000
1149408.000000
1150505.000000
1151568.000000
1152558.000000
1153622.000000
1154675.000000
1155651.000000
1156669.000000
1157747.000000
1158773.000000
1159845.000000
1161030.000000
1162111.000000
1163135.000000
1164111.000000
1165018.000000
1166091.000000
1167264.000000
1168410.000000
1169526.000000
1170689.000000
1171749.000000
1172823.000000
1173921.000000
1174962.000000
1176016.000000
1177126.000000
1178171.000000
1179180.000000
1180221.000000
1181327.000000
1182348.000000
1183374.000000
1184485.000000
1185562.000000
1186543.000000
1187555.000000
1188583.000000
1189576.000000
1190662.000000
1191684.000000
1192665.000000
1193725.000000
1194806.000000
1195871.000000
1196953.000000
1197911.000000
1198851.000000
1200060.000000
1201187.000000
1202290.000000
