ECG (ms)
556.000000
1227.000000
1937.000000
2665.000000
3356.000000
4006.000000
4658.000000
5321.000000
5987.000000
6644.000000
7300.000000
7971.000000
8648.000000
9324.000000
9988.000000
10635.000000
11305.000000
11986.000000
12649.000000
13313.000000
14001.000000
14661.000000
15305.000000
15974.000000
16662.000000
17376.000000
18055.000000
18717.000000
19403.000000
20093.000000
20820.000000
21533.000000
22212.000000
22863.000000
23546.000000
24321.000000
25139.000000
25883.000000
26557.000000
27200.000000
27832.000000
28482.000000
29174.000000
29917.000000
30623.000000
31290.000000
31958.000000
32679.000000
33505.000000
34294.000000
35003.000000
35675.000000
36336.000000
37013.000000
37725.000000
38452.000000
39173.000000
39882.000000
40577.000000
41259.000000
41977.000000
42680.000000
43398.000000
44100.000000
44779.000000
45488.000000
46190.000000
46858.000000
47521.000000
48212.000000
48978.000000
49742.000000
50459.000000
51156.000000
51877.000000
52620.000000
53375.000000
54079.000000
54739.000000
55399.000000
56076.000000
56769.000000
57441.000000
58092.000000
58765.000000
59500.000000
60265.000000
60986.000000
61690.000000
62462.000000
63244.000000
64073.000000
64870.000000
65558.000000
66232.000000
66944.000000
67712.000000
68521.000000
69278.000000
69996.000000
70688.000000
71393.000000
72163.000000
72940.000000
73702.000000
74416.000000
75090.000000
75757.000000
76438.000000
77140.000000
77909.000000
78635.000000
79365.000000
80127.000000
80882.000000
81588.000000
82275.000000
82977.000000
83731.000000
84471.000000
85154.000000
85863.000000
86597.000000
87332.000000
88052.000000
88722.000000
89366.000000
90015.000000
90704.000000
91474.000000
92217.000000
92927.000000
93660.000000
94433.000000
95168.000000
95877.000000
96564.000000
97245.000000
97927.000000
98598.000000
99260.000000
99941.000000
100675.000000
101403.000000
102116.000000
102801.000000
103475.000000
104168.000000
104885.000000
105556.000000
106240.000000
106916.000000
107667.000000
108424.000000
109129.000000
109820.000000
110543.000000
111263.000000
111975.000000
112678.000000
113343.000000
114014.000000
114845.000000
115637.000000
116356.000000
117032.000000
117721.000000
118452.000000
119159.000000
119844.000000
120518.000000
121318.000000
122215.000000
122990.000000
123685.000000
124353.000000
125092.000000
125929.000000
126863.000000
127626.000000
128309.000000
129018.000000
129773.000000
130572.000000
131310.000000
132008.000000
132773.000000
133580.000000
134329.000000
135019.000000
135703.000000
136421.000000
137155.000000
137856.000000
138528.000000
139233.000000
140006.000000
140770.000000
141483.000000
142193.000000
142904.000000
143582.000000
144232.000000
144886.000000
145612.000000
146399.000000
147134.000000
147842.000000
148590.000000
149332.000000
150017.000000
150670.000000
151325.000000
151997.000000
152679.000000
153365.000000
154052.000000
154731.000000
155407.000000
156078.000000
156785.000000
157467.000000
158111.000000
158755.000000
159439.000000
160153.000000
160857.000000
161514.000000
162186.000000
162921.000000
163700.000000
164444.000000
165143.000000
165879.000000
166614.000000
167351.000000
168051.000000
168724.000000
169386.000000
170092.000000
170949.000000
171715.000000
172413.000000
173122.000000
173864.000000
174679.000000
175430.000000
176113.000000
176787.000000
177462.000000
178154.000000
178831.000000
179506.000000
180238.000000
181012.000000
181724.000000
182406.000000
183095.000000
183813.000000
184544.000000
185268.000000
185938.000000
186601.000000
187289.000000
188004.000000
188752.000000
189481.000000
190163.000000
190859.000000
191599.000000
192323.000000
193022.000000
193688.000000
194376.000000
195114.000000
195857.000000
196562.000000
197220.000000
197884.000000
198568.000000
199254.000000
199911.000000
200561.000000
201229.000000
201918.000000
202621.000000
203294.000000
203951.000000
204634.000000
205348.000000
206095.000000
206776.000000
207432.000000
208104.000000
208823.000000
209573.000000
210292.000000
210988.000000
211724.000000
212515.000000
213269.000000
213961.000000
214633.000000
215338.000000
216075.000000
216784.000000
217465.000000
218151.000000
218858.000000
219569.000000
220247.000000
220926.000000
221632.000000
222342.000000
223007.000000
223652.000000
224317.000000
224995.000000
225656.000000
226297.000000
226955.000000
227643.000000
228369.000000
229047.000000
229702.000000
230364.000000
231072.000000
231826.000000
232535.000000
233223.000000
233920.000000
234660.000000
235375.000000
236062.000000
236723.000000
237401.000000
238128.000000
238834.000000
239501.000000
240149.000000
240791.000000
241466.000000
242155.000000
242834.000000
243489.000000
244149.000000
244816.000000
245456.000000
246107.000000
246774.000000
247463.000000
248145.000000
248790.000000
249481.000000
250186.000000
250880.000000
251535.000000
252168.000000
252819.000000
253475.000000
254143.000000
254797.000000
255447.000000
256163.000000
256931.000000
257639.000000
258305.000000
258963.000000
259655.000000
260409.000000
261108.000000
261775.000000
262464.000000
263176.000000
263888.000000
264565.000000
265233.000000
265940.000000
266688.000000
267419.000000
268093.000000
268763.000000
269450.000000
270166.000000
270894.000000
271577.000000
272246.000000
272948.000000
273697.000000
274459.000000
275156.000000
275820.000000
276492.000000
277174.000000
277867.000000
278529.000000
279186.000000
279874.000000
280619.000000
281344.000000
282035.000000
282709.000000
283392.000000
284092.000000
284778.000000
285473.000000
286150.000000
286819.000000
287505.000000
288259.000000
289005.000000
289700.000000
290380.000000
291100.000000
291832.000000
292537.000000
293220.000000
293919.000000
294644.000000
295402.000000
296111.000000
296777.000000
297437.000000
298138.000000
298928.000000
299698.000000
300388.000000
301047.000000
301742.000000
302454.000000
303171.000000
303849.000000
304530.000000
305248.000000
306010.000000
306724.000000
307422.000000
308137.000000
308847.000000
309537.000000
310187.000000
310842.000000
311525.000000
312255.000000
312985.000000
313673.000000
314353.000000
315051.000000
315734.000000
316389.000000
317029.000000
317678.000000
318356.000000
319059.000000
319743.000000
320414.000000
321129.000000
321911.000000
322704.000000
323416.000000
324091.000000
324771.000000
325450.000000
326122.000000
326775.000000
327465.000000
328232.000000
329030.000000
329736.000000
330399.000000
331066.000000
331770.000000
332460.000000
333123.000000
333774.000000
334427.000000
335106.000000
335770.000000
336436.000000
337096.000000
337735.000000
338350.000000
338965.000000
339601.000000
340317.000000
341125.000000
341831.000000
342487.000000
343132.000000
343827.000000
344605.000000
345320.000000
345978.000000
346617.000000
347275.000000
347941.000000
348626.000000
349302.000000
349964.000000
350678.000000
351407.000000
352111.000000
352777.000000
353436.000000
354123.000000
354841.000000
355533.000000
356193.000000
356848.000000
357514.000000
358182.000000
358836.000000
359489.000000
360188.000000
360913.000000
361596.000000
362253.000000
362929.000000
363652.000000
364368.000000
365043.000000
365691.000000
366345.000000
367020.000000
367708.000000
368369.000000
369039.000000
369762.000000
370488.000000
371180.000000
371840.000000
372505.000000
373198.000000
373928.000000
374607.000000
375274.000000
375970.000000
376711.000000
377427.000000
378093.000000
378739.000000
379416.000000
380132.000000
380850.000000
381542.000000
382242.000000
382989.000000
383711.000000
384388.000000
385038.000000
385696.000000
386395.000000
387119.000000
387814.000000
388475.000000
389165.000000
389924.000000
390704.000000
391411.000000
392085.000000
392767.000000
393466.000000
394161.000000
394818.000000
395478.000000
396189.000000
397028.000000
397788.000000
398479.000000
399144.000000
399828.000000
400560.000000
401255.000000
401911.000000
402566.000000
403242.000000
404008.000000
404762.000000
405449.000000
406170.000000
406944.000000
407737.000000
408448.000000
409132.000000
409846.000000
410583.000000
411316.000000
411999.000000
412675.000000
413384.000000
414155.000000
414979.000000
415714.000000
416414.000000
417139.000000
417940.000000
418769.000000
419511.000000
420229.000000
420969.000000
421706.000000
422410.000000
423082.000000
423743.000000
424470.000000
425290.000000
426026.000000
426762.000000
427553.000000
428337.000000
429094.000000
429792.000000
430454.000000
431140.000000
431855.000000
432565.000000
433238.000000
433927.000000
434662.000000
435413.000000
436100.000000
436767.000000
437459.000000
438174.000000
438876.000000
439533.000000
440202.000000
440899.000000
441627.000000
442318.000000
442997.000000
443722.000000
444481.000000
445214.000000
445884.000000
446535.000000
447191.000000
447859.000000
448501.000000
449138.000000
449803.000000
450513.000000
451226.000000
451895.000000
452552.000000
453244.000000
453981.000000
454678.000000
455342.000000
456001.000000
456685.000000
457393.000000
458070.000000
458723.000000
459399.000000
460107.000000
460829.000000
461502.000000
462157.000000
462813.000000
463489.000000
464166.000000
464812.000000
465464.000000
466156.000000
466882.000000
467563.000000
468231.000000
468901.000000
469586.000000
470268.000000
470921.000000
471553.000000
472207.000000
472888.000000
473585.000000
474255.000000
474912.000000
475608.000000
476305.000000
477015.000000
477686.000000
478338.000000
479007.000000
479704.000000
480398.000000
481050.000000
481693.000000
482358.000000
483037.000000
483715.000000
484361.000000
485007.000000
485662.000000
486343.000000
487040.000000
487693.000000
488334.000000
489011.000000
489715.000000
490409.000000
491073.000000
491719.000000
492370.000000
493062.000000
493770.000000
494427.000000
495073.000000
495752.000000
496454.000000
497137.000000
497784.000000
498431.000000
499090.000000
499762.000000
500411.000000
501045.000000
501677.000000
502333.000000
503019.000000
503669.000000
504307.000000
504950.000000
505632.000000
506349.000000
507027.000000
507675.000000
508339.000000
509020.000000
509730.000000
510424.000000
511106.000000
511821.000000
512599.000000
513317.000000
514003.000000
514706.000000
515425.000000
516121.000000
516798.000000
517460.000000
518160.000000
518969.000000
519753.000000
520450.000000
521173.000000
521922.000000
522709.000000
523432.000000
524118.000000
524806.000000
525497.000000
526181.000000
526849.000000
527547.000000
528303.000000
529115.000000
529858.000000
530570.000000
531348.000000
532129.000000
532825.000000
533487.000000
534165.000000
534881.000000
535624.000000
536330.000000
537037.000000
537770.000000
538553.000000
539263.000000
539945.000000
540645.000000
541419.000000
542154.000000
542851.000000
543550.000000
544302.000000
545082.000000
545820.000000
546531.000000
547253.000000
547975.000000
548668.000000
549350.000000
550054.000000
550798.000000
551517.000000
552212.000000
552919.000000
553647.000000
554338.000000
555002.000000
555666.000000
556359.000000
557110.000000
557808.000000
558481.000000
559179.000000
559951.000000
560730.000000
561448.000000
562165.000000
562937.000000
563721.000000
564437.000000
565138.000000
565864.000000
566616.000000
567355.000000
568036.000000
568706.000000
569471.000000
570334.000000
571102.000000
571800.000000
572478.000000
573187.000000
573952.000000
574673.000000
575382.000000
576134.000000
576984.000000
577709.000000
578389.000000
579092.000000
579853.000000
580629.000000
581354.000000
582109.000000
582920.000000
583676.000000
584380.000000
585045.000000
585743.000000
586484.000000
587231.000000
587940.000000
588633.000000
589382.000000
590227.000000
591013.000000
591722.000000
592430.000000
593217.000000
593946.000000
594640.000000
595305.000000
595992.000000
596781.000000
597655.000000
598485.000000
599291.000000
600020.000000
600746.000000
601537.000000
602328.000000
603092.000000
603801.000000
604503.000000
605222.000000
605958.000000
606665.000000
607344.000000
608056.000000
608939.000000
609761.000000
610474.000000
611150.000000
611820.000000
612507.000000
613224.000000
613936.000000
614643.000000
615427.000000
616268.000000
617067.000000
617763.000000
618437.000000
619134.000000
619853.000000
620567.000000
621252.000000
621982.000000
622800.000000
623535.000000
624226.000000
624928.000000
625659.000000
626389.000000
627083.000000
627767.000000
628569.000000
629417.000000
630168.000000
630863.000000
631549.000000
632247.000000
632956.000000
633639.000000
634320.000000
635013.000000
635742.000000
636465.000000
637162.000000
637857.000000
638590.000000
639333.000000
640054.000000
640739.000000
641429.000000
642163.000000
642926.000000
643635.000000
644327.000000
645037.000000
645751.000000
646448.000000
647135.000000
647893.000000
648732.000000
649501.000000
650196.000000
650868.000000
651564.000000
652301.000000
653050.000000
653766.000000
654519.000000
655371.000000
656216.000000
656947.000000
657647.000000
658374.000000
659165.000000
659954.000000
660695.000000
661426.000000
662217.000000
663035.000000
663779.000000
664465.000000
665158.000000
665900.000000
666693.000000
667420.000000
668099.000000
668791.000000
669576.000000
670446.000000
671212.000000
671955.000000
672757.000000
673547.000000
674255.000000
674940.000000
675648.000000
676430.000000
677207.000000
677955.000000
678671.000000
679459.000000
680249.000000
680963.000000
681703.000000
682514.000000
683310.000000
684037.000000
684766.000000
685664.000000
686549.000000
687284.000000
687966.000000
688668.000000
689404.000000
690160.000000
690883.000000
691621.000000
692400.000000
693189.000000
693935.000000
694626.000000
695320.000000
696052.000000
696779.000000
697467.000000
698139.000000
698832.000000
699611.000000
700396.000000
701114.000000
701817.000000
702564.000000
703319.000000
704044.000000
704738.000000
705428.000000
706176.000000
706959.000000
707739.000000
708461.000000
709166.000000
709902.000000
710694.000000
711501.000000
712260.000000
712945.000000
713613.000000
714319.000000
715094.000000
715905.000000
716643.000000
717352.000000
718069.000000
718793.000000
719476.000000
720153.000000
720882.000000
721673.000000
722408.000000
723093.000000
723781.000000
724561.000000
725400.000000
726163.000000
726865.000000
727555.000000
728276.000000
729077.000000
729852.000000
730561.000000
731251.000000
731969.000000
732710.000000
733438.000000
734136.000000
734803.000000
735485.000000
736242.000000
737083.000000
737823.000000
738508.000000
739198.000000
739931.000000
740766.000000
741596.000000
742319.000000
743004.000000
743685.000000
744421.000000
745351.000000
746129.000000
746848.000000
747538.000000
748291.000000
749093.000000
749863.000000
750583.000000
751252.000000
751938.000000
752690.000000
753472.000000
754183.000000
754870.000000
755581.000000
756312.000000
757020.000000
757704.000000
758406.000000
759146.000000
759902.000000
760592.000000
761262.000000
761955.000000
762663.000000
763363.000000
764036.000000
764710.000000
765432.000000
766161.000000
766848.000000
767505.000000
768184.000000
768903.000000
769639.000000
770329.000000
771002.000000
771700.000000
772424.000000
773140.000000
773816.000000
774487.000000
775190.000000
775941.000000
776643.000000
777309.000000
777981.000000
778678.000000
779418.000000
780138.000000
780814.000000
781489.000000
782173.000000
782875.000000
783572.000000
784233.000000
784900.000000
785607.000000
786362.000000
787072.000000
787758.000000
788437.000000
789135.000000
789901.000000
790653.000000
791353.000000
792038.000000
792741.000000
793468.000000
794175.000000
794861.000000
795536.000000
796252.000000
797116.000000
797942.000000
798746.000000
799507.000000
800276.000000
801090.000000
801902.000000
802665.000000
803405.000000
804186.000000
805034.000000
805831.000000
806574.000000
807301.000000
808132.000000
809030.000000
809840.000000
810569.000000
811283.000000
812063.000000
812852.000000
813626.000000
814370.000000
815114.000000
815967.000000
816868.000000
817705.000000
818460.000000
819192.000000
819959.000000
820755.000000
821495.000000
822197.000000
822953.000000
823869.000000
824692.000000
825441.000000
826151.000000
826891.000000
827765.000000
828575.000000
829320.000000
830057.000000
830807.000000
831615.000000
832364.000000
833069.000000
833801.000000
834601.000000
835439.000000
836175.000000
836865.000000
837562.000000
838293.000000
839087.000000
839893.000000
840598.000000
841315.000000
842087.000000
842832.000000
843531.000000
844268.000000
845073.000000
845938.000000
846697.000000
847399.000000
848117.000000
848923.000000
849709.000000
850414.000000
851088.000000
851791.000000
852594.000000
853442.000000
854194.000000
854911.000000
855732.000000
856626.000000
857437.000000
858194.000000
858896.000000
859600.000000
860391.000000
861297.000000
862146.000000
862924.000000
863720.000000
864535.000000
865377.000000
866161.000000
866880.000000
867603.000000
868394.000000
869199.000000
869988.000000
870788.000000
871630.000000
872457.000000
873222.000000
873944.000000
874650.000000
875445.000000
876296.000000
877121.000000
877886.000000
878670.000000
879480.000000
880312.000000
881084.000000
881784.000000
882464.000000
883161.000000
883953.000000
884858.000000
885658.000000
886389.000000
887194.000000
888142.000000
888983.000000
889788.000000
890600.000000
891413.000000
892248.000000
893028.000000
893828.000000
894714.000000
895602.000000
896426.000000
897185.000000
897892.000000
898560.000000
899251.000000
900327.000000
901271.000000
902197.000000
903078.000000
903869.000000
904670.000000
905584.000000
906488.000000
907316.000000
908069.000000
908805.000000
909604.000000
910514.000000
911303.000000
912042.000000
912787.000000
913573.000000
914420.000000
915206.000000
915933.000000
916685.000000
917390.000000
918083.000000
918819.000000
919551.000000
920242.000000
920968.000000
921739.000000
922533.000000
923258.000000
923952.000000
924669.000000
925410.000000
926147.000000
926831.000000
927513.000000
928229.000000
928975.000000
929673.000000
930337.000000
931001.000000
931702.000000
932433.000000
933158.000000
933832.000000
934510.000000
935226.000000
935956.000000
936648.000000
937314.000000
937989.000000
938703.000000
939451.000000
940179.000000
940858.000000
941522.000000
942222.000000
943013.000000
943805.000000
944532.000000
945287.000000
946114.000000
946916.000000
947646.000000
948365.000000
949098.000000
949872.000000
950659.000000
951399.000000
952113.000000
952885.000000
953708.000000
954442.000000
955133.000000
955825.000000
956592.000000
957434.000000
958199.000000
958934.000000
959770.000000
960655.000000
961441.000000
962161.000000
962894.000000
963733.000000
964590.000000
965394.000000
966161.000000
966976.000000
967830.000000
968611.000000
969335.000000
970108.000000
970932.000000
971737.000000
972459.000000
973163.000000
973905.000000
974710.000000
975538.000000
976335.000000
977180.000000
978069.000000
978839.000000
979557.000000
980285.000000
981089.000000
981909.000000
982659.000000
983409.000000
984260.000000
985130.000000
985889.000000
986573.000000
987262.000000
988138.000000
989045.000000
989890.000000
990700.000000
991488.000000
992340.000000
993211.000000
994033.000000
994795.000000
995583.000000
996406.000000
997207.000000
997936.000000
998688.000000
999523.000000
1000378.000000
1001182.000000
1001923.000000
1002720.000000
1003565.000000
1004352.000000
1005089.000000
1005841.000000
1006713.000000
1007568.000000
1008337.000000
1009056.000000
1009813.000000
1010658.000000
1011533.000000
1012423.000000
1013206.000000
1014081.000000
1014920.000000
1015689.000000
1016403.000000
1017078.000000
1017855.000000
1018947.000000
1019864.000000
1020727.000000
1021522.000000
1022281.000000
1023052.000000
1023887.000000
1024646.000000
1025357.000000
1026105.000000
1026990.000000
1027838.000000
1028576.000000
1029258.000000
1029925.000000
1030699.000000
1031644.000000
1032438.000000
1033198.000000
1034016.000000
1034950.000000
1035800.000000
1036581.000000
1037367.000000
1038193.000000
1039060.000000
1039905.000000
1040666.000000
1041386.000000
1042138.000000
1043118.000000
1044023.000000
1044844.000000
1045603.000000
1046353.000000
1047118.000000
1047873.000000
1048636.000000
1049398.000000
1050152.000000
1051010.000000
1051963.000000
1052887.000000
1053682.000000
1054422.000000
1055212.000000
1056135.000000
1056945.000000
1057699.000000
1058461.000000
1059312.000000
1060193.000000
1060978.000000
1061728.000000
1062513.000000
1063344.000000
1064178.000000
1064942.000000
1065688.000000
1066528.000000
1067353.000000
1068143.000000
1068876.000000
1069610.000000
1070378.000000
1071199.000000
1071985.000000
1072787.000000
1073566.000000
1074317.000000
1075033.000000
1075723.000000
1076498.000000
1077431.000000
1078275.000000
1079049.000000
1079815.000000
1080625.000000
1081423.000000
1082201.000000
1082928.000000
1083671.000000
1084459.000000
1085264.000000
1086032.000000
1086759.000000
1087528.000000
1088427.000000
1089279.000000
1090051.000000
1090816.000000
1091654.000000
1092520.000000
1093299.000000
1094007.000000
1094694.000000
1095496.000000
1096400.000000
1097191.000000
1097939.000000
1098778.000000
1099671.000000
1100510.000000
1101260.000000
1101957.000000
1102708.000000
1103580.000000
1104403.000000
1105175.000000
1105901.000000
1106637.000000
1107445.000000
1108218.000000
1108958.000000
1109646.000000
1110382.000000
1111193.000000
1111982.000000
1112707.000000
1113406.000000
1114169.000000
1115036.000000
1115815.000000
1116545.000000
1117242.000000
1117961.000000
1118781.000000
1119530.000000
1120241.000000
1120951.000000
1121673.000000
1122438.000000
1123148.000000
1123819.000000
1124521.000000
1125343.000000
1126177.000000
1126982.000000
1127753.000000
1128583.000000
1129473.000000
1130300.000000
1131064.000000
1131804.000000
1132545.000000
1133279.000000
1133980.000000
1134655.000000
1135392.000000
1136323.000000
1137118.000000
1137874.000000
1138672.000000
1139498.000000
1140277.000000
1141032.000000
1141835.000000
1142643.000000
1143426.000000
1144185.000000
1145008.000000
1145859.000000
1146638.000000
1147373.000000
1148120.000000
1148917.000000
1149695.000000
1150411.000000
1151168.000000
1151991.000000
1152800.000000
1153528.000000
1154256.000000
1155046.000000
1155943.000000
1156800.000000
1157564.000000
1158253.000000
1158913.000000
1159607.000000
1160551.000000
1161352.000000
1162096.000000
1162859.000000
1163653.000000
1164444.000000
1165168.000000
1165859.000000
1166585.000000
1167406.000000
1168168.000000
1168883.000000
1169599.000000
1170393.000000
1171159.000000
1171886.000000
1172583.000000
1173316.000000
1174094.000000
1174855.000000
1175587.000000
1176354.000000
1177180.000000
1177992.000000
1178735.000000
1179450.000000
1180216.000000
1181010.000000
1181736.000000
1182424.000000
1183137.000000
1183889.000000
1184633.000000
1185330.000000
1186004.000000
1186704.000000
1187434.000000
1188163.000000
1188854.000000
1189561.000000
1190283.000000
1191007.000000
1191696.000000
1192367.000000
1193073.000000
1194010.000000
1194830.000000
1195563.000000
1196243.000000
1196919.000000
1197650.000000
1198431.000000
1199188.000000
1199950.000000
1200758.000000
1201546.000000
1202294.000000
1203041.000000
