ECG (ms)
150.000000
770.000000
1394.000000
2020.000000
2634.000000
3254.000000
3868.000000
4482.000000
5088.000000
5711.000000
6341.000000
6979.000000
7614.000000
8249.000000
8889.000000
9524.000000
10158.000000
10788.000000
11412.000000
12032.000000
12649.000000
13271.000000
13897.000000
14530.000000
15164.000000
15809.000000
16453.000000
17094.000000
17729.000000
18359.000000
18988.000000
19613.000000
20230.000000
20855.000000
21490.000000
22123.000000
22752.000000
23395.000000
24042.000000
24683.000000
25322.000000
25959.000000
26596.000000
27222.000000
27835.000000
28442.000000
29039.000000
29630.000000
30214.000000
30799.000000
31395.000000
31997.000000
32598.000000
33196.000000
33799.000000
34398.000000
34998.000000
35598.000000
36206.000000
36813.000000
37419.000000
38026.000000
38643.000000
39264.000000
39884.000000
40505.000000
41131.000000
41757.000000
42382.000000
43006.000000
43633.000000
44260.000000
44885.000000
45506.000000
46123.000000
46743.000000
47364.000000
47975.000000
48583.000000
49191.000000
49796.000000
50390.000000
50977.000000
51563.000000
52153.000000
52745.000000
53338.000000
53933.000000
54536.000000
55140.000000
55739.000000
56346.000000
56962.000000
57580.000000
58190.000000
58797.000000
59403.000000
60018.000000
60633.000000
61240.000000
61856.000000
62479.000000
63108.000000
63734.000000
64364.000000
64994.000000
65624.000000
66239.000000
66851.000000
67464.000000
68079.000000
68686.000000
69288.000000
69890.000000
70491.000000
71087.000000
71687.000000
72291.000000
72901.000000
73507.000000
74118.000000
74732.000000
75351.000000
75967.000000
76578.000000
77189.000000
77801.000000
78409.000000
79010.000000
79612.000000
80217.000000
80825.000000
81425.000000
82021.000000
82615.000000
83213.000000
83813.000000
84417.000000
85017.000000
85612.000000
86211.000000
86807.000000
87404.000000
87999.000000
88593.000000
89189.000000
89782.000000
90372.000000
90960.000000
91548.000000
92138.000000
92725.000000
93320.000000
93916.000000
94521.000000
95118.000000
95720.000000
96331.000000
96943.000000
97544.000000
98144.000000
98742.000000
99336.000000
99925.000000
100507.000000
101090.000000
101673.000000
102257.000000
102841.000000
103428.000000
104015.000000
104604.000000
105193.000000
105782.000000
106375.000000
106973.000000
107567.000000
108154.000000
108745.000000
109341.000000
109941.000000
110538.000000
111133.000000
111728.000000
112326.000000
112923.000000
113520.000000
114121.000000
114724.000000
115329.000000
115931.000000
116534.000000
117131.000000
117721.000000
118309.000000
118899.000000
119483.000000
120064.000000
120643.000000
121225.000000
121809.000000
122388.000000
122964.000000
123542.000000
124129.000000
124722.000000
125317.000000
125914.000000
126514.000000
127122.000000
127732.000000
128340.000000
128954.000000
129564.000000
130167.000000
130764.000000
131361.000000
131953.000000
132539.000000
133122.000000
133703.000000
134284.000000
134869.000000
135448.000000
136027.000000
136608.000000
137193.000000
137783.000000
138377.000000
138983.000000
139596.000000
140217.000000
140828.000000
141440.000000
142060.000000
142681.000000
143294.000000
143905.000000
144519.000000
145128.000000
145733.000000
146342.000000
146948.000000
147550.000000
148148.000000
148743.000000
149337.000000
149929.000000
150514.000000
151100.000000
151693.000000
152279.000000
152875.000000
153474.000000
154076.000000
154681.000000
155274.000000
155865.000000
156454.000000
157041.000000
157620.000000
158199.000000
158781.000000
159365.000000
159950.000000
160536.000000
161131.000000
161729.000000
162332.000000
162934.000000
163542.000000
164150.000000
164755.000000
165353.000000
165947.000000
166541.000000
167139.000000
167747.000000
168359.000000
168974.000000
169591.000000
170213.000000
170835.000000
171450.000000
172054.000000
172652.000000
173254.000000
173857.000000
174461.000000
175059.000000
175657.000000
176256.000000
176853.000000
177446.000000
178036.000000
178623.000000
179206.000000
179783.000000
180359.000000
180936.000000
181525.000000
182116.000000
182712.000000
183315.000000
183917.000000
184520.000000
185127.000000
185748.000000
186371.000000
186995.000000
187616.000000
188239.000000
188859.000000
189475.000000
190089.000000
190703.000000
191327.000000
191951.000000
192571.000000
193198.000000
193823.000000
194449.000000
195068.000000
195691.000000
196315.000000
196950.000000
197598.000000
198243.000000
198878.000000
199514.000000
200154.000000
200795.000000
201428.000000
202057.000000
202687.000000
203319.000000
203943.000000
204567.000000
205190.000000
205812.000000
206431.000000
207046.000000
207659.000000
208273.000000
208884.000000
209492.000000
210101.000000
210721.000000
211353.000000
211992.000000
212628.000000
213261.000000
213900.000000
214540.000000
215175.000000
215815.000000
216448.000000
217077.000000
217700.000000
218316.000000
218931.000000
219544.000000
220153.000000
220758.000000
221361.000000
221961.000000
222557.000000
223147.000000
223734.000000
224317.000000
224908.000000
225498.000000
226086.000000
226675.000000
227268.000000
227859.000000
228447.000000
229035.000000
229622.000000
230208.000000
230789.000000
231367.000000
231945.000000
232522.000000
233096.000000
233669.000000
234246.000000
234828.000000
235410.000000
235995.000000
236582.000000
237172.000000
237760.000000
238347.000000
238937.000000
239530.000000
240121.000000
240709.000000
241295.000000
241885.000000
242477.000000
243065.000000
243657.000000
244252.000000
244852.000000
245448.000000
246043.000000
246640.000000
247240.000000
247836.000000
248434.000000
249034.000000
249631.000000
250228.000000
250823.000000
251418.000000
252014.000000
252613.000000
253208.000000
253805.000000
254406.000000
255008.000000
255611.000000
256214.000000
256821.000000
257424.000000
258027.000000
258626.000000
259228.000000
259830.000000
260433.000000
261033.000000
261635.000000
262241.000000
262842.000000
263450.000000
264062.000000
264681.000000
265293.000000
265902.000000
266512.000000
267126.000000
267736.000000
268343.000000
268953.000000
269567.000000
270179.000000
270785.000000
271388.000000
271992.000000
272591.000000
273191.000000
273790.000000
274388.000000
274990.000000
275595.000000
276202.000000
276808.000000
277416.000000
278017.000000
278613.000000
279203.000000
279786.000000
280367.000000
280941.000000
281514.000000
282088.000000
282664.000000
283242.000000
283825.000000
284414.000000
285001.000000
285587.000000
286178.000000
286766.000000
287358.000000
287944.000000
288534.000000
289133.000000
289733.000000
290334.000000
290932.000000
291529.000000
292126.000000
292723.000000
293315.000000
293907.000000
294503.000000
295099.000000
295693.000000
296288.000000
296881.000000
297487.000000
298099.000000
298708.000000
299316.000000
299926.000000
300537.000000
301148.000000
301758.000000
302362.000000
302967.000000
303569.000000
304167.000000
304765.000000
305367.000000
305969.000000
306571.000000
307176.000000
307780.000000
308390.000000
309007.000000
309620.000000
310234.000000
310846.000000
311461.000000
312074.000000
312682.000000
313284.000000
313889.000000
314495.000000
315100.000000
315702.000000
316304.000000
316906.000000
317505.000000
318099.000000
318695.000000
319292.000000
319889.000000
320490.000000
321095.000000
321707.000000
322319.000000
322932.000000
323549.000000
324164.000000
324776.000000
325386.000000
325997.000000
326609.000000
327223.000000
327827.000000
328429.000000
329026.000000
329622.000000
330214.000000
330806.000000
331394.000000
331990.000000
332583.000000
333176.000000
333762.000000
334348.000000
334929.000000
335505.000000
336080.000000
336656.000000
337232.000000
337815.000000
338402.000000
338989.000000
339574.000000
340160.000000
340758.000000
341373.000000
342006.000000
342647.000000
343294.000000
343952.000000
344621.000000
345296.000000
345948.000000
346589.000000
347223.000000
347852.000000
348480.000000
349107.000000
349734.000000
350364.000000
350992.000000
351614.000000
352237.000000
352873.000000
353511.000000
354140.000000
354774.000000
355408.000000
356049.000000
356689.000000
357321.000000
357952.000000
358582.000000
359209.000000
359827.000000
360436.000000
361039.000000
361639.000000
362234.000000
362826.000000
363412.000000
363996.000000
364578.000000
365158.000000
365738.000000
366317.000000
366908.000000
367515.000000
368137.000000
368756.000000
369371.000000
369990.000000
370610.000000
371222.000000
371830.000000
372429.000000
373020.000000
373612.000000
374216.000000
374854.000000
375501.000000
376151.000000
376796.000000
377428.000000
378050.000000
378660.000000
379272.000000
379878.000000
380494.000000
381114.000000
381733.000000
382346.000000
382960.000000
383580.000000
384195.000000
384805.000000
385412.000000
386015.000000
386616.000000
387217.000000
387814.000000
388409.000000
389006.000000
389601.000000
390194.000000
390786.000000
391381.000000
391984.000000
392578.000000
393171.000000
393768.000000
394367.000000
394968.000000
395565.000000
396159.000000
396752.000000
397343.000000
397926.000000
398505.000000
399079.000000
399649.000000
400215.000000
400781.000000
401348.000000
401920.000000
402489.000000
403059.000000
403635.000000
404214.000000
404796.000000
405376.000000
405960.000000
406546.000000
407131.000000
407716.000000
408301.000000
408886.000000
409470.000000
410049.000000
410626.000000
411203.000000
411782.000000
412358.000000
412931.000000
413504.000000
414075.000000
414640.000000
415203.000000
415763.000000
416319.000000
416871.000000
417421.000000
417974.000000
418526.000000
419081.000000
419636.000000
420191.000000
420747.000000
421303.000000
421863.000000
422426.000000
422985.000000
423545.000000
424106.000000
424669.000000
425235.000000
425804.000000
426376.000000
426950.000000
427527.000000
428109.000000
428686.000000
429269.000000
429856.000000
430449.000000
431051.000000
431656.000000
432264.000000
432875.000000
433490.000000
434107.000000
434722.000000
435337.000000
435950.000000
436566.000000
437182.000000
437792.000000
438399.000000
439007.000000
439615.000000
440219.000000
440820.000000
441417.000000
442014.000000
442614.000000
443209.000000
443804.000000
444398.000000
444995.000000
445588.000000
446181.000000
446771.000000
447364.000000
447952.000000
448538.000000
449123.000000
449708.000000
450289.000000
450872.000000
451453.000000
452034.000000
452619.000000
453212.000000
453806.000000
454403.000000
455004.000000
455610.000000
456215.000000
456815.000000
457414.000000
458013.000000
458611.000000
459208.000000
459805.000000
460407.000000
461007.000000
461615.000000
462222.000000
462829.000000
463438.000000
464046.000000
464649.000000
465246.000000
465839.000000
466427.000000
467009.000000
467587.000000
468162.000000
468734.000000
469306.000000
469876.000000
470447.000000
471019.000000
471593.000000
472168.000000
472743.000000
473316.000000
473889.000000
474470.000000
475057.000000
475646.000000
476236.000000
476824.000000
477411.000000
478002.000000
478596.000000
479190.000000
479784.000000
480377.000000
480970.000000
481559.000000
482146.000000
482732.000000
483321.000000
483911.000000
484494.000000
485075.000000
485652.000000
486224.000000
486790.000000
487352.000000
487915.000000
488479.000000
489044.000000
489613.000000
490182.000000
490755.000000
491329.000000
491906.000000
492493.000000
493086.000000
493682.000000
494283.000000
494893.000000
495509.000000
496131.000000
496751.000000
497379.000000
498012.000000
498637.000000
499264.000000
499890.000000
500515.000000
501142.000000
501762.000000
502378.000000
502993.000000
503614.000000
504234.000000
504853.000000
505468.000000
506085.000000
506710.000000
507328.000000
507941.000000
508552.000000
509166.000000
509780.000000
510388.000000
510993.000000
511602.000000
512216.000000
512830.000000
513441.000000
514057.000000
514676.000000
515289.000000
515895.000000
516499.000000
517100.000000
517693.000000
518282.000000
518867.000000
519450.000000
520035.000000
520617.000000
521198.000000
521789.000000
522379.000000
522970.000000
523563.000000
524161.000000
524764.000000
525371.000000
525978.000000
526584.000000
527192.000000
527804.000000
528410.000000
529013.000000
529617.000000
530218.000000
530819.000000
531417.000000
532014.000000
532609.000000
533208.000000
533799.000000
534389.000000
534980.000000
535573.000000
536164.000000
536755.000000
537346.000000
537944.000000
538549.000000
539151.000000
539759.000000
540375.000000
540994.000000
541607.000000
542221.000000
542831.000000
543440.000000
544049.000000
544653.000000
545255.000000
545862.000000
546466.000000
547065.000000
547660.000000
548257.000000
548854.000000
549450.000000
550050.000000
550648.000000
551252.000000
551859.000000
552470.000000
553081.000000
553689.000000
554299.000000
554914.000000
555528.000000
556138.000000
556745.000000
557354.000000
557966.000000
558574.000000
559181.000000
559786.000000
560393.000000
561005.000000
561617.000000
562229.000000
562845.000000
563461.000000
564079.000000
564691.000000
565298.000000
565902.000000
566509.000000
567120.000000
567735.000000
568343.000000
568953.000000
569562.000000
570166.000000
570766.000000
571360.000000
571955.000000
572549.000000
573145.000000
573746.000000
574351.000000
574960.000000
575565.000000
576166.000000
576769.000000
577377.000000
577989.000000
578597.000000
579203.000000
579809.000000
580413.000000
581019.000000
581621.000000
582220.000000
582817.000000
583418.000000
584021.000000
584630.000000
585232.000000
585834.000000
586439.000000
587044.000000
587648.000000
588248.000000
588841.000000
589435.000000
590033.000000
590626.000000
591223.000000
591815.000000
592414.000000
593017.000000
593617.000000
594214.000000
594809.000000
595407.000000
596010.000000
596611.000000
597207.000000
597802.000000
598397.000000
598992.000000
599581.000000
600169.000000
600752.000000
601338.000000
601918.000000
602499.000000
603076.000000
603655.000000
604234.000000
604806.000000
605377.000000
605947.000000
606517.000000
607085.000000
607649.000000
608210.000000
608771.000000
609333.000000
609897.000000
610471.000000
611048.000000
611623.000000
612202.000000
612784.000000
613370.000000
613958.000000
614544.000000
615129.000000
615711.000000
616296.000000
616883.000000
617464.000000
618042.000000
618618.000000
619192.000000
619767.000000
620344.000000
620921.000000
621498.000000
622077.000000
622662.000000
623241.000000
623821.000000
624407.000000
624990.000000
625569.000000
626148.000000
626722.000000
627300.000000
627881.000000
628458.000000
629035.000000
629608.000000
630184.000000
630766.000000
631346.000000
631927.000000
632506.000000
633087.000000
633667.000000
634251.000000
634835.000000
635420.000000
636008.000000
636600.000000
637194.000000
637790.000000
638382.000000
638975.000000
639569.000000
640159.000000
640748.000000
641337.000000
641929.000000
642523.000000
643114.000000
643705.000000
644298.000000
644898.000000
645501.000000
646102.000000
646699.000000
647296.000000
647897.000000
648501.000000
649103.000000
649700.000000
650300.000000
650910.000000
651525.000000
652143.000000
652754.000000
653364.000000
653977.000000
654599.000000
655226.000000
655848.000000
656475.000000
657104.000000
657732.000000
658363.000000
658991.000000
659626.000000
660267.000000
660897.000000
661520.000000
662133.000000
662745.000000
663356.000000
663961.000000
664565.000000
665168.000000
665774.000000
666379.000000
666985.000000
667593.000000
668205.000000
668824.000000
669436.000000
670047.000000
670655.000000
671265.000000
671871.000000
672474.000000
673078.000000
673677.000000
674274.000000
674871.000000
675464.000000
676060.000000
676659.000000
677264.000000
677871.000000
678476.000000
679089.000000
679702.000000
680314.000000
680922.000000
681530.000000
682135.000000
682739.000000
683335.000000
683929.000000
684524.000000
685120.000000
685713.000000
686306.000000
686895.000000
687482.000000
688068.000000
688660.000000
689249.000000
689841.000000
690431.000000
691024.000000
691615.000000
692207.000000
692798.000000
693389.000000
693985.000000
694585.000000
695179.000000
695768.000000
696355.000000
696943.000000
697526.000000
698111.000000
698691.000000
699269.000000
699846.000000
700423.000000
700998.000000
701574.000000
702152.000000
702732.000000
703310.000000
703888.000000
704471.000000
705055.000000
705638.000000
706221.000000
706802.000000
707388.000000
707978.000000
708567.000000
709152.000000
709732.000000
710313.000000
710904.000000
711497.000000
712095.000000
712692.000000
713284.000000
713869.000000
714447.000000
715021.000000
715588.000000
716151.000000
716710.000000
717269.000000
717835.000000
718402.000000
718976.000000
719547.000000
720125.000000
720703.000000
721285.000000
721874.000000
722465.000000
723057.000000
723661.000000
724271.000000
724879.000000
725480.000000
726078.000000
726678.000000
727281.000000
727885.000000
728485.000000
729092.000000
729707.000000
730325.000000
730947.000000
731561.000000
732179.000000
732796.000000
733409.000000
734021.000000
734635.000000
735255.000000
735882.000000
736510.000000
737146.000000
737783.000000
738417.000000
739048.000000
739677.000000
740308.000000
740933.000000
741558.000000
742175.000000
742793.000000
743412.000000
744025.000000
744638.000000
745248.000000
745862.000000
746472.000000
747081.000000
747687.000000
748297.000000
748909.000000
749520.000000
750131.000000
750743.000000
751358.000000
751965.000000
752570.000000
753177.000000
753788.000000
754399.000000
755007.000000
755612.000000
756222.000000
756830.000000
757435.000000
758038.000000
758643.000000
759246.000000
759847.000000
760443.000000
761038.000000
761637.000000
762241.000000
762840.000000
763439.000000
764040.000000
764644.000000
765251.000000
765860.000000
766463.000000
767066.000000
767673.000000
768283.000000
768888.000000
769493.000000
770093.000000
770691.000000
771289.000000
771881.000000
772470.000000
773056.000000
773643.000000
774231.000000
774820.000000
775406.000000
775997.000000
776589.000000
777180.000000
777770.000000
778361.000000
778956.000000
779549.000000
780139.000000
780729.000000
781322.000000
781913.000000
782498.000000
783084.000000
783668.000000
784255.000000
784841.000000
785425.000000
786012.000000
786598.000000
787187.000000
787777.000000
788361.000000
788944.000000
789529.000000
790113.000000
790694.000000
791273.000000
791854.000000
792433.000000
793012.000000
793587.000000
794161.000000
794735.000000
795310.000000
795886.000000
796462.000000
797036.000000
797615.000000
798195.000000
798775.000000
799352.000000
799931.000000
800511.000000
801088.000000
801665.000000
802243.000000
802823.000000
803405.000000
803985.000000
804565.000000
805152.000000
805739.000000
806323.000000
806909.000000
807499.000000
808092.000000
808688.000000
809281.000000
809873.000000
810461.000000
811049.000000
811635.000000
812219.000000
812802.000000
813392.000000
813977.000000
814562.000000
815145.000000
815727.000000
816310.000000
816888.000000
817465.000000
818040.000000
818612.000000
819183.000000
819756.000000
820328.000000
820899.000000
821472.000000
822046.000000
822617.000000
823189.000000
823758.000000
824328.000000
824901.000000
825474.000000
826046.000000
826617.000000
827193.000000
827773.000000
828355.000000
828933.000000
829518.000000
830107.000000
830691.000000
831272.000000
831854.000000
832437.000000
833025.000000
833616.000000
834207.000000
834798.000000
835393.000000
835992.000000
836589.000000
837184.000000
837782.000000
838385.000000
838990.000000
839604.000000
840218.000000
840843.000000
841474.000000
842100.000000
842728.000000
843358.000000
843993.000000
844622.000000
845244.000000
845871.000000
846508.000000
847158.000000
847811.000000
848462.000000
849098.000000
849741.000000
850384.000000
851015.000000
851640.000000
852266.000000
852906.000000
853546.000000
854180.000000
854818.000000
855460.000000
856110.000000
856760.000000
857400.000000
858044.000000
858688.000000
859322.000000
859944.000000
860567.000000
861190.000000
861813.000000
862434.000000
863055.000000
863683.000000
864314.000000
864939.000000
865565.000000
866191.000000
866823.000000
867451.000000
868075.000000
868703.000000
869335.000000
869961.000000
870592.000000
871222.000000
871854.000000
872482.000000
873104.000000
873722.000000
874339.000000
874959.000000
875560.000000
876171.000000
876777.000000
877385.000000
877998.000000
878607.000000
879213.000000
879820.000000
880431.000000
881037.000000
881642.000000
882244.000000
882850.000000
883456.000000
884060.000000
884661.000000
885260.000000
885860.000000
886456.000000
887051.000000
887644.000000
888238.000000
888832.000000
889421.000000
890011.000000
890610.000000
891213.000000
891818.000000
892420.000000
893018.000000
893618.000000
894216.000000
894809.000000
895404.000000
896003.000000
896602.000000
897201.000000
897797.000000
898393.000000
898986.000000
899577.000000
900164.000000
900750.000000
901335.000000
901915.000000
902495.000000
903072.000000
903651.000000
904235.000000
904818.000000
905401.000000
905983.000000
906570.000000
907157.000000
907742.000000
908323.000000
908902.000000
909481.000000
910061.000000
910635.000000
911207.000000
911776.000000
912350.000000
912923.000000
913496.000000
914066.000000
914640.000000
915217.000000
915792.000000
916368.000000
916940.000000
917517.000000
918094.000000
918668.000000
919241.000000
919814.000000
920386.000000
920956.000000
921524.000000
922091.000000
922662.000000
923235.000000
923805.000000
924375.000000
924945.000000
925520.000000
926095.000000
926670.000000
927241.000000
927817.000000
928396.000000
928973.000000
929547.000000
930122.000000
930701.000000
931279.000000
931854.000000
932428.000000
933002.000000
933578.000000
934151.000000
934724.000000
935298.000000
935874.000000
936450.000000
937027.000000
937600.000000
938171.000000
938743.000000
939317.000000
939891.000000
940466.000000
941046.000000
941619.000000
942197.000000
942774.000000
943349.000000
943926.000000
944501.000000
945075.000000
945650.000000
946222.000000
946791.000000
947356.000000
947918.000000
948481.000000
949048.000000
949616.000000
950191.000000
950768.000000
951347.000000
951926.000000
952504.000000
953088.000000
953675.000000
954262.000000
954845.000000
955432.000000
956022.000000
956610.000000
957196.000000
957781.000000
958371.000000
958962.000000
959553.000000
960141.000000
960732.000000
961320.000000
961915.000000
962513.000000
963110.000000
963704.000000
964299.000000
964893.000000
965484.000000
966073.000000
966659.000000
967243.000000
967823.000000
968401.000000
968980.000000
969564.000000
970153.000000
970745.000000
971336.000000
971927.000000
972519.000000
973112.000000
973699.000000
974282.000000
974863.000000
975443.000000
976023.000000
976599.000000
977171.000000
977741.000000
978308.000000
978871.000000
979435.000000
979995.000000
980552.000000
981108.000000
981665.000000
982226.000000
982794.000000
983363.000000
983935.000000
984509.000000
985086.000000
985661.000000
986239.000000
986815.000000
987392.000000
987973.000000
988559.000000
989142.000000
989725.000000
990304.000000
990880.000000
991459.000000
992054.000000
992652.000000
993242.000000
993837.000000
994425.000000
995010.000000
995589.000000
996165.000000
996738.000000
997311.000000
997882.000000
998453.000000
999021.000000
999594.000000
1000164.000000
1000737.000000
1001309.000000
1001882.000000
1002455.000000
1003032.000000
1003609.000000
1004184.000000
1004758.000000
1005335.000000
1005914.000000
1006489.000000
1007064.000000
1007639.000000
1008216.000000
1008792.000000
1009368.000000
1009942.000000
1010517.000000
1011095.000000
1011669.000000
1012243.000000
1012818.000000
1013395.000000
1013974.000000
1014553.000000
1015132.000000
1015713.000000
1016292.000000
1016874.000000
1017455.000000
1018038.000000
1018619.000000
1019198.000000
1019776.000000
1020351.000000
1020924.000000
1021496.000000
1022070.000000
1022646.000000
1023225.000000
1023811.000000
1024392.000000
1024973.000000
1025555.000000
1026133.000000
1026711.000000
1027286.000000
1027858.000000
1028427.000000
1028994.000000
1029561.000000
1030124.000000
1030688.000000
1031248.000000
1031811.000000
1032377.000000
1032953.000000
1033528.000000
1034105.000000
1034680.000000
1035256.000000
1035830.000000
1036404.000000
1036975.000000
1037547.000000
1038120.000000
1038695.000000
1039269.000000
1039841.000000
1040420.000000
1040995.000000
1041569.000000
1042140.000000
1042707.000000
1043273.000000
1043843.000000
1044413.000000
1044992.000000
1045571.000000
1046151.000000
1046735.000000
1047316.000000
1047902.000000
1048493.000000
1049085.000000
1049675.000000
1050261.000000
1050848.000000
1051438.000000
1052031.000000
1052624.000000
1053213.000000
1053807.000000
1054406.000000
1055000.000000
1055592.000000
1056181.000000
1056771.000000
1057366.000000
1057958.000000
1058548.000000
1059136.000000
1059727.000000
1060324.000000
1060921.000000
1061518.000000
1062113.000000
1062711.000000
1063312.000000
1063908.000000
1064504.000000
1065096.000000
1065686.000000
1066277.000000
1066864.000000
1067447.000000
1068029.000000
1068612.000000
1069196.000000
1069781.000000
1070366.000000
1070951.000000
1071541.000000
1072127.000000
1072712.000000
1073298.000000
1073885.000000
1074471.000000
1075054.000000
1075636.000000
1076223.000000
1076813.000000
1077398.000000
1077984.000000
1078568.000000
1079156.000000
1079746.000000
1080330.000000
1080912.000000
1081494.000000
1082077.000000
1082658.000000
1083236.000000
1083816.000000
1084395.000000
1084978.000000
1085558.000000
1086134.000000
1086709.000000
1087289.000000
1087873.000000
1088464.000000
1089057.000000
1089648.000000
1090234.000000
1090831.000000
1091432.000000
1092030.000000
1092628.000000
1093222.000000
1093817.000000
1094416.000000
1095008.000000
1095594.000000
1096179.000000
1096765.000000
1097354.000000
1097940.000000
1098526.000000
1099108.000000
1099692.000000
1100276.000000
1100862.000000
1101446.000000
1102027.000000
1102610.000000
1103199.000000
1103792.000000
1104385.000000
1104974.000000
1105569.000000
1106169.000000
1106763.000000
1107356.000000
1107958.000000
1108566.000000
1109173.000000
1109779.000000
1110390.000000
1110997.000000
1111609.000000
1112219.000000
1112834.000000
1113450.000000
1114065.000000
1114683.000000
1115293.000000
1115898.000000
1116497.000000
1117097.000000
1117693.000000
1118288.000000
1118881.000000
1119471.000000
1120061.000000
1120649.000000
1121240.000000
1121829.000000
1122424.000000
1123014.000000
1123605.000000
1124201.000000
1124798.000000
1125397.000000
1126002.000000
1126601.000000
1127199.000000
1127796.000000
1128399.000000
1128999.000000
1129603.000000
1130200.000000
1130798.000000
1131401.000000
1131995.000000
1132586.000000
1133175.000000
1133766.000000
1134359.000000
1134948.000000
1135534.000000
1136120.000000
1136705.000000
1137292.000000
1137876.000000
1138457.000000
1139036.000000
1139618.000000
1140203.000000
1140783.000000
1141365.000000
1141956.000000
1142551.000000
1143148.000000
1143739.000000
1144327.000000
1144920.000000
1145518.000000
1146113.000000
1146708.000000
1147305.000000
1147903.000000
1148504.000000
1149101.000000
1149696.000000
1150291.000000
1150894.000000
1151497.000000
1152100.000000
1152700.000000
1153297.000000
1153903.000000
1154508.000000
1155112.000000
1155712.000000
1156318.000000
1156925.000000
1157527.000000
1158124.000000
1158719.000000
1159313.000000
1159905.000000
1160495.000000
1161083.000000
1161670.000000
1162255.000000
1162843.000000
1163429.000000
1164014.000000
1164596.000000
1165185.000000
1165772.000000
1166356.000000
1166934.000000
1167508.000000
1168081.000000
1168655.000000
1169227.000000
1169797.000000
1170371.000000
1170957.000000
1171555.000000
1172162.000000
1172767.000000
1173382.000000
1173998.000000
1174612.000000
1175220.000000
1175825.000000
1176435.000000
1177046.000000
1177653.000000
1178255.000000
1178862.000000
1179474.000000
1180086.000000
1180696.000000
1181300.000000
1181905.000000
1182509.000000
1183110.000000
1183700.000000
1184302.000000
1184906.000000
1185506.000000
1186105.000000
1186704.000000
1187302.000000
1187907.000000
1188519.000000
1189134.000000
1189757.000000
1190379.000000
1191010.000000
1191643.000000
1192275.000000
1192906.000000
1193539.000000
1194174.000000
1194800.000000
1195417.000000
1196022.000000
1196632.000000
1197227.000000
1197832.000000
1198420.000000
1199029.000000
1199641.000000
1200258.000000
1200872.000000
1201479.000000
1202095.000000
1202712.000000
1203327.000000
1203945.000000
1204555.000000
1205174.000000
1205795.000000
1206417.000000
1207032.000000
1207638.000000
1208246.000000
1208852.000000
1209448.000000
1210049.000000
1210640.000000
1211247.000000
1211841.000000
1212436.000000
1213024.000000
1213619.000000
1214212.000000
1214807.000000
1215394.000000
1215988.000000
1216586.000000
1217188.000000
1217789.000000
1218389.000000
1218984.000000
1219582.000000
1220180.000000
1220777.000000
1221368.000000
1221955.000000
1222547.000000
1223141.000000
1223736.000000
1224326.000000
1224914.000000
1225503.000000
1226094.000000
1226687.000000
1227277.000000
1227862.000000
1228451.000000
1229043.000000
1229634.000000
1230226.000000
1230816.000000
1231410.000000
1232007.000000
1232610.000000
1233208.000000
1233800.000000
1234397.000000
1234992.000000
1235578.000000
1236167.000000
1236748.000000
1237339.000000
1237924.000000
1238511.000000
1239093.000000
1239681.000000
1240263.000000
1240849.000000
1241430.000000
1242013.000000
1242599.000000
1243187.000000
1243770.000000
1244350.000000
1244933.000000
1245519.000000
1246104.000000
1246686.000000
1247273.000000
1247867.000000
1248457.000000
1249045.000000
1249634.000000
1250220.000000
1250809.000000
1251400.000000
1251989.000000
1252573.000000
1253157.000000
1253744.000000
1254330.000000
1254913.000000
1255496.000000
1256075.000000
1256655.000000
1257244.000000
1257841.000000
1258443.000000
1259046.000000
1259652.000000
1260253.000000
1260843.000000
1261425.000000
1262002.000000
1262573.000000
1263139.000000
1263700.000000
1264261.000000
1264822.000000
1265386.000000
1265948.000000
1266513.000000
1267078.000000
1267649.000000
1268225.000000
1268800.000000
1269376.000000
1269953.000000
1270535.000000
1271117.000000
1271701.000000
1272287.000000
1272872.000000
1273461.000000
1274053.000000
1274646.000000
1275235.000000
1275826.000000
1276420.000000
1277011.000000
1277601.000000
1278190.000000
1278779.000000
1279372.000000
1279963.000000
1280550.000000
1281137.000000
1281730.000000
1282314.000000
1282894.000000
1283473.000000
1284048.000000
1284622.000000
1285195.000000
1285768.000000
1286342.000000
1286915.000000
1287495.000000
1288075.000000
1288656.000000
1289233.000000
1289813.000000
1290392.000000
1290967.000000
1291539.000000
1292109.000000
1292678.000000
1293249.000000
1293818.000000
1294386.000000
1294954.000000
1295526.000000
1296098.000000
1296671.000000
1297242.000000
1297809.000000
1298373.000000
1298932.000000
1299490.000000
1300051.000000
1300612.000000
1301172.000000
1301731.000000
1302291.000000
1302852.000000
1303419.000000
1303992.000000
1304569.000000
1305150.000000
1305747.000000
1306328.000000
1306903.000000
1307472.000000
1308036.000000
1308597.000000
1309151.000000
1309703.000000
1310252.000000
1310800.000000
1311346.000000
1311889.000000
1312433.000000
1312976.000000
1313519.000000
1314060.000000
1314604.000000
1315148.000000
1315694.000000
1316239.000000
1316784.000000
1317328.000000
1317874.000000
1318418.000000
1318964.000000
1319510.000000
1320055.000000
1320602.000000
1321153.000000
1321701.000000
1322251.000000
1322802.000000
1323357.000000
1323914.000000
1324470.000000
1325029.000000
1325592.000000
1326154.000000
1326719.000000
1327283.000000
1327851.000000
1328415.000000
1328979.000000
1329543.000000
1330107.000000
1330669.000000
1331229.000000
1331787.000000
1332343.000000
1332898.000000
1333449.000000
1334000.000000
1334552.000000
1335107.000000
1335662.000000
1336218.000000
1336776.000000
1337334.000000
1337891.000000
1338448.000000
1339005.000000
1339565.000000
1340124.000000
1340687.000000
1341254.000000
1341824.000000
1342403.000000
1342988.000000
1343572.000000
1344158.000000
1344744.000000
1345334.000000
1345923.000000
1346507.000000
1347088.000000
1347668.000000
1348246.000000
1348820.000000
1349395.000000
1349969.000000
1350548.000000
1351125.000000
1351703.000000
1352284.000000
1352870.000000
1353455.000000
1354040.000000
1354628.000000
1355215.000000
1355801.000000
1356392.000000
1356982.000000
1357572.000000
1358161.000000
1358746.000000
1359323.000000
1359901.000000
1360478.000000
1361051.000000
1361622.000000
1362190.000000
1362755.000000
1363322.000000
1363891.000000
1364465.000000
1365043.000000
1365626.000000
1366214.000000
1366808.000000
1367399.000000
1367993.000000
1368589.000000
1369184.000000
1369779.000000
1370374.000000
1370975.000000
1371577.000000
1372181.000000
1372780.000000
1373384.000000
1373991.000000
1374591.000000
1375190.000000
1375791.000000
1376389.000000
1376994.000000
1377596.000000
1378198.000000
1378807.000000
1379415.000000
1380023.000000
1380627.000000
1381228.000000
1381829.000000
1382432.000000
1383032.000000
1383631.000000
1384229.000000
1384829.000000
1385424.000000
1386016.000000
1386606.000000
1387195.000000
1387783.000000
1388369.000000
1388956.000000
1389542.000000
1390137.000000
1390734.000000
1391330.000000
1391926.000000
1392519.000000
1393110.000000
1393695.000000
1394282.000000
1394865.000000
1395447.000000
1396026.000000
1396599.000000
1397173.000000
1397743.000000
1398316.000000
1398889.000000
1399461.000000
1400035.000000
1400608.000000
1401182.000000
1401756.000000
1402335.000000
1402920.000000
1403503.000000
1404091.000000
1404678.000000
1405267.000000
1405862.000000
1406455.000000
1407050.000000
1407650.000000
1408249.000000
1408849.000000
1409447.000000
1410046.000000
1410647.000000
1411248.000000
1411845.000000
1412441.000000
1413037.000000
1413631.000000
1414230.000000
1414826.000000
1415422.000000
1416018.000000
1416614.000000
1417206.000000
1417795.000000
1418383.000000
1418972.000000
1419565.000000
1420157.000000
1420748.000000
1421339.000000
1421934.000000
1422532.000000
1423135.000000
1423737.000000
1424336.000000
1424934.000000
1425537.000000
1426134.000000
1426733.000000
1427330.000000
1427934.000000
1428543.000000
1429148.000000
1429749.000000
1430351.000000
1430949.000000
1431542.000000
1432133.000000
1432724.000000
1433316.000000
1433907.000000
1434495.000000
1435080.000000
1435660.000000
1436238.000000
1436816.000000
1437393.000000
1437971.000000
1438551.000000
1439138.000000
1439721.000000
1440308.000000
1440895.000000
1441483.000000
1442078.000000
1442667.000000
1443252.000000
1443836.000000
1444424.000000
1445004.000000
1445577.000000
1446149.000000
1446718.000000
1447286.000000
1447847.000000
1448411.000000
1448977.000000
1449548.000000
1450118.000000
1450691.000000
1451267.000000
1451853.000000
1452445.000000
1453036.000000
1453630.000000
1454221.000000
1454813.000000
1455409.000000
1456001.000000
1456592.000000
1457188.000000
1457791.000000
1458398.000000
1459003.000000
1459602.000000
1460205.000000
1460809.000000
1461416.000000
1462017.000000
1462617.000000
1463219.000000
1463823.000000
1464425.000000
1465024.000000
1465629.000000
1466229.000000
1466831.000000
1467430.000000
1468030.000000
1468629.000000
1469217.000000
1469812.000000
1470399.000000
1470988.000000
1471576.000000
1472162.000000
1472750.000000
1473341.000000
1473940.000000
1474545.000000
1475152.000000
1475759.000000
1476363.000000
1476969.000000
1477574.000000
1478176.000000
1478772.000000
1479366.000000
1479964.000000
1480554.000000
1481145.000000
1481734.000000
1482326.000000
1482921.000000
1483523.000000
1484121.000000
1484721.000000
1485322.000000
1485925.000000
1486526.000000
1487126.000000
1487721.000000
1488321.000000
1488918.000000
1489514.000000
1490111.000000
1490710.000000
1491312.000000
1491916.000000
1492518.000000
1493119.000000
1493729.000000
1494337.000000
1494948.000000
1495551.000000
1496158.000000
1496766.000000
1497375.000000
1497983.000000
1498589.000000
1499202.000000
1499817.000000
1500428.000000
1501042.000000
1501657.000000
1502275.000000
1502907.000000
1503540.000000
1504170.000000
1504798.000000
1505433.000000
1506083.000000
1506726.000000
1507369.000000
1508015.000000
1508661.000000
1509303.000000
1509941.000000
1510573.000000
1511192.000000
1511823.000000
1512458.000000
1513091.000000
1513716.000000
1514344.000000
1514973.000000
1515586.000000
1516201.000000
1516818.000000
1517429.000000
1518046.000000
1518652.000000
1519267.000000
1519878.000000
1520490.000000
1521104.000000
1521710.000000
1522317.000000
1522918.000000
1523528.000000
1524138.000000
1524743.000000
1525346.000000
1525954.000000
1526561.000000
1527167.000000
1527774.000000
1528380.000000
1528982.000000
1529590.000000
1530195.000000
1530798.000000
1531399.000000
1532003.000000
1532610.000000
1533208.000000
1533804.000000
1534395.000000
1534981.000000
1535565.000000
1536148.000000
1536729.000000
1537313.000000
1537899.000000
1538489.000000
1539076.000000
1539665.000000
1540263.000000
1540862.000000
1541460.000000
1542055.000000
1542649.000000
1543241.000000
1543840.000000
1544430.000000
1545018.000000
1545603.000000
1546187.000000
1546769.000000
1547349.000000
1547928.000000
1548505.000000
1549083.000000
1549663.000000
1550243.000000
1550822.000000
1551400.000000
1551978.000000
1552558.000000
1553136.000000
1553713.000000
1554293.000000
1554876.000000
1555456.000000
1556033.000000
1556609.000000
1557186.000000
1557770.000000
1558354.000000
1558936.000000
1559517.000000
1560098.000000
1560683.000000
1561267.000000
1561849.000000
1562433.000000
1563023.000000
1563615.000000
1564221.000000
1564824.000000
1565426.000000
1566024.000000
1566620.000000
1567208.000000
1567795.000000
1568378.000000
1568959.000000
1569537.000000
1570120.000000
1570702.000000
1571282.000000
1571859.000000
1572432.000000
1573006.000000
1573581.000000
1574161.000000
1574742.000000
1575331.000000
1575925.000000
1576513.000000
1577102.000000
1577687.000000
1578275.000000
1578869.000000
1579464.000000
1580058.000000
1580657.000000
1581261.000000
1581864.000000
1582465.000000
1583055.000000
1583640.000000
1584222.000000
1584801.000000
1585373.000000
1585943.000000
1586517.000000
1587097.000000
1587684.000000
1588273.000000
1588867.000000
1589464.000000
1590066.000000
1590662.000000
1591257.000000
1591851.000000
1592443.000000
1593034.000000
1593623.000000
1594212.000000
1594799.000000
1595390.000000
1595980.000000
1596570.000000
1597162.000000
1597763.000000
1598374.000000
1598996.000000
1599621.000000
1600246.000000
1600874.000000
1601504.000000
1602132.000000
1602767.000000
1603402.000000
1604038.000000
1604666.000000
1605294.000000
1605916.000000
1606540.000000
1607171.000000
1607796.000000
1608421.000000
1609047.000000
1609673.000000
1610288.000000
1610907.000000
1611522.000000
1612156.000000
1612788.000000
1613415.000000
1614043.000000
1614679.000000
1615312.000000
1615945.000000
1616574.000000
1617206.000000
1617841.000000
1618480.000000
1619120.000000
1619760.000000
1620400.000000
1621029.000000
1621650.000000
1622266.000000
1622891.000000
1623519.000000
1624154.000000
1624787.000000
1625421.000000
1626056.000000
1626685.000000
1627315.000000
1627947.000000
1628577.000000
1629199.000000
1629816.000000
1630430.000000
1631057.000000
1631671.000000
1632294.000000
1632907.000000
1633520.000000
1634126.000000
1634728.000000
1635326.000000
1635920.000000
1636516.000000
1637105.000000
1637692.000000
1638281.000000
1638874.000000
1639464.000000
1640057.000000
1640645.000000
1641232.000000
1641820.000000
1642407.000000
1642994.000000
1643578.000000
1644166.000000
1644752.000000
1645337.000000
1645919.000000
1646504.000000
1647087.000000
1647669.000000
1648253.000000
1648836.000000
1649422.000000
1650011.000000
1650597.000000
1651183.000000
1651772.000000
1652362.000000
1652952.000000
1653537.000000
1654118.000000
1654700.000000
1655285.000000
1655874.000000
1656463.000000
1657050.000000
1657636.000000
1658226.000000
1658825.000000
1659420.000000
1660013.000000
1660609.000000
1661205.000000
1661800.000000
1662394.000000
1662987.000000
1663587.000000
1664191.000000
1664793.000000
1665393.000000
1665986.000000
1666581.000000
1667171.000000
1667755.000000
1668334.000000
1668907.000000
1669483.000000
1670063.000000
1670644.000000
1671227.000000
1671817.000000
1672417.000000
1673025.000000
1673635.000000
1674248.000000
1674864.000000
1675484.000000
1676104.000000
1676715.000000
1677320.000000
1677913.000000
1678508.000000
1679100.000000
1679701.000000
1680298.000000
1680897.000000
1681489.000000
1682088.000000
1682677.000000
1683268.000000
1683864.000000
1684455.000000
1685051.000000
1685643.000000
1686239.000000
1686834.000000
1687430.000000
1688022.000000
1688616.000000
1689215.000000
1689814.000000
1690411.000000
1691009.000000
1691613.000000
1692220.000000
1692826.000000
1693433.000000
1694041.000000
1694654.000000
1695264.000000
1695875.000000
1696482.000000
1697087.000000
1697696.000000
1698295.000000
1698896.000000
1699490.000000
1700085.000000
1700673.000000
1701276.000000
1701867.000000
1702463.000000
1703059.000000
1703660.000000
1704262.000000
1704862.000000
1705460.000000
1706057.000000
1706658.000000
1707255.000000
1707852.000000
1708450.000000
1709052.000000
1709653.000000
1710254.000000
1710857.000000
1711460.000000
1712065.000000
1712676.000000
1713282.000000
1713885.000000
1714487.000000
1715090.000000
1715691.000000
1716283.000000
1716879.000000
1717470.000000
1718069.000000
1718666.000000
1719258.000000
1719846.000000
1720435.000000
1721027.000000
1721626.000000
1722222.000000
1722820.000000
1723417.000000
1724013.000000
1724613.000000
1725209.000000
1725812.000000
1726412.000000
1727014.000000
1727620.000000
1728224.000000
1728823.000000
1729423.000000
1730028.000000
1730638.000000
1731252.000000
1731862.000000
1732474.000000
1733081.000000
1733690.000000
1734305.000000
1734917.000000
1735525.000000
1736130.000000
1736737.000000
1737344.000000
1737946.000000
1738554.000000
1739159.000000
1739766.000000
1740374.000000
1740980.000000
1741583.000000
1742189.000000
1742794.000000
1743393.000000
1743999.000000
1744595.000000
1745195.000000
1745797.000000
1746393.000000
1746987.000000
1747582.000000
1748175.000000
1748767.000000
1749360.000000
1749950.000000
1750545.000000
1751138.000000
1751725.000000
1752312.000000
1752899.000000
1753488.000000
1754071.000000
1754656.000000
1755240.000000
1755826.000000
1756411.000000
1756995.000000
1757576.000000
1758156.000000
1758731.000000
1759306.000000
1759879.000000
1760452.000000
1761021.000000
1761591.000000
1762165.000000
1762738.000000
1763309.000000
1763881.000000
1764456.000000
1765029.000000
1765599.000000
1766175.000000
1766748.000000
1767328.000000
1767909.000000
1768488.000000
1769069.000000
1769652.000000
1770231.000000
1770810.000000
1771387.000000
1771961.000000
1772537.000000
1773111.000000
1773684.000000
1774257.000000
1774829.000000
1775403.000000
1775976.000000
1776545.000000
1777112.000000
1777679.000000
1778245.000000
1778813.000000
1779380.000000
1779946.000000
1780511.000000
1781079.000000
1781653.000000
1782226.000000
1782798.000000
1783372.000000
1783950.000000
1784530.000000
1785110.000000
1785692.000000
1786273.000000
1786859.000000
1787443.000000
1788028.000000
1788613.000000
1789200.000000
1789787.000000
1790374.000000
1790956.000000
1791540.000000
1792126.000000
1792709.000000
1793291.000000
1793874.000000
1794458.000000
1795042.000000
1795625.000000
1796208.000000
1796787.000000
1797367.000000
1797945.000000
1798520.000000
1799094.000000
1799666.000000
1800238.000000
