ECG (ms)
787.000000
1571.000000
2319.000000
3067.000000
3803.000000
4531.000000
4963.000000
5831.000000
6567.000000
7286.000000
8009.000000
8758.000000
9528.000000
10330.000000
11143.000000
11960.000000
12774.000000
13586.000000
14355.000000
15118.000000
15872.000000
16609.000000
17312.000000
18016.000000
18725.000000
19456.000000
19957.000000
20876.000000
21643.000000
22369.000000
23087.000000
23790.000000
24465.000000
25124.000000
25779.000000
26595.000000
27410.000000
28204.000000
28955.000000
29679.000000
30395.000000
31106.000000
31814.000000
32325.000000
33201.000000
33933.000000
34642.000000
35332.000000
36041.000000
36498.000000
37389.000000
38146.000000
38908.000000
39681.000000
40456.000000
41229.000000
41971.000000
42401.000000
43266.000000
43981.000000
44668.000000
45351.000000
46044.000000
46693.000000
47563.000000
48335.000000
49114.000000
49915.000000
50733.000000
51540.000000
52326.000000
53079.000000
54330.000000
55046.000000
55727.000000
56407.000000
56915.000000
57759.000000
58482.000000
59240.000000
60002.000000
60818.000000
61666.000000
62491.000000
63288.000000
64079.000000
64866.000000
65648.000000
66433.000000
67228.000000
68019.000000
68804.000000
69584.000000
70331.000000
71048.000000
71759.000000
72491.000000
73275.000000
74083.000000
74900.000000
75708.000000
76516.000000
77308.000000
78090.000000
78872.000000
79644.000000
80398.000000
81154.000000
81911.000000
82684.000000
83461.000000
84236.000000
85004.000000
85745.000000
86474.000000
87196.000000
87920.000000
88661.000000
89292.000000
90176.000000
90931.000000
91692.000000
92448.000000
93196.000000
93947.000000
94678.000000
95367.000000
96045.000000
96769.000000
97352.000000
98381.000000
99264.000000
100136.000000
100973.000000
101791.000000
102603.000000
103412.000000
104208.000000
105000.000000
105808.000000
106617.000000
107458.000000
108281.000000
109115.000000
109946.000000
110759.000000
111569.000000
112377.000000
113193.000000
114005.000000
114798.000000
115546.000000
116291.000000
117041.000000
117798.000000
118575.000000
119339.000000
119774.000000
120657.000000
121372.000000
122067.000000
122776.000000
123221.000000
124034.000000
124738.000000
125563.000000
126469.000000
127412.000000
128361.000000
129277.000000
130179.000000
131047.000000
131857.000000
132639.000000
133411.000000
134200.000000
134987.000000
135798.000000
136623.000000
137442.000000
138265.000000
139068.000000
139859.000000
140648.000000
141433.000000
142211.000000
142969.000000
143713.000000
144452.000000
145177.000000
145894.000000
146330.000000
147160.000000
147855.000000
148518.000000
149180.000000
149858.000000
150570.000000
151354.000000
152171.000000
152982.000000
153775.000000
154545.000000
155288.000000
155997.000000
156696.000000
157391.000000
158026.000000
158804.000000
159514.000000
160220.000000
160927.000000
161629.000000
162341.000000
163070.000000
163801.000000
164533.000000
165264.000000
165991.000000
166701.000000
167133.000000
167983.000000
168698.000000
169388.000000
170077.000000
170573.000000
171476.000000
172264.000000
173059.000000
173848.000000
174634.000000
175432.000000
176222.000000
177000.000000
177760.000000
178514.000000
179256.000000
179984.000000
180696.000000
181408.000000
182127.000000
182861.000000
183602.000000
184343.000000
185082.000000
185826.000000
186578.000000
187329.000000
188073.000000
188824.000000
189566.000000
190309.000000
191062.000000
191810.000000
192269.000000
193194.000000
193977.000000
194727.000000
195470.000000
196209.000000
196948.000000
197681.000000
198409.000000
199144.000000
199941.000000
200750.000000
201547.000000
202348.000000
203142.000000
203927.000000
204712.000000
205484.000000
206256.000000
207015.000000
207765.000000
208505.000000
209239.000000
209715.000000
210609.000000
211351.000000
212083.000000
212820.000000
213557.000000
214286.000000
215025.000000
215779.000000
216563.000000
217351.000000
218144.000000
218926.000000
219674.000000
220405.000000
221138.000000
221882.000000
222639.000000
223386.000000
224145.000000
224896.000000
225605.000000
226042.000000
226978.000000
227785.000000
228591.000000
229388.000000
230192.000000
231006.000000
231813.000000
232630.000000
233454.000000
234277.000000
235078.000000
235872.000000
236666.000000
237456.000000
238240.000000
239040.000000
239866.000000
240687.000000
241508.000000
242347.000000
243187.000000
244007.000000
244837.000000
245664.000000
246487.000000
247299.000000
248097.000000
248890.000000
249695.000000
250478.000000
251276.000000
252617.000000
253408.000000
254178.000000
254987.000000
255809.000000
256637.000000
257453.000000
258293.000000
259134.000000
259954.000000
260743.000000
261547.000000
262362.000000
263170.000000
263951.000000
264726.000000
265487.000000
266241.000000
266775.000000
267679.000000
268438.000000
269176.000000
269915.000000
270665.000000
271132.000000
272080.000000
272884.000000
273661.000000
274421.000000
275197.000000
275976.000000
276759.000000
277538.000000
278325.000000
279117.000000
279922.000000
280741.000000
281574.000000
282390.000000
283207.000000
284004.000000
284770.000000
285515.000000
286245.000000
286950.000000
287649.000000
288366.000000
289108.000000
289873.000000
290659.000000
291450.000000
292243.000000
293048.000000
293837.000000
294625.000000
295426.000000
296215.000000
296985.000000
297745.000000
298472.000000
299161.000000
299874.000000
300647.000000
301472.000000
302310.000000
303144.000000
303995.000000
304817.000000
305629.000000
306451.000000
307285.000000
308114.000000
308934.000000
309744.000000
310531.000000
311273.000000
311958.000000
312643.000000
313400.000000
314236.000000
315108.000000
315971.000000
316817.000000
317632.000000
318404.000000
319174.000000
319931.000000
320698.000000
321472.000000
322257.000000
323029.000000
323820.000000
324604.000000
325377.000000
326164.000000
326953.000000
327749.000000
328548.000000
329345.000000
330131.000000
330907.000000
331681.000000
332446.000000
333214.000000
333964.000000
334695.000000
335424.000000
336149.000000
336891.000000
337670.000000
338475.000000
339298.000000
340128.000000
340963.000000
341763.000000
342536.000000
343306.000000
344073.000000
344836.000000
345615.000000
346401.000000
347200.000000
348011.000000
348828.000000
349631.000000
350451.000000
351285.000000
352111.000000
352941.000000
353792.000000
354633.000000
355452.000000
356287.000000
357116.000000
357940.000000
358752.000000
359557.000000
360364.000000
361165.000000
361958.000000
362756.000000
363557.000000
364357.000000
365179.000000
365993.000000
366802.000000
367608.000000
368405.000000
369196.000000
369982.000000
370786.000000
371581.000000
372367.000000
373173.000000
373997.000000
374814.000000
375620.000000
376399.000000
377184.000000
377956.000000
378716.000000
379455.000000
380174.000000
380891.000000
381643.000000
382429.000000
383250.000000
384064.000000
384852.000000
385612.000000
386361.000000
387104.000000
387839.000000
388582.000000
389332.000000
390083.000000
390814.000000
391528.000000
392243.000000
392970.000000
393700.000000
394440.000000
395173.000000
395885.000000
396595.000000
397180.000000
398075.000000
398838.000000
399580.000000
400308.000000
401022.000000
401730.000000
402384.000000
403149.000000
403845.000000
404542.000000
405232.000000
405925.000000
406614.000000
407295.000000
407986.000000
408686.000000
409400.000000
409960.000000
410867.000000
411637.000000
412408.000000
413166.000000
413925.000000
414681.000000
415427.000000
416162.000000
416885.000000
417616.000000
418353.000000
419085.000000
419812.000000
420529.000000
421250.000000
421768.000000
422567.000000
423239.000000
423925.000000
424663.000000
425459.000000
426257.000000
427057.000000
427837.000000
428603.000000
429342.000000
430083.000000
430807.000000
431534.000000
432268.000000
433003.000000
433741.000000
434511.000000
435294.000000
436071.000000
436851.000000
437628.000000
438417.000000
439198.000000
439986.000000
440770.000000
441537.000000
442294.000000
443050.000000
443807.000000
444560.000000
445302.000000
446056.000000
446812.000000
447575.000000
448331.000000
449078.000000
449821.000000
450591.000000
451375.000000
452169.000000
452959.000000
453757.000000
454545.000000
455322.000000
456080.000000
456814.000000
457536.000000
458261.000000
458995.000000
459745.000000
460500.000000
461268.000000
462050.000000
462833.000000
463605.000000
464370.000000
465111.000000
465840.000000
466265.000000
467161.000000
467857.000000
468523.000000
469212.000000
469929.000000
470729.000000
471568.000000
472406.000000
473257.000000
474101.000000
474939.000000
475770.000000
476615.000000
477427.000000
478229.000000
479012.000000
479765.000000
480515.000000
481287.000000
482068.000000
482845.000000
483622.000000
484387.000000
485131.000000
485862.000000
486602.000000
487358.000000
488126.000000
488925.000000
489731.000000
490527.000000
491306.000000
492087.000000
492862.000000
493642.000000
494413.000000
495175.000000
495924.000000
496671.000000
497208.000000
498105.000000
498861.000000
499585.000000
500305.000000
501034.000000
501766.000000
502300.000000
503125.000000
503822.000000
504595.000000
505489.000000
506364.000000
507211.000000
508035.000000
508775.000000
509473.000000
509893.000000
510755.000000
511534.000000
512308.000000
513116.000000
513951.000000
514805.000000
515666.000000
516524.000000
517346.000000
518098.000000
518801.000000
519495.000000
519948.000000
520811.000000
521535.000000
522276.000000
523033.000000
523792.000000
524547.000000
525312.000000
526061.000000
526812.000000
527548.000000
528282.000000
529031.000000
529800.000000
530567.000000
531316.000000
532058.000000
532770.000000
533444.000000
534201.000000
534930.000000
535661.000000
536394.000000
537117.000000
537824.000000
538514.000000
539190.000000
539862.000000
540552.000000
541258.000000
541965.000000
542686.000000
543122.000000
543995.000000
544726.000000
545430.000000
546141.000000
546879.000000
547624.000000
548065.000000
548957.000000
549716.000000
550435.000000
551148.000000
551867.000000
552587.000000
553318.000000
553768.000000
554635.000000
555352.000000
556052.000000
556739.000000
557422.000000
557939.000000
558813.000000
559553.000000
560288.000000
561007.000000
561707.000000
562409.000000
563104.000000
563532.000000
564342.000000
565026.000000
565700.000000
566384.000000
567091.000000
567854.000000
568288.000000
569261.000000
570086.000000
570885.000000
571682.000000
572453.000000
573204.000000
573932.000000
574649.000000
575353.000000
576041.000000
576560.000000
577392.000000
578102.000000
578804.000000
579499.000000
580206.000000
580840.000000
581681.000000
582410.000000
583145.000000
583884.000000
584617.000000
585355.000000
586102.000000
586854.000000
587596.000000
588346.000000
589102.000000
589562.000000
590388.000000
591086.000000
591778.000000
592524.000000
593339.000000
594196.000000
595071.000000
595926.000000
596740.000000
597529.000000
598302.000000
599065.000000
599823.000000
600578.000000
601333.000000
601773.000000
602666.000000
603402.000000
604109.000000
604814.000000
605559.000000
606029.000000
606998.000000
607818.000000
608612.000000
609410.000000
610214.000000
611029.000000
611873.000000
612700.000000
613511.000000
614301.000000
615086.000000
615864.000000
616646.000000
617435.000000
618240.000000
619031.000000
619837.000000
620655.000000
621465.000000
622260.000000
623042.000000
623802.000000
624545.000000
625282.000000
626035.000000
626797.000000
627562.000000
628325.000000
629081.000000
629817.000000
630533.000000
631229.000000
631916.000000
632588.000000
633257.000000
633827.000000
634692.000000
635437.000000
636195.000000
636979.000000
637783.000000
638615.000000
639464.000000
640279.000000
641079.000000
641851.000000
642618.000000
643374.000000
644119.000000
644879.000000
645662.000000
646450.000000
646904.000000
647838.000000
648628.000000
649391.000000
650151.000000
650907.000000
651666.000000
652437.000000
653195.000000
653945.000000
654693.000000
655449.000000
656216.000000
656993.000000
657780.000000
658559.000000
659090.000000
660033.000000
660826.000000
661589.000000
662337.000000
663081.000000
663563.000000
664505.000000
665314.000000
666114.000000
666859.000000
667548.000000
668229.000000
668958.000000
669740.000000
670565.000000
671375.000000
672165.000000
672934.000000
673685.000000
674444.000000
675199.000000
675963.000000
676742.000000
677513.000000
678280.000000
679047.000000
679814.000000
680566.000000
681314.000000
682058.000000
682805.000000
683536.000000
684255.000000
684960.000000
685654.000000
686330.000000
687004.000000
687670.000000
688352.000000
689076.000000
689857.000000
690644.000000
691410.000000
692185.000000
692973.000000
693765.000000
694558.000000
695344.000000
696118.000000
696880.000000
697618.000000
698335.000000
698899.000000
699782.000000
700531.000000
701276.000000
702021.000000
702762.000000
703497.000000
704245.000000
705004.000000
705783.000000
706560.000000
707328.000000
708092.000000
708841.000000
709574.000000
710294.000000
711010.000000
711713.000000
712411.000000
712872.000000
713674.000000
714344.000000
715000.000000
715667.000000
716369.000000
717119.000000
717895.000000
718689.000000
719499.000000
720299.000000
721082.000000
721849.000000
722593.000000
723324.000000
724039.000000
724618.000000
725457.000000
726147.000000
726819.000000
727492.000000
728168.000000
728882.000000
729616.000000
730388.000000
731197.000000
732050.000000
732911.000000
733747.000000
734565.000000
735385.000000
736179.000000
736979.000000
737777.000000
738579.000000
739394.000000
740202.000000
741006.000000
741781.000000
742534.000000
743304.000000
744073.000000
744854.000000
745291.000000
746197.000000
746949.000000
747657.000000
748351.000000
749070.000000
749812.000000
750591.000000
751397.000000
752193.000000
752933.000000
753641.000000
754324.000000
754984.000000
755628.000000
756260.000000
756878.000000
757490.000000
758089.000000
758685.000000
759105.000000
759800.000000
760415.000000
761033.000000
761475.000000
762412.000000
763211.000000
764046.000000
764943.000000
765757.000000
766594.000000
767536.000000
768481.000000
769431.000000
770346.000000
771220.000000
772055.000000
772863.000000
773657.000000
774447.000000
775236.000000
776028.000000
776812.000000
777599.000000
778382.000000
779154.000000
779933.000000
780705.000000
781471.000000
782234.000000
782989.000000
783727.000000
784446.000000
784895.000000
785786.000000
786528.000000
787252.000000
788007.000000
788786.000000
789338.000000
790360.000000
791222.000000
792026.000000
792792.000000
793561.000000
793996.000000
794911.000000
795666.000000
796399.000000
797153.000000
797919.000000
798401.000000
799379.000000
800225.000000
801041.000000
801854.000000
802662.000000
803473.000000
804293.000000
805104.000000
805906.000000
806700.000000
807481.000000
808248.000000
809008.000000
809785.000000
810570.000000
811367.000000
812148.000000
812934.000000
813692.000000
814449.000000
815194.000000
815931.000000
816645.000000
817367.000000
818096.000000
818853.000000
819615.000000
820372.000000
821115.000000
821849.000000
822568.000000
823258.000000
824067.000000
824854.000000
825588.000000
826278.000000
826961.000000
827570.000000
828434.000000
829197.000000
829959.000000
830711.000000
831456.000000
832185.000000
832910.000000
833618.000000
834321.000000
834992.000000
835771.000000
836536.000000
837303.000000
838068.000000
838818.000000
839561.000000
840291.000000
840793.000000
841673.000000
842392.000000
843088.000000
843784.000000
844321.000000
845219.000000
845963.000000
846677.000000
847432.000000
848204.000000
848986.000000
849752.000000
850498.000000
850929.000000
851813.000000
852565.000000
853290.000000
854011.000000
854741.000000
855464.000000
856189.000000
856922.000000
857669.000000
858409.000000
859136.000000
859630.000000
860530.000000
861286.000000
862008.000000
862726.000000
863448.000000
864185.000000
864716.000000
865664.000000
866476.000000
867265.000000
868033.000000
868777.000000
869509.000000
870230.000000
870933.000000
871630.000000
872333.000000
873055.000000
873788.000000
874496.000000
875108.000000
875921.000000
876640.000000
877375.000000
878128.000000
878922.000000
879729.000000
880539.000000
881334.000000
882138.000000
882926.000000
883707.000000
884468.000000
885224.000000
885998.000000
886809.000000
887618.000000
888437.000000
889248.000000
890056.000000
890846.000000
891612.000000
892330.000000
892763.000000
893556.000000
894257.000000
894982.000000
895754.000000
897052.000000
897820.000000
898538.000000
899268.000000
900006.000000
900795.000000
901261.000000
902284.000000
903177.000000
904036.000000
904853.000000
905657.000000
906458.000000
907272.000000
908076.000000
908863.000000
909636.000000
910409.000000
911174.000000
911935.000000
912669.000000
913153.000000
914044.000000
914790.000000
915518.000000
916247.000000
916980.000000
917709.000000
918328.000000
919236.000000
919986.000000
920729.000000
921492.000000
922280.000000
923061.000000
923836.000000
924601.000000
925340.000000
926080.000000
926829.000000
927591.000000
928371.000000
929176.000000
929977.000000
930771.000000
931549.000000
932327.000000
933107.000000
933881.000000
934650.000000
935404.000000
936138.000000
936851.000000
937433.000000
938319.000000
939069.000000
939815.000000
940549.000000
941288.000000
942019.000000
942755.000000
943312.000000
944293.000000
945140.000000
945955.000000
946749.000000
947539.000000
948325.000000
949110.000000
949890.000000
950651.000000
951405.000000
952182.000000
952979.000000
953782.000000
954596.000000
955395.000000
956180.000000
956961.000000
957752.000000
958538.000000
959320.000000
960095.000000
960824.000000
961553.000000
962093.000000
963019.000000
963823.000000
964626.000000
965408.000000
966173.000000
966920.000000
967648.000000
968096.000000
968974.000000
969728.000000
970469.000000
971223.000000
971983.000000
972747.000000
973525.000000
974287.000000
975045.000000
975534.000000
976464.000000
977239.000000
978009.000000
978778.000000
979532.000000
980261.000000
980999.000000
981443.000000
982365.000000
983147.000000
983897.000000
984625.000000
985347.000000
986048.000000
986520.000000
987389.000000
988131.000000
988866.000000
989622.000000
990394.000000
990831.000000
991669.000000
992386.000000
993136.000000
993938.000000
994757.000000
995572.000000
996358.000000
997117.000000
997841.000000
998566.000000
999282.000000
999896.000000
1000747.000000
1001468.000000
1002204.000000
1002925.000000
1003652.000000
1004376.000000
1005088.000000
1005598.000000
1006480.000000
1007227.000000
1007951.000000
1008665.000000
1009387.000000
1010105.000000
1010833.000000
1011347.000000
1012253.000000
1013030.000000
1013803.000000
1014589.000000
1015378.000000
1016181.000000
1017010.000000
1017859.000000
1018697.000000
1019519.000000
1020322.000000
1021119.000000
1021890.000000
1022649.000000
1023425.000000
1024209.000000
1025000.000000
1025778.000000
1026558.000000
1027331.000000
1028121.000000
1028926.000000
1029722.000000
1030525.000000
1031333.000000
1032126.000000
1032920.000000
1033730.000000
1034526.000000
1035332.000000
1036118.000000
1036900.000000
1037684.000000
1038482.000000
1039279.000000
1040089.000000
1040896.000000
1041710.000000
1042534.000000
1043340.000000
1044150.000000
1044961.000000
1045769.000000
1046589.000000
1047412.000000
1048230.000000
1049019.000000
1049789.000000
1050572.000000
1051350.000000
1052118.000000
1052876.000000
1053401.000000
1054302.000000
1055047.000000
1055775.000000
1056484.000000
1057000.000000
1057903.000000
1058680.000000
1059443.000000
1060207.000000
1060981.000000
1061773.000000
1062558.000000
1063322.000000
1064090.000000
1064859.000000
1065644.000000
1066466.000000
1067323.000000
1068182.000000
1069045.000000
1069888.000000
1070687.000000
1071448.000000
1071941.000000
1072895.000000
1073740.000000
1074555.000000
1075366.000000
1076139.000000
1076591.000000
1077454.000000
1078250.000000
1079060.000000
1079913.000000
1080761.000000
1081559.000000
1082366.000000
1083151.000000
1083927.000000
1084726.000000
1085524.000000
1086318.000000
1087123.000000
1087902.000000
1088685.000000
1089482.000000
1090291.000000
1091088.000000
1091888.000000
1092335.000000
1093274.000000
1094074.000000
1094841.000000
1095594.000000
1096340.000000
1097091.000000
1097697.000000
1098640.000000
1099437.000000
1100212.000000
1100995.000000
1101780.000000
1102572.000000
1103371.000000
1104156.000000
1104645.000000
1105585.000000
1106355.000000
1107093.000000
1107836.000000
1108608.000000
1109408.000000
1110193.000000
1110971.000000
1111769.000000
1112587.000000
1113389.000000
1114186.000000
1114993.000000
1115793.000000
1116256.000000
1117196.000000
1117971.000000
1118720.000000
1119474.000000
1120243.000000
1121012.000000
1121813.000000
1122611.000000
1123394.000000
1124191.000000
1124967.000000
1125713.000000
1126442.000000
1127148.000000
1127827.000000
1128513.000000
1129041.000000
1129911.000000
1130661.000000
1131393.000000
1132131.000000
1132877.000000
1133592.000000
1134042.000000
1134877.000000
1135620.000000
1136398.000000
1137212.000000
1138015.000000
1138840.000000
1139651.000000
1140452.000000
1141244.000000
1142020.000000
1142771.000000
1143512.000000
1143998.000000
1144928.000000
1145726.000000
1146521.000000
1147293.000000
1148072.000000
1148864.000000
1149663.000000
1150454.000000
1151227.000000
1151967.000000
1152698.000000
1153440.000000
1154216.000000
1154748.000000
1155728.000000
1156571.000000
1157363.000000
1158123.000000
1158854.000000
1159570.000000
1160282.000000
1161005.000000
1161767.000000
1162561.000000
1163348.000000
1164137.000000
1164903.000000
1165647.000000
1166380.000000
1167118.000000
1167865.000000
1168634.000000
1169400.000000
1170179.000000
1170941.000000
1171705.000000
1172176.000000
1173084.000000
1173840.000000
1174565.000000
1175286.000000
1176004.000000
1176622.000000
1177486.000000
1178219.000000
1178944.000000
1179657.000000
1180360.000000
1181045.000000
1181708.000000
1182381.000000
1183106.000000
1183720.000000
1184690.000000
1185528.000000
1186322.000000
1187074.000000
1187775.000000
1188457.000000
1188893.000000
1189794.000000
1190589.000000
1191402.000000
1192229.000000
1193063.000000
1193903.000000
1194756.000000
1195607.000000
1196462.000000
1197311.000000
1198148.000000
1198981.000000
1199789.000000
1200585.000000
1201370.000000
1202142.000000
1202903.000000
1203661.000000
1204410.000000
1205162.000000
1205936.000000
1206712.000000
1207481.000000
1208232.000000
1208980.000000
1209729.000000
1210492.000000
1211256.000000
1212022.000000
1212780.000000
1213521.000000
1214259.000000
1215000.000000
1215752.000000
1216533.000000
1217342.000000
1218184.000000
1219015.000000
1219865.000000
1220700.000000
1221517.000000
1222315.000000
1223085.000000
1223844.000000
1224601.000000
1225361.000000
1226116.000000
1226862.000000
1227622.000000
1228387.000000
1229186.000000
1229961.000000
1230713.000000
1231460.000000
1232198.000000
1232918.000000
1233614.000000
1234199.000000
1234952.000000
1235646.000000
1236365.000000
1237075.000000
1237799.000000
1238518.000000
1239022.000000
1239896.000000
1240631.000000
1241327.000000
1242009.000000
1242682.000000
1243364.000000
1244060.000000
1244772.000000
1245527.000000
1246271.000000
1247018.000000
1247764.000000
1248248.000000
1249157.000000
1249903.000000
1250607.000000
1251319.000000
1252047.000000
1252604.000000
1253569.000000
1254426.000000
1255273.000000
1256097.000000
1256911.000000
1257716.000000
1258533.000000
1259359.000000
1260187.000000
1261006.000000
1261796.000000
1262565.000000
1263320.000000
1264063.000000
1264798.000000
1265536.000000
1266262.000000
1266991.000000
1267735.000000
1268495.000000
1269269.000000
1270066.000000
1270876.000000
1271666.000000
1272439.000000
1273180.000000
1273901.000000
1274620.000000
1275357.000000
1276110.000000
1276867.000000
1277612.000000
1278351.000000
1279097.000000
1279855.000000
1280612.000000
1281362.000000
1282101.000000
1282829.000000
1283489.000000
1284299.000000
1285045.000000
1285812.000000
1286569.000000
1287325.000000
1288073.000000
1288564.000000
1289436.000000
1290175.000000
1290897.000000
1291616.000000
1292341.000000
1292823.000000
1293731.000000
1294509.000000
1295267.000000
1296016.000000
1296757.000000
1297500.000000
1297941.000000
1298823.000000
1299553.000000
1300244.000000
1300936.000000
1301406.000000
1302292.000000
1303045.000000
1303812.000000
1304577.000000
1305356.000000
1306143.000000
1306909.000000
1307344.000000
1308248.000000
1309009.000000
1309724.000000
1310430.000000
1310906.000000
1311799.000000
1312569.000000
1313332.000000
1314121.000000
1314908.000000
1315688.000000
1316448.000000
1317207.000000
1317679.000000
1318581.000000
1319327.000000
1320044.000000
1320754.000000
1321178.000000
1321981.000000
1322666.000000
1323329.000000
1324006.000000
1324583.000000
1325511.000000
1326318.000000
1327137.000000
1327970.000000
1328805.000000
1329638.000000
1330448.000000
1331224.000000
1331997.000000
1332741.000000
1333484.000000
1334038.000000
1334974.000000
1335775.000000
1336550.000000
1337319.000000
1338076.000000
1338832.000000
1339263.000000
1340166.000000
1340937.000000
1341676.000000
1342404.000000
1343129.000000
1343879.000000
1344657.000000
1345316.000000
1346290.000000
1347097.000000
1347867.000000
1348602.000000
1349334.000000
1350062.000000
1350493.000000
1351349.000000
1352065.000000
1352763.000000
1353459.000000
1353888.000000
1354779.000000
1355524.000000
1356244.000000
1356988.000000
1357779.000000
1358611.000000
1359444.000000
1360272.000000
1361109.000000
1361922.000000
1362721.000000
1363527.000000
1364864.000000
1365634.000000
1366349.000000
1367081.000000
1367540.000000
1368506.000000
1369352.000000
1370186.000000
1371026.000000
1371866.000000
1372697.000000
1373516.000000
1374325.000000
1375123.000000
1375900.000000
1376669.000000
1377431.000000
1378172.000000
1378882.000000
1379356.000000
1380227.000000
1380968.000000
1381694.000000
1382433.000000
1383181.000000
1383927.000000
1384438.000000
1385356.000000
1386114.000000
1386825.000000
1387525.000000
1387969.000000
1388840.000000
1389577.000000
1390309.000000
1391061.000000
1391885.000000
1392737.000000
1393551.000000
1394360.000000
1395176.000000
1395967.000000
1396705.000000
1397405.000000
1397870.000000
1398849.000000
1399686.000000
1400503.000000
1401337.000000
1402164.000000
1402976.000000
1403803.000000
1404620.000000
1405413.000000
1406188.000000
1406952.000000
1407698.000000
1408463.000000
1409222.000000
1409993.000000
1410762.000000
1411514.000000
1412254.000000
1412874.000000
1413716.000000
1414461.000000
1415221.000000
1415984.000000
1416741.000000
1417489.000000
1418234.000000
1418982.000000
1419720.000000
1420405.000000
1421215.000000
1421977.000000
1422737.000000
1423504.000000
1424273.000000
1425036.000000
1425785.000000
1426357.000000
1427307.000000
1428122.000000
1428901.000000
1429650.000000
1430374.000000
1430874.000000
1431756.000000
1432487.000000
1433193.000000
1433618.000000
1434485.000000
1435223.000000
1435953.000000
1436687.000000
1437383.000000
1437850.000000
1438744.000000
1439561.000000
1440405.000000
1441277.000000
1442138.000000
1442986.000000
1443815.000000
1444631.000000
1445432.000000
1446243.000000
1447051.000000
1447859.000000
1448671.000000
1449467.000000
1450258.000000
1451034.000000
1451811.000000
1452585.000000
1453352.000000
1454093.000000
1454815.000000
1455513.000000
1456114.000000
1456814.000000
1457482.000000
1458217.000000
1458991.000000
1459780.000000
1460560.000000
1461333.000000
1462097.000000
1462846.000000
1463578.000000
1464321.000000
1465059.000000
1465533.000000
1466472.000000
1467263.000000
1467986.000000
1468718.000000
1469464.000000
1469917.000000
1470860.000000
1471663.000000
1472437.000000
1473197.000000
1473960.000000
1474734.000000
1475498.000000
1476278.000000
1477104.000000
1477912.000000
1478713.000000
1479505.000000
1480295.000000
1481081.000000
1481853.000000
1482623.000000
1483383.000000
1484138.000000
1484888.000000
1485650.000000
1486125.000000
1487101.000000
1487952.000000
1488764.000000
1489535.000000
1490296.000000
1491034.000000
1491784.000000
1492215.000000
1493121.000000
1493887.000000
1494611.000000
1495333.000000
1496071.000000
1496558.000000
1497527.000000
1498362.000000
1499167.000000
1499955.000000
1500714.000000
1501451.000000
1502194.000000
1502924.000000
1503523.000000
1504448.000000
1505223.000000
1505985.000000
1506741.000000
1507486.000000
1508228.000000
1508705.000000
1509620.000000
1510401.000000
1511157.000000
1511929.000000
1512695.000000
1513448.000000
1514198.000000
1514946.000000
1515687.000000
1516430.000000
1516889.000000
1517771.000000
1518495.000000
1519197.000000
1519884.000000
1520337.000000
1521186.000000
1521900.000000
1522610.000000
1523334.000000
1524064.000000
1524516.000000
1525430.000000
1526205.000000
1526932.000000
1527633.000000
1528345.000000
1528891.000000
1529797.000000
1530568.000000
1531319.000000
1532062.000000
1532803.000000
1533539.000000
1534106.000000
1535040.000000
1535824.000000
1536571.000000
1537302.000000
1538033.000000
1538471.000000
1539372.000000
1540124.000000
1540856.000000
1541579.000000
1542295.000000
1542889.000000
1543798.000000
1544574.000000
1545370.000000
1546174.000000
1546969.000000
1547786.000000
1548593.000000
1549417.000000
1550237.000000
1551034.000000
1551805.000000
1552569.000000
1553343.000000
1553793.000000
1554737.000000
1555516.000000
1556268.000000
1557017.000000
1557775.000000
1558548.000000
1559003.000000
1559887.000000
1560602.000000
1561275.000000
1561965.000000
1562674.000000
1563513.000000
1564323.000000
1565139.000000
1565954.000000
1566758.000000
1567545.000000
1568302.000000
1569044.000000
1569754.000000
1570431.000000
1570888.000000
1571729.000000
1572429.000000
1573135.000000
1573891.000000
1574654.000000
1575419.000000
1576192.000000
1576962.000000
1577720.000000
1578459.000000
1579186.000000
1579906.000000
1580623.000000
1581348.000000
1582100.000000
1582879.000000
1583681.000000
1584493.000000
1585308.000000
1586122.000000
1586938.000000
1587444.000000
1588414.000000
1589237.000000
1590033.000000
1590775.000000
1591469.000000
1591936.000000
1592859.000000
1593673.000000
1594503.000000
1595364.000000
1596249.000000
1597124.000000
1597999.000000
1598859.000000
1599703.000000
1600531.000000
1601355.000000
1602173.000000
1602985.000000
1603802.000000
1604639.000000
1605473.000000
1606302.000000
1606774.000000
1607774.000000
1608651.000000
1609513.000000
1610342.000000
1611182.000000
1611997.000000
1612831.000000
1613697.000000
1614561.000000
1615433.000000
1616298.000000
1617129.000000
1617962.000000
1618824.000000
1619684.000000
1621112.000000
1621985.000000
1622823.000000
1623685.000000
1624557.000000
1625432.000000
1626312.000000
1627176.000000
1628018.000000
1628829.000000
1629610.000000
1630364.000000
1631087.000000
1631699.000000
1632526.000000
1633270.000000
1634033.000000
1634784.000000
1635549.000000
1636032.000000
1636977.000000
1637761.000000
1638517.000000
1639254.000000
1639691.000000
1640598.000000
1641369.000000
1642115.000000
1642874.000000
1643635.000000
1644405.000000
1644871.000000
1645804.000000
1646607.000000
1647359.000000
1648116.000000
1648882.000000
1649666.000000
1650484.000000
1651304.000000
1652110.000000
1652896.000000
1653669.000000
1654442.000000
1655215.000000
1655977.000000
1656725.000000
1657482.000000
1658260.000000
1659002.000000
1659729.000000
1660164.000000
1660961.000000
1661656.000000
1662335.000000
1663024.000000
1663509.000000
1664395.000000
1665162.000000
1665944.000000
1666724.000000
1667513.000000
1668293.000000
1669072.000000
1669827.000000
1670594.000000
1671064.000000
1672001.000000
1672793.000000
1673577.000000
1674359.000000
1675186.000000
1675631.000000
1676601.000000
1677482.000000
1678329.000000
1679197.000000
1680093.000000
1680962.000000
1681851.000000
1682754.000000
1683589.000000
1684066.000000
1685040.000000
1685902.000000
1686708.000000
1687478.000000
1688776.000000
1689535.000000
1690257.000000
1690979.000000
1691505.000000
1692417.000000
1693184.000000
1693945.000000
1694692.000000
1695445.000000
1696184.000000
1696905.000000
1697621.000000
1698345.000000
1699071.000000
1699808.000000
1700553.000000
1701307.000000
1702034.000000
1702728.000000
1703410.000000
1704123.000000
1704890.000000
1705669.000000
1706448.000000
1707263.000000
1708084.000000
1708911.000000
1709720.000000
1710509.000000
1711265.000000
1711999.000000
1712718.000000
1713430.000000
1714150.000000
1714746.000000
1715638.000000
1716400.000000
1717158.000000
1717908.000000
1718671.000000
1719419.000000
1719903.000000
1720808.000000
1721554.000000
1722269.000000
1722987.000000
1723713.000000
1724454.000000
1725222.000000
1725998.000000
1726775.000000
1727558.000000
1728317.000000
1729057.000000
1729741.000000
1730503.000000
1731206.000000
1731923.000000
1732665.000000
1733429.000000
1734205.000000
1734994.000000
1735788.000000
1736561.000000
1737036.000000
1737977.000000
1738764.000000
1739502.000000
1740210.000000
1740915.000000
1741610.000000
1742321.000000
1743076.000000
1743844.000000
1744675.000000
1745540.000000
1746399.000000
1747240.000000
1748070.000000
1748879.000000
1749676.000000
1750435.000000
1750923.000000
1751858.000000
1752671.000000
1753460.000000
1754236.000000
1755022.000000
1755818.000000
1756629.000000
1757436.000000
1758245.000000
1759037.000000
1759826.000000
1760601.000000
1761375.000000
1761848.000000
1762771.000000
1763559.000000
1764323.000000
1765070.000000
1765814.000000
1766575.000000
1767324.000000
1768060.000000
1768780.000000
1769516.000000
1770249.000000
1770976.000000
1771727.000000
1772461.000000
1773144.000000
1773635.000000
1774557.000000
1775391.000000
1776236.000000
1777058.000000
1777860.000000
1778632.000000
1779375.000000
1780116.000000
1780861.000000
1781636.000000
1782173.000000
1783140.000000
1783956.000000
1784724.000000
1785508.000000
1786291.000000
1787095.000000
1787919.000000
1788736.000000
1789557.000000
1790367.000000
1791157.000000
1791914.000000
1792673.000000
1793231.000000
1794217.000000
1795038.000000
1795829.000000
1796619.000000
1797409.000000
1798197.000000
1798664.000000
1799625.000000
