ECG (ms)
150.000000
1100.000000
2006.000000
2926.000000
3880.000000
4830.000000
5763.000000
6727.000000
7661.000000
8584.000000
9518.000000
10407.000000
11325.000000
12267.000000
13193.000000
14099.000000
15031.000000
15973.000000
16864.000000
17786.000000
18731.000000
19643.000000
20588.000000
21515.000000
22402.000000
23311.000000
24227.000000
25147.000000
26135.000000
27133.000000
28101.000000
29111.000000
30105.000000
31053.000000
32011.000000
32927.000000
33812.000000
34706.000000
35600.000000
36513.000000
37490.000000
38486.000000
39477.000000
40423.000000
41384.000000
42351.000000
43258.000000
44177.000000
45126.000000
46064.000000
47045.000000
48060.000000
49031.000000
49972.000000
50935.000000
51896.000000
52817.000000
53760.000000
54721.000000
55648.000000
56582.000000
57543.000000
58494.000000
59468.000000
60471.000000
61435.000000
62419.000000
63415.000000
64403.000000
65393.000000
66327.000000
67269.000000
68219.000000
69131.000000
70086.000000
71090.000000
72063.000000
73087.000000
74115.000000
75076.000000
76049.000000
77035.000000
77954.000000
78877.000000
79809.000000
80740.000000
81742.000000
82778.000000
83768.000000
84787.000000
85764.000000
86709.000000
87675.000000
88598.000000
89527.000000
90465.000000
91362.000000
92272.000000
93215.000000
94152.000000
95075.000000
96038.000000
96995.000000
97913.000000
98845.000000
99771.000000
100674.000000
101615.000000
102576.000000
103521.000000
104497.000000
105468.000000
106404.000000
107357.000000
108315.000000
109226.000000
110170.000000
111152.000000
112092.000000
113067.000000
114067.000000
115019.000000
116004.000000
117002.000000
117968.000000
118985.000000
119988.000000
120948.000000
121926.000000
122878.000000
123814.000000
124787.000000
125773.000000
126730.000000
127719.000000
128692.000000
129609.000000
130527.000000
131446.000000
132340.000000
133280.000000
134266.000000
135230.000000
136212.000000
137202.000000
138127.000000
139066.000000
140033.000000
140957.000000
141881.000000
142846.000000
143817.000000
144772.000000
145772.000000
146773.000000
147725.000000
148681.000000
149656.000000
150630.000000
151610.000000
152553.000000
153507.000000
154491.000000
155467.000000
156396.000000
157353.000000
158339.000000
159286.000000
160219.000000
161201.000000
162208.000000
163180.000000
164181.000000
165197.000000
166163.000000
167150.000000
168143.000000
169092.000000
170072.000000
171101.000000
172095.000000
173040.000000
174011.000000
174977.000000
175897.000000
176856.000000
177842.000000
178790.000000
179774.000000
180787.000000
181760.000000
182743.000000
183737.000000
184674.000000
185619.000000
186576.000000
187512.000000
188430.000000
189391.000000
190376.000000
191315.000000
192292.000000
193262.000000
194165.000000
195083.000000
196026.000000
196931.000000
197865.000000
198832.000000
199774.000000
200712.000000
201690.000000
202644.000000
203575.000000
204525.000000
205456.000000
206334.000000
207238.000000
208155.000000
209039.000000
209965.000000
210923.000000
211884.000000
212835.000000
213826.000000
214797.000000
215730.000000
216677.000000
217627.000000
218535.000000
219460.000000
220388.000000
221291.000000
222250.000000
223244.000000
224194.000000
225161.000000
226138.000000
227058.000000
227984.000000
228930.000000
229840.000000
230756.000000
231709.000000
232634.000000
233571.000000
234530.000000
235461.000000
236385.000000
237351.000000
238310.000000
239231.000000
240169.000000
241108.000000
242008.000000
242928.000000
243877.000000
244801.000000
245755.000000
246740.000000
247687.000000
248632.000000
249595.000000
250565.000000
251518.000000
252505.000000
253503.000000
254465.000000
255457.000000
256460.000000
257415.000000
258362.000000
259341.000000
260323.000000
261283.000000
262278.000000
263301.000000
264279.000000
265273.000000
266273.000000
267234.000000
268193.000000
269147.000000
270057.000000
270992.000000
271963.000000
272901.000000
273873.000000
274845.000000
275769.000000
276714.000000
277664.000000
278589.000000
279522.000000
280469.000000
281388.000000
282351.000000
283326.000000
284289.000000
285278.000000
286249.000000
287194.000000
288155.000000
289120.000000
290064.000000
291039.000000
292013.000000
292980.000000
293976.000000
294949.000000
295904.000000
296883.000000
297824.000000
298756.000000
299725.000000
300693.000000
301653.000000
302642.000000
303600.000000
304549.000000
305532.000000
306481.000000
307435.000000
308408.000000
309341.000000
310295.000000
311286.000000
312252.000000
313234.000000
314233.000000
315183.000000
316139.000000
317121.000000
318070.000000
318991.000000
319945.000000
320925.000000
321916.000000
322854.000000
323789.000000
324739.000000
325659.000000
326543.000000
327465.000000
328437.000000
329385.000000
330369.000000
331369.000000
332296.000000
333210.000000
334127.000000
335011.000000
335892.000000
336845.000000
337813.000000
338766.000000
339785.000000
340797.000000
341758.000000
342735.000000
343710.000000
344628.000000
345566.000000
346536.000000
347459.000000
348414.000000
349401.000000
350343.000000
351312.000000
352309.000000
353248.000000
354178.000000
355116.000000
356011.000000
356906.000000
357857.000000
358870.000000
359831.000000
360821.000000
361797.000000
362731.000000
363681.000000
364619.000000
365577.000000
366490.000000
367428.000000
368381.000000
369299.000000
370234.000000
371184.000000
372123.000000
373015.000000
373862.000000
374684.000000
375532.000000
376448.000000
377413.000000
378308.000000
379155.000000
380005.000000
380917.000000
381848.000000
382778.000000
383755.000000
384753.000000
385722.000000
386738.000000
387765.000000
388750.000000
389756.000000
390745.000000
391707.000000
392720.000000
393746.000000
394728.000000
395751.000000
396789.000000
397778.000000
398796.000000
399821.000000
400794.000000
401778.000000
402772.000000
403722.000000
404643.000000
405617.000000
406612.000000
407607.000000
408614.000000
409564.000000
410544.000000
411509.000000
412422.000000
413371.000000
414340.000000
415289.000000
416257.000000
417259.000000
418238.000000
419216.000000
420197.000000
421145.000000
422060.000000
423010.000000
423968.000000
424900.000000
425874.000000
426880.000000
427869.000000
428854.000000
429847.000000
430813.000000
431753.000000
432738.000000
433732.000000
434690.000000
435670.000000
436664.000000
437647.000000
438615.000000
439532.000000
440413.000000
441301.000000
442231.000000
443234.000000
444239.000000
445256.000000
446222.000000
447167.000000
448161.000000
449175.000000
450148.000000
451102.000000
452102.000000
453127.000000
454111.000000
455076.000000
456088.000000
457110.000000
458136.000000
459133.000000
460141.000000
461172.000000
462163.000000
463141.000000
464138.000000
465128.000000
466112.000000
467114.000000
468114.000000
469086.000000
470071.000000
471043.000000
471994.000000
472961.000000
473914.000000
474852.000000
475825.000000
476797.000000
477742.000000
478720.000000
479711.000000
480658.000000
481580.000000
482513.000000
483461.000000
484378.000000
485338.000000
486329.000000
487296.000000
488258.000000
489199.000000
490123.000000
490993.000000
491836.000000
492748.000000
493793.000000
494857.000000
495897.000000
496902.000000
497867.000000
498786.000000
499728.000000
500703.000000
501668.000000
502581.000000
503525.000000
504503.000000
505444.000000
506394.000000
507363.000000
508319.000000
509252.000000
510213.000000
511195.000000
512146.000000
513094.000000
514076.000000
515037.000000
515979.000000
516945.000000
517918.000000
518849.000000
519806.000000
520778.000000
521720.000000
522685.000000
523671.000000
524628.000000
525593.000000
526574.000000
527551.000000
528506.000000
529484.000000
530460.000000
531411.000000
532395.000000
533396.000000
534350.000000
535319.000000
536271.000000
537179.000000
538041.000000
538903.000000
539824.000000
540830.000000
541819.000000
542764.000000
543733.000000
544681.000000
545595.000000
546534.000000
547506.000000
548455.000000
549413.000000
550375.000000
551335.000000
552322.000000
553330.000000
554309.000000
555268.000000
556254.000000
557243.000000
558199.000000
559181.000000
560165.000000
561122.000000
562107.000000
563107.000000
564072.000000
565059.000000
566049.000000
566991.000000
567903.000000
568834.000000
569792.000000
570736.000000
571688.000000
572678.000000
573667.000000
574611.000000
575575.000000
576546.000000
577476.000000
578379.000000
579317.000000
580298.000000
581249.000000
582235.000000
583243.000000
584222.000000
585206.000000
586206.000000
587185.000000
588125.000000
589092.000000
590080.000000
591064.000000
592054.000000
593013.000000
593918.000000
594836.000000
595783.000000
596744.000000
597674.000000
598566.000000
599492.000000
600453.000000
601399.000000
602294.000000
603217.000000
604156.000000
605050.000000
605913.000000
606822.000000
607776.000000
608722.000000
609682.000000
610662.000000
611595.000000
612523.000000
613463.000000
614414.000000
615327.000000
616245.000000
617190.000000
618141.000000
619067.000000
620038.000000
621020.000000
621954.000000
622877.000000
623807.000000
624721.000000
625674.000000
626695.000000
627705.000000
628697.000000
629713.000000
630688.000000
631618.000000
632550.000000
633481.000000
634381.000000
635298.000000
636242.000000
637171.000000
638084.000000
639049.000000
640020.000000
640955.000000
641911.000000
642890.000000
643850.000000
644763.000000
645692.000000
646645.000000
647579.000000
648546.000000
649547.000000
650529.000000
651477.000000
652450.000000
653426.000000
654368.000000
655345.000000
656347.000000
657284.000000
658249.000000
659234.000000
660189.000000
661184.000000
662228.000000
663227.000000
664244.000000
665271.000000
666232.000000
667221.000000
668204.000000
669140.000000
670103.000000
671047.000000
671971.000000
672939.000000
673939.000000
674904.000000
675872.000000
676871.000000
677856.000000
678800.000000
679769.000000
680736.000000
681669.000000
682605.000000
683600.000000
684612.000000
685583.000000
686528.000000
687508.000000
688498.000000
689450.000000
690389.000000
691351.000000
692326.000000
693260.000000
694178.000000
695120.000000
696077.000000
697008.000000
697968.000000
698961.000000
699923.000000
700860.000000
701817.000000
702781.000000
703717.000000
704663.000000
705639.000000
706604.000000
707544.000000
708515.000000
709499.000000
710440.000000
711384.000000
712359.000000
713312.000000
714236.000000
715189.000000
716158.000000
717116.000000
718100.000000
719089.000000
720044.000000
721007.000000
721978.000000
722900.000000
723825.000000
724778.000000
725724.000000
726647.000000
727603.000000
728578.000000
729532.000000
730494.000000
731460.000000
732372.000000
733282.000000
734224.000000
735212.000000
736160.000000
737156.000000
738172.000000
739128.000000
740099.000000
741068.000000
741993.000000
742912.000000
743844.000000
744783.000000
745697.000000
746661.000000
747669.000000
748628.000000
749597.000000
750569.000000
751503.000000
752465.000000
753454.000000
754389.000000
755340.000000
756299.000000
757246.000000
758194.000000
759178.000000
760149.000000
761137.000000
762145.000000
763115.000000
764078.000000
765056.000000
766014.000000
766949.000000
767904.000000
768856.000000
769788.000000
770763.000000
771761.000000
772724.000000
773721.000000
774732.000000
775710.000000
776697.000000
777715.000000
778739.000000
779751.000000
780721.000000
781673.000000
782662.000000
783669.000000
784651.000000
785611.000000
786594.000000
787552.000000
788501.000000
789510.000000
790503.000000
791459.000000
792461.000000
793483.000000
794463.000000
795453.000000
796444.000000
797428.000000
798404.000000
799375.000000
800294.000000
801239.000000
802193.000000
803122.000000
804096.000000
805121.000000
806124.000000
807165.000000
808219.000000
809254.000000
810287.000000
811256.000000
812184.000000
813143.000000
814144.000000
815119.000000
816135.000000
817177.000000
818199.000000
819147.000000
820036.000000
820899.000000
821824.000000
822869.000000
823943.000000
825006.000000
826063.000000
827067.000000
828004.000000
828952.000000
829959.000000
831002.000000
832062.000000
833097.000000
834082.000000
835078.000000
836106.000000
837140.000000
838173.000000
839200.000000
840160.000000
841117.000000
842096.000000
843110.000000
844146.000000
845181.000000
846231.000000
847229.000000
848242.000000
849264.000000
850253.000000
851208.000000
852196.000000
853183.000000
854144.000000
855104.000000
856114.000000
857127.000000
858091.000000
859044.000000
860027.000000
861005.000000
861991.000000
862931.000000
863875.000000
864846.000000
865818.000000
866768.000000
867776.000000
868824.000000
869830.000000
870843.000000
871849.000000
872800.000000
873759.000000
874733.000000
875693.000000
876675.000000
877698.000000
878713.000000
879698.000000
880723.000000
881734.000000
882695.000000
883673.000000
884661.000000
885621.000000
886618.000000
887644.000000
888633.000000
889614.000000
890615.000000
891601.000000
892546.000000
893522.000000
894522.000000
895493.000000
896499.000000
897531.000000
898515.000000
899520.000000
900538.000000
901551.000000
902554.000000
903493.000000
904431.000000
905414.000000
906396.000000
907356.000000
908349.000000
909349.000000
910310.000000
911283.000000
912278.000000
913244.000000
914191.000000
915153.000000
916142.000000
917085.000000
918036.000000
919033.000000
920046.000000
921024.000000
922000.000000
922987.000000
923942.000000
924879.000000
925852.000000
926823.000000
927756.000000
928728.000000
929727.000000
930688.000000
931678.000000
932678.000000
933620.000000
934589.000000
935587.000000
936549.000000
937533.000000
938538.000000
939514.000000
940464.000000
941440.000000
942420.000000
943374.000000
944374.000000
945380.000000
946337.000000
947329.000000
948356.000000
949344.000000
950349.000000
951378.000000
952385.000000
953393.000000
954412.000000
955411.000000
956402.000000
957420.000000
958417.000000
959379.000000
960380.000000
961392.000000
962370.000000
963296.000000
964240.000000
965216.000000
966160.000000
967092.000000
968079.000000
969111.000000
970098.000000
971059.000000
972040.000000
973000.000000
973928.000000
974896.000000
975904.000000
976876.000000
977907.000000
978962.000000
979995.000000
981009.000000
981948.000000
982904.000000
983866.000000
984827.000000
985771.000000
986775.000000
987801.000000
988781.000000
989786.000000
990806.000000
991784.000000
992697.000000
993628.000000
994587.000000
995527.000000
996459.000000
997458.000000
998490.000000
999485.000000
1000493.000000
1001519.000000
1002502.000000
1003453.000000
1004414.000000
1005371.000000
1006296.000000
1007279.000000
1008300.000000
1009318.000000
1010271.000000
1011228.000000
1012192.000000
1013173.000000
1014120.000000
1015072.000000
1016059.000000
1017075.000000
1018112.000000
1019096.000000
1020069.000000
1021059.000000
1022065.000000
1023016.000000
1024009.000000
1025034.000000
1026032.000000
1027017.000000
1027994.000000
1028929.000000
1029835.000000
1030786.000000
1031795.000000
1032789.000000
1033835.000000
1034895.000000
1035906.000000
1036940.000000
1037977.000000
1038944.000000
1039914.000000
1040898.000000
1041873.000000
1042851.000000
1043890.000000
1044931.000000
1045942.000000
1046971.000000
1047986.000000
1048969.000000
1049910.000000
1050832.000000
1051786.000000
1052816.000000
1053820.000000
1054850.000000
1055914.000000
1056965.000000
1057954.000000
1058925.000000
1059903.000000
1060883.000000
1061824.000000
1062772.000000
1063777.000000
1064825.000000
1065835.000000
1066879.000000
1067924.000000
1068924.000000
1069951.000000
1070983.000000
1071961.000000
1072942.000000
1073954.000000
1074920.000000
1075911.000000
1076905.000000
1077875.000000
1078885.000000
1079899.000000
1080849.000000
1081806.000000
1082785.000000
1083763.000000
1084729.000000
1085725.000000
1086738.000000
1087708.000000
1088702.000000
1089712.000000
1090697.000000
1091665.000000
1092663.000000
1093663.000000
1094616.000000
1095592.000000
1096605.000000
1097576.000000
1098550.000000
1099535.000000
1100495.000000
1101387.000000
1102234.000000
1103099.000000
1104062.000000
1105113.000000
1106191.000000
1107239.000000
1108236.000000
1109246.000000
1110253.000000
1111241.000000
1112184.000000
1113151.000000
1114132.000000
1115101.000000
1116112.000000
1117153.000000
1118187.000000
1119182.000000
1120215.000000
1121249.000000
1122254.000000
1123234.000000
1124233.000000
1125244.000000
1126217.000000
1127216.000000
1128234.000000
1129235.000000
1130204.000000
1131187.000000
1132189.000000
1133187.000000
1134190.000000
1135151.000000
1136127.000000
1137124.000000
1138092.000000
1139073.000000
1140078.000000
1141046.000000
1141976.000000
1142942.000000
1143909.000000
1144846.000000
1145824.000000
1146832.000000
1147810.000000
1148805.000000
1149819.000000
1150816.000000
1151756.000000
1152704.000000
1153677.000000
1154639.000000
1155597.000000
1156588.000000
1157550.000000
1158500.000000
1159492.000000
1160478.000000
1161448.000000
1162459.000000
1163464.000000
1164417.000000
1165374.000000
1166351.000000
1167282.000000
1168231.000000
1169215.000000
1170232.000000
1171226.000000
1172236.000000
1173275.000000
1174283.000000
1175265.000000
1176276.000000
1177267.000000
1178213.000000
1179177.000000
1180161.000000
1181114.000000
1182090.000000
1183102.000000
1184086.000000
1185055.000000
1186055.000000
1187051.000000
1188009.000000
1188973.000000
1189972.000000
1190946.000000
1191920.000000
1192924.000000
1193906.000000
1194848.000000
