ECG (ms)
368.000000
1363.000000
2343.000000
3298.000000
4254.000000
5229.000000
6218.000000
7183.000000
8184.000000
9239.000000
10250.000000
11200.000000
12117.000000
13090.000000
14113.000000
15163.000000
16159.000000
17098.000000
18053.000000
19081.000000
20141.000000
21156.000000
22190.000000
23196.000000
24160.000000
25043.000000
25891.000000
26797.000000
27803.000000
28879.000000
29924.000000
30950.000000
31956.000000
32958.000000
33954.000000
34919.000000
35913.000000
36963.000000
37952.000000
38881.000000
39853.000000
40873.000000
41945.000000
42956.000000
43919.000000
44897.000000
45891.000000
46861.000000
47857.000000
48851.000000
49860.000000
50826.000000
51726.000000
52626.000000
53609.000000
54678.000000
55719.000000
56729.000000
57648.000000
58607.000000
59627.000000
60713.000000
61717.000000
62719.000000
63819.000000
64860.000000
65853.000000
66774.000000
67666.000000
68666.000000
69754.000000
70845.000000
71913.000000
72962.000000
73963.000000
74934.000000
75966.000000
77049.000000
78119.000000
79160.000000
80216.000000
81213.000000
82173.000000
83119.000000
84077.000000
85128.000000
86260.000000
87342.000000
88438.000000
89504.000000
90531.000000
91522.000000
92502.000000
93470.000000
94463.000000
95520.000000
96541.000000
97563.000000
98564.000000
99535.000000
100493.000000
101410.000000
102348.000000
103352.000000
104438.000000
105483.000000
106523.000000
107526.000000
108503.000000
109458.000000
110370.000000
111232.000000
112103.000000
113064.000000
114075.000000
115066.000000
116072.000000
117041.000000
117972.000000
118876.000000
119774.000000
120732.000000
121794.000000
122805.000000
123825.000000
124812.000000
125810.000000
126822.000000
127771.000000
128634.000000
129480.000000
130448.000000
131558.000000
132612.000000
133663.000000
134656.000000
135610.000000
136509.000000
137369.000000
138252.000000
139257.000000
140329.000000
141368.000000
142415.000000
143421.000000
144372.000000
145268.000000
146172.000000
147132.000000
148175.000000
149191.000000
150221.000000
151203.000000
152187.000000
153215.000000
154214.000000
155208.000000
156141.000000
157066.000000
158050.000000
159118.000000
160109.000000
161055.000000
161977.000000
162868.000000
163787.000000
164797.000000
165892.000000
166944.000000
167993.000000
169007.000000
169984.000000
170893.000000
171769.000000
172742.000000
173767.000000
174816.000000
175822.000000
176822.000000
177828.000000
178810.000000
179755.000000
180672.000000
181652.000000
182750.000000
183810.000000
184864.000000
185851.000000
186807.000000
187775.000000
188765.000000
189746.000000
190712.000000
191767.000000
192804.000000
193844.000000
194859.000000
195867.000000
196889.000000
197849.000000
198762.000000
199693.000000
200707.000000
201806.000000
202838.000000
203876.000000
204843.000000
205774.000000
206742.000000
207775.000000
208886.000000
209940.000000
210994.000000
212030.000000
213012.000000
213957.000000
214980.000000
216065.000000
217111.000000
218157.000000
219202.000000
220270.000000
221355.000000
222432.000000
223532.000000
224610.000000
225682.000000
226784.000000
227821.000000
228882.000000
229998.000000
231061.000000
232088.000000
233136.000000
234209.000000
235225.000000
236169.000000
237119.000000
238196.000000
239291.000000
240351.000000
241430.000000
242469.000000
243560.000000
244614.000000
245647.000000
246597.000000
247574.000000
248556.000000
249543.000000
250463.000000
251317.000000
252189.000000
253257.000000
254375.000000
255448.000000
256531.000000
257535.000000
258507.000000
259508.000000
260533.000000
261538.000000
262530.000000
263521.000000
264542.000000
265664.000000
266710.000000
267766.000000
268825.000000
269908.000000
270969.000000
272009.000000
273034.000000
274028.000000
275059.000000
276159.000000
277190.000000
278276.000000
279348.000000
280425.000000
281404.000000
282388.000000
283433.000000
284511.000000
285566.000000
286542.000000
287487.000000
288524.000000
289598.000000
290682.000000
291697.000000
292748.000000
293839.000000
294838.000000
295841.000000
296882.000000
297910.000000
298899.000000
299892.000000
300957.000000
302091.000000
303173.000000
304200.000000
305175.000000
306191.000000
307256.000000
308352.000000
309395.000000
310443.000000
311483.000000
312512.000000
313591.000000
314644.000000
315702.000000
316785.000000
317835.000000
318897.000000
319973.000000
321007.000000
322065.000000
323167.000000
324200.000000
325155.000000
326116.000000
327189.000000
328320.000000
329397.000000
330505.000000
331597.000000
332677.000000
333711.000000
334731.000000
335797.000000
336891.000000
337991.000000
339033.000000
340031.000000
341032.000000
342069.000000
343170.000000
344221.000000
345213.000000
346202.000000
347215.000000
348220.000000
349227.000000
350260.000000
351273.000000
352292.000000
353380.000000
354402.000000
355411.000000
356453.000000
357569.000000
358614.000000
359683.000000
360711.000000
361692.000000
362698.000000
363748.000000
364830.000000
365891.000000
367009.000000
368021.000000
368959.000000
369942.000000
370942.000000
372001.000000
373002.000000
374000.000000
375086.000000
376157.000000
377266.000000
378305.000000
379288.000000
380303.000000
381373.000000
382402.000000
383406.000000
384378.000000
385368.000000
386444.000000
387477.000000
388518.000000
389512.000000
390550.000000
391633.000000
392625.000000
393618.000000
394623.000000
395678.000000
396655.000000
397620.000000
398615.000000
399620.000000
400577.000000
401589.000000
402656.000000
403655.000000
404712.000000
405744.000000
406766.000000
407734.000000
408735.000000
409750.000000
410725.000000
411749.000000
412834.000000
413846.000000
414892.000000
415917.000000
416900.000000
417884.000000
418936.000000
420035.000000
421064.000000
422067.000000
423070.000000
424135.000000
425239.000000
426312.000000
427359.000000
428365.000000
429331.000000
430301.000000
431345.000000
432460.000000
433521.000000
434550.000000
435526.000000
436526.000000
437507.000000
438442.000000
439410.000000
440411.000000
441454.000000
442489.000000
443536.000000
444559.000000
445554.000000
446497.000000
447450.000000
448420.000000
449401.000000
450365.000000
451372.000000
452390.000000
453369.000000
454376.000000
455371.000000
456394.000000
457456.000000
458411.000000
459312.000000
460222.000000
461207.000000
462243.000000
463228.000000
464261.000000
465330.000000
466294.000000
467267.000000
468233.000000
469176.000000
470065.000000
470914.000000
471870.000000
472905.000000
473979.000000
474982.000000
475959.000000
477011.000000
478139.000000
479193.000000
480204.000000
481243.000000
482314.000000
483354.000000
484370.000000
485409.000000
486460.000000
487471.000000
488463.000000
489465.000000
490441.000000
491437.000000
492496.000000
493552.000000
494582.000000
495546.000000
496522.000000
497532.000000
498590.000000
499580.000000
500574.000000
501603.000000
502666.000000
503639.000000
504644.000000
505674.000000
506658.000000
507656.000000
508666.000000
509640.000000
510626.000000
511691.000000
512708.000000
513701.000000
514702.000000
515735.000000
516739.000000
517746.000000
518816.000000
519824.000000
520794.000000
521768.000000
522768.000000
523788.000000
524791.000000
525789.000000
526815.000000
527794.000000
528772.000000
529773.000000
530774.000000
531749.000000
532632.000000
533499.000000
534499.000000
535627.000000
536682.000000
537741.000000
538727.000000
539628.000000
540525.000000
541501.000000
542521.000000
543557.000000
544632.000000
545696.000000
546697.000000
547658.000000
548615.000000
549527.000000
550404.000000
551370.000000
552386.000000
553436.000000
554460.000000
555510.000000
556513.000000
557505.000000
558540.000000
559611.000000
560600.000000
561601.000000
562631.000000
563690.000000
564711.000000
565754.000000
566755.000000
567748.000000
568746.000000
569804.000000
570905.000000
571946.000000
572953.000000
573945.000000
574960.000000
575993.000000
577072.000000
578079.000000
579081.000000
580144.000000
581174.000000
582197.000000
583209.000000
584208.000000
585169.000000
586089.000000
587146.000000
588288.000000
589409.000000
590507.000000
591593.000000
592639.000000
593704.000000
594726.000000
595777.000000
596850.000000
597866.000000
598854.000000
599893.000000
600996.000000
602037.000000
603179.000000
604270.000000
605309.000000
606388.000000
607447.000000
608442.000000
609464.000000
610487.000000
611537.000000
612537.000000
613548.000000
614603.000000
615570.000000
616555.000000
617565.000000
618602.000000
619652.000000
620734.000000
621749.000000
622752.000000
623792.000000
624795.000000
625791.000000
626823.000000
627814.000000
628741.000000
629712.000000
630761.000000
631766.000000
632762.000000
633654.000000
634525.000000
635527.000000
636611.000000
637661.000000
638710.000000
639735.000000
640776.000000
641811.000000
642809.000000
643765.000000
644754.000000
645750.000000
646763.000000
647769.000000
648789.000000
649863.000000
650900.000000
651937.000000
652954.000000
653926.000000
654869.000000
655875.000000
656974.000000
657994.000000
659006.000000
660063.000000
661209.000000
662309.000000
663372.000000
664444.000000
665510.000000
666545.000000
667519.000000
668542.000000
669583.000000
670544.000000
671533.000000
672611.000000
673644.000000
674698.000000
675758.000000
676917.000000
678013.000000
679011.000000
679950.000000
680966.000000
682115.000000
683184.000000
684240.000000
685234.000000
686280.000000
687377.000000
688375.000000
689314.000000
690285.000000
691323.000000
692361.000000
693337.000000
694250.000000
695198.000000
696057.000000
696825.000000
697576.000000
698422.000000
699401.000000
700355.000000
701346.000000
702369.000000
703358.000000
704288.000000
705191.000000
706121.000000
707074.000000
708001.000000
708945.000000
709916.000000
710905.000000
711879.000000
712860.000000
713836.000000
714808.000000
715803.000000
716829.000000
717782.000000
718745.000000
719733.000000
720700.000000
721697.000000
722718.000000
723679.000000
724632.000000
725646.000000
726719.000000
727743.000000
728818.000000
729840.000000
730797.000000
731731.000000
732745.000000
733884.000000
734933.000000
736063.000000
737114.000000
738118.000000
739113.000000
740116.000000
741162.000000
742088.000000
742924.000000
743729.000000
744574.000000
745854.000000
747002.000000
748138.000000
749283.000000
750423.000000
751550.000000
752642.000000
753710.000000
754795.000000
755857.000000
756933.000000
758017.000000
759081.000000
760151.000000
761166.000000
762191.000000
763236.000000
764340.000000
765379.000000
766352.000000
767363.000000
768541.000000
769663.000000
770739.000000
771747.000000
772776.000000
773828.000000
774894.000000
775930.000000
777009.000000
778010.000000
778976.000000
779980.000000
781094.000000
782154.000000
783198.000000
784256.000000
785303.000000
786315.000000
787269.000000
788161.000000
789098.000000
790131.000000
791147.000000
792170.000000
793209.000000
794274.000000
795320.000000
796363.000000
797378.000000
798357.000000
799374.000000
800395.000000
801445.000000
802478.000000
803516.000000
804509.000000
805473.000000
806475.000000
807487.000000
808530.000000
809593.000000
810678.000000
811720.000000
812659.000000
813559.000000
814508.000000
815499.000000
816541.000000
817567.000000
818637.000000
819657.000000
820769.000000
821823.000000
822894.000000
823939.000000
824993.000000
825984.000000
826918.000000
827904.000000
828927.000000
829984.000000
830974.000000
831993.000000
833121.000000
834148.000000
835182.000000
836252.000000
837244.000000
838164.000000
839105.000000
840070.000000
841022.000000
841959.000000
842943.000000
843886.000000
844803.000000
845768.000000
846748.000000
847717.000000
848686.000000
849679.000000
850707.000000
851695.000000
852634.000000
853601.000000
854610.000000
855697.000000
856731.000000
857743.000000
858745.000000
859735.000000
860713.000000
861778.000000
862902.000000
863971.000000
865088.000000
866180.000000
867289.000000
868320.000000
869377.000000
870430.000000
871478.000000
872578.000000
873687.000000
874792.000000
875830.000000
876812.000000
877859.000000
879019.000000
880086.000000
881214.000000
882330.000000
883372.000000
884317.000000
885228.000000
886414.000000
887597.000000
888655.000000
889651.000000
890720.000000
891819.000000
892869.000000
893927.000000
894987.000000
896018.000000
897005.000000
898015.000000
899021.000000
900018.000000
901019.000000
902033.000000
903031.000000
904014.000000
905012.000000
906037.000000
907027.000000
908014.000000
909006.000000
910021.000000
911032.000000
912030.000000
913149.000000
914167.000000
915195.000000
916195.000000
917261.000000
918308.000000
919323.000000
920380.000000
921446.000000
922463.000000
923390.000000
924251.000000
925184.000000
926298.000000
927327.000000
928399.000000
929524.000000
930611.000000
931697.000000
932786.000000
933877.000000
934925.000000
936005.000000
937075.000000
938110.000000
939094.000000
940152.000000
941267.000000
942340.000000
943400.000000
944503.000000
945625.000000
946716.000000
947850.000000
948972.000000
950084.000000
951176.000000
952290.000000
953432.000000
954568.000000
955697.000000
956796.000000
957834.000000
958860.000000
959972.000000
961088.000000
962146.000000
963153.000000
964226.000000
965338.000000
966418.000000
967404.000000
968406.000000
969548.000000
970669.000000
971730.000000
972669.000000
973636.000000
974654.000000
975635.000000
976577.000000
977609.000000
978692.000000
979692.000000
980728.000000
981774.000000
982773.000000
983797.000000
984840.000000
985839.000000
986853.000000
987854.000000
988829.000000
989783.000000
