ECG (ms)
212.000000
949.000000
1678.000000
2385.000000
3069.000000
3747.000000
4408.000000
5083.000000
5790.000000
6484.000000
7180.000000
7918.000000
8695.000000
9492.000000
10237.000000
10967.000000
11711.000000
12454.000000
13192.000000
13913.000000
14632.000000
15360.000000
16099.000000
16869.000000
17642.000000
18387.000000
19134.000000
19881.000000
20634.000000
21388.000000
22116.000000
22851.000000
23591.000000
24339.000000
25090.000000
25829.000000
26564.000000
27312.000000
28048.000000
28800.000000
29579.000000
30348.000000
31119.000000
31895.000000
32652.000000
33387.000000
34129.000000
34880.000000
35619.000000
36358.000000
37083.000000
37786.000000
38502.000000
39222.000000
39958.000000
40707.000000
41477.000000
42261.000000
43098.000000
43933.000000
44759.000000
45531.000000
46299.000000
47068.000000
47811.000000
48545.000000
49277.000000
50026.000000
50792.000000
51581.000000
52419.000000
53206.000000
53967.000000
54726.000000
55487.000000
56228.000000
56957.000000
57682.000000
58426.000000
59200.000000
60008.000000
60791.000000
61532.000000
62279.000000
63020.000000
63754.000000
64474.000000
65184.000000
65914.000000
66663.000000
67456.000000
68231.000000
68968.000000
69712.000000
70470.000000
71251.000000
72005.000000
72737.000000
73470.000000
74192.000000
74933.000000
75665.000000
76401.000000
77170.000000
77963.000000
78777.000000
79554.000000
80333.000000
81113.000000
81895.000000
82662.000000
83414.000000
84156.000000
84916.000000
85675.000000
86436.000000
87190.000000
87930.000000
88676.000000
89418.000000
90167.000000
90900.000000
91622.000000
92360.000000
93112.000000
93873.000000
94619.000000
95349.000000
96076.000000
96794.000000
97512.000000
98219.000000
98918.000000
99630.000000
100372.000000
101114.000000
101842.000000
102574.000000
103315.000000
104065.000000
104836.000000
105574.000000
106297.000000
107028.000000
107764.000000
108514.000000
109252.000000
109975.000000
110714.000000
111466.000000
112231.000000
112975.000000
113709.000000
114457.000000
115198.000000
115946.000000
116674.000000
117411.000000
118156.000000
118909.000000
119657.000000
120392.000000
121137.000000
121889.000000
122653.000000
123406.000000
124159.000000
124920.000000
125696.000000
126487.000000
127261.000000
128011.000000
128766.000000
129532.000000
130319.000000
131126.000000
131904.000000
132682.000000
133493.000000
134319.000000
135108.000000
135866.000000
136645.000000
137471.000000
138317.000000
139096.000000
139846.000000
140600.000000
141348.000000
142104.000000
142871.000000
143630.000000
144387.000000
145133.000000
145878.000000
146608.000000
147330.000000
148055.000000
148797.000000
149526.000000
150239.000000
150958.000000
151686.000000
152413.000000
153128.000000
153827.000000
154527.000000
155222.000000
155924.000000
156620.000000
157323.000000
158045.000000
158791.000000
159539.000000
160272.000000
161005.000000
161772.000000
162520.000000
163254.000000
163971.000000
164681.000000
165386.000000
166084.000000
166770.000000
167460.000000
168180.000000
168950.000000
169712.000000
170442.000000
171174.000000
171913.000000
172653.000000
173373.000000
174089.000000
174798.000000
175500.000000
176195.000000
176887.000000
177605.000000
178355.000000
179104.000000
179842.000000
180576.000000
181296.000000
182010.000000
182717.000000
183408.000000
184103.000000
184807.000000
185527.000000
186252.000000
186984.000000
187749.000000
188544.000000
189294.000000
190025.000000
190751.000000
191477.000000
192202.000000
192899.000000
193589.000000
194271.000000
194968.000000
195668.000000
196359.000000
197071.000000
197810.000000
198581.000000
199320.000000
200060.000000
200803.000000
201561.000000
202328.000000
203057.000000
203781.000000
204508.000000
205226.000000
205932.000000
206626.000000
207323.000000
208020.000000
208749.000000
209481.000000
210192.000000
210914.000000
211665.000000
212428.000000
213162.000000
213882.000000
214612.000000
215380.000000
216176.000000
216949.000000
217697.000000
218481.000000
219279.000000
220073.000000
220858.000000
221619.000000
222396.000000
223170.000000
223945.000000
224721.000000
225498.000000
226274.000000
227056.000000
227811.000000
228558.000000
229303.000000
230073.000000
230903.000000
231756.000000
232532.000000
233302.000000
234094.000000
234901.000000
235664.000000
236419.000000
237177.000000
237936.000000
238727.000000
239483.000000
240238.000000
241000.000000
241785.000000
242581.000000
243347.000000
244105.000000
244872.000000
245657.000000
246449.000000
247196.000000
247945.000000
248685.000000
249445.000000
250180.000000
250897.000000
251630.000000
252391.000000
253202.000000
253981.000000
254750.000000
255534.000000
256327.000000
257162.000000
257924.000000
258675.000000
259437.000000
260221.000000
260978.000000
261720.000000
262466.000000
263216.000000
264011.000000
264782.000000
265532.000000
266305.000000
267087.000000
267884.000000
268642.000000
269391.000000
270162.000000
270947.000000
271728.000000
272495.000000
273246.000000
274010.000000
274768.000000
275530.000000
276278.000000
277042.000000
277823.000000
278611.000000
279384.000000
280148.000000
280914.000000
281674.000000
282431.000000
283173.000000
283917.000000
284675.000000
285467.000000
286285.000000
287090.000000
287879.000000
288697.000000
289534.000000
290373.000000
291153.000000
291941.000000
292765.000000
293577.000000
294348.000000
295089.000000
295831.000000
296593.000000
297373.000000
298142.000000
298899.000000
299662.000000
300446.000000
301264.000000
302056.000000
302812.000000
303564.000000
304313.000000
305079.000000
305880.000000
306656.000000
307403.000000
308165.000000
308953.000000
309741.000000
310499.000000
311276.000000
312104.000000
312941.000000
313749.000000
314516.000000
315294.000000
316080.000000
316862.000000
317634.000000
318396.000000
319178.000000
319970.000000
320738.000000
321483.000000
322226.000000
322978.000000
323736.000000
324474.000000
325218.000000
326000.000000
326818.000000
327598.000000
328339.000000
329072.000000
329818.000000
330583.000000
331361.000000
332109.000000
332860.000000
333645.000000
334433.000000
335209.000000
335964.000000
336728.000000
337486.000000
338239.000000
338976.000000
339711.000000
340461.000000
341224.000000
341974.000000
342709.000000
343442.000000
344193.000000
344947.000000
345703.000000
346447.000000
347191.000000
347940.000000
348696.000000
349436.000000
350160.000000
350890.000000
351626.000000
352394.000000
353164.000000
353945.000000
354717.000000
355457.000000
356184.000000
356906.000000
357616.000000
358323.000000
359021.000000
359718.000000
360443.000000
361184.000000
361972.000000
362731.000000
363486.000000
364244.000000
365002.000000
365738.000000
366463.000000
367183.000000
367890.000000
368598.000000
369293.000000
369985.000000
370681.000000
371402.000000
372198.000000
372945.000000
373674.000000
374412.000000
375162.000000
375909.000000
376639.000000
377363.000000
378097.000000
378843.000000
379563.000000
380264.000000
380960.000000
381655.000000
382355.000000
383055.000000
383742.000000
384427.000000
385117.000000
385843.000000
386583.000000
387309.000000
388032.000000
388764.000000
389528.000000
390278.000000
391006.000000
391743.000000
392494.000000
393224.000000
393945.000000
394668.000000
395394.000000
396172.000000
397012.000000
397803.000000
398560.000000
399331.000000
400104.000000
400902.000000
401695.000000
402461.000000
403263.000000
404097.000000
404890.000000
405651.000000
406427.000000
407206.000000
407984.000000
408734.000000
409489.000000
410251.000000
411047.000000
411808.000000
412558.000000
413318.000000
414088.000000
414862.000000
415610.000000
416344.000000
417084.000000
417829.000000
418577.000000
419308.000000
420035.000000
420770.000000
421515.000000
422278.000000
423022.000000
423772.000000
424528.000000
425287.000000
426031.000000
426764.000000
427512.000000
428272.000000
429023.000000
429760.000000
430491.000000
431233.000000
431981.000000
432713.000000
433437.000000
434154.000000
434866.000000
435603.000000
436339.000000
437096.000000
437849.000000
438603.000000
439366.000000
440138.000000
440905.000000
441656.000000
442413.000000
443167.000000
443934.000000
444688.000000
445436.000000
446184.000000
446949.000000
447715.000000
448460.000000
449201.000000
449948.000000
450701.000000
451484.000000
452249.000000
453003.000000
453765.000000
454529.000000
455288.000000
456032.000000
456797.000000
457548.000000
458296.000000
459019.000000
459747.000000
460483.000000
461262.000000
462046.000000
462801.000000
463563.000000
464340.000000
465110.000000
465865.000000
466605.000000
467341.000000
468068.000000
468781.000000
469477.000000
470182.000000
470922.000000
471709.000000
472485.000000
473247.000000
474044.000000
474860.000000
475666.000000
476426.000000
477173.000000
477913.000000
478649.000000
479382.000000
480106.000000
480837.000000
481593.000000
482390.000000
483171.000000
483951.000000
484756.000000
485621.000000
486540.000000
487351.000000
488115.000000
488888.000000
489663.000000
490484.000000
491286.000000
492106.000000
492968.000000
493866.000000
494694.000000
495477.000000
496301.000000
497138.000000
497991.000000
498782.000000
499536.000000
500284.000000
501042.000000
501780.000000
502505.000000
503231.000000
503956.000000
504679.000000
505386.000000
506084.000000
506769.000000
507430.000000
508103.000000
508783.000000
509460.000000
510151.000000
510853.000000
511575.000000
512285.000000
512994.000000
513711.000000
514438.000000
515185.000000
515914.000000
516642.000000
517381.000000
518119.000000
518857.000000
519580.000000
520306.000000
521038.000000
521771.000000
522505.000000
523235.000000
523972.000000
524710.000000
525452.000000
526177.000000
526891.000000
527609.000000
528334.000000
529049.000000
529750.000000
530448.000000
531145.000000
531867.000000
532663.000000
533452.000000
534219.000000
535017.000000
535841.000000
536666.000000
537448.000000
538218.000000
539001.000000
539787.000000
540571.000000
541341.000000
542128.000000
542919.000000
543741.000000
544589.000000
545376.000000
546156.000000
546944.000000
547726.000000
548491.000000
549238.000000
550000.000000
550768.000000
551576.000000
552349.000000
553116.000000
553911.000000
554717.000000
555526.000000
556293.000000
557063.000000
557851.000000
558626.000000
559392.000000
560158.000000
560936.000000
561742.000000
562552.000000
563324.000000
564113.000000
564928.000000
565726.000000
566492.000000
567258.000000
568028.000000
568798.000000
569547.000000
570294.000000
571058.000000
571828.000000
572587.000000
573323.000000
574054.000000
574792.000000
575549.000000
576312.000000
577064.000000
577808.000000
578569.000000
579317.000000
580066.000000
580799.000000
581535.000000
582303.000000
583110.000000
583906.000000
584660.000000
585425.000000
586213.000000
586991.000000
587744.000000
588499.000000
589265.000000
590040.000000
590794.000000
591534.000000
592275.000000
593036.000000
593821.000000
594606.000000
595359.000000
596108.000000
596865.000000
597655.000000
598452.000000
599200.000000
599932.000000
600683.000000
601446.000000
602252.000000
603074.000000
603878.000000
604684.000000
605511.000000
606330.000000
607120.000000
607890.000000
608683.000000
609506.000000
610332.000000
611138.000000
611933.000000
612740.000000
613560.000000
614335.000000
615126.000000
615932.000000
616767.000000
617555.000000
618335.000000
619129.000000
619935.000000
620726.000000
621494.000000
622286.000000
623131.000000
624053.000000
624867.000000
625656.000000
626477.000000
627344.000000
628176.000000
628943.000000
629719.000000
630512.000000
631329.000000
632133.000000
632934.000000
633763.000000
634581.000000
635382.000000
636144.000000
636900.000000
637674.000000
638466.000000
639233.000000
640026.000000
640875.000000
641750.000000
642568.000000
643353.000000
644167.000000
644994.000000
645766.000000
646517.000000
647274.000000
648051.000000
648847.000000
649631.000000
650393.000000
651196.000000
652012.000000
652818.000000
653605.000000
654407.000000
655221.000000
656029.000000
656798.000000
657556.000000
658332.000000
659150.000000
659967.000000
660746.000000
661504.000000
662269.000000
663058.000000
663902.000000
664744.000000
665564.000000
666392.000000
667204.000000
667979.000000
668746.000000
669507.000000
670281.000000
671058.000000
671813.000000
672572.000000
673343.000000
674150.000000
674923.000000
675679.000000
676449.000000
677225.000000
678014.000000
678769.000000
679515.000000
680261.000000
680999.000000
681733.000000
682460.000000
683192.000000
683920.000000
684663.000000
685409.000000
686131.000000
686854.000000
687585.000000
688329.000000
689058.000000
689779.000000
690505.000000
691240.000000
691977.000000
692708.000000
693426.000000
694147.000000
694878.000000
695610.000000
696328.000000
697050.000000
697772.000000
698512.000000
699233.000000
699952.000000
700687.000000
701441.000000
702192.000000
702932.000000
703678.000000
704450.000000
705221.000000
705972.000000
706712.000000
707472.000000
708245.000000
709033.000000
709797.000000
710560.000000
711351.000000
712143.000000
712906.000000
713668.000000
714448.000000
715227.000000
715990.000000
716743.000000
717502.000000
718254.000000
719002.000000
719728.000000
720456.000000
721193.000000
721955.000000
722699.000000
723438.000000
724194.000000
724971.000000
725756.000000
726513.000000
727269.000000
728042.000000
728807.000000
729560.000000
730303.000000
731051.000000
731797.000000
732554.000000
733293.000000
734023.000000
734756.000000
735499.000000
736261.000000
737014.000000
737776.000000
738567.000000
739382.000000
740162.000000
740939.000000
741727.000000
742515.000000
743283.000000
744048.000000
744813.000000
745591.000000
746344.000000
747095.000000
747854.000000
748641.000000
749441.000000
750220.000000
751014.000000
751832.000000
752657.000000
753439.000000
754233.000000
755037.000000
755860.000000
756648.000000
757421.000000
758230.000000
759074.000000
759885.000000
760653.000000
761426.000000
762198.000000
762983.000000
763745.000000
764499.000000
765277.000000
766074.000000
766868.000000
767636.000000
768393.000000
769163.000000
769958.000000
770760.000000
771520.000000
772290.000000
773059.000000
773860.000000
774628.000000
775380.000000
776149.000000
776930.000000
777721.000000
778478.000000
779240.000000
779992.000000
780745.000000
781484.000000
782220.000000
782965.000000
783734.000000
784500.000000
785241.000000
785980.000000
786723.000000
787462.000000
788210.000000
788967.000000
789724.000000
790520.000000
791324.000000
792178.000000
792977.000000
793761.000000
794541.000000
795307.000000
796055.000000
796802.000000
797561.000000
798347.000000
799145.000000
799916.000000
800736.000000
801573.000000
802370.000000
803155.000000
803959.000000
804772.000000
805572.000000
806340.000000
807109.000000
807888.000000
808676.000000
809450.000000
810201.000000
810981.000000
811746.000000
812499.000000
813233.000000
813968.000000
814729.000000
815492.000000
816248.000000
816995.000000
817743.000000
818488.000000
819236.000000
819970.000000
820708.000000
821448.000000
822213.000000
823000.000000
823767.000000
824531.000000
825300.000000
826075.000000
826829.000000
827564.000000
828326.000000
829078.000000
829845.000000
830588.000000
831328.000000
832072.000000
832815.000000
833555.000000
834292.000000
835045.000000
835813.000000
836586.000000
837341.000000
838077.000000
838813.000000
839562.000000
840349.000000
841164.000000
841955.000000
842737.000000
843513.000000
844267.000000
845024.000000
845800.000000
846590.000000
847374.000000
848144.000000
848927.000000
849730.000000
850523.000000
851309.000000
852073.000000
852866.000000
853649.000000
854434.000000
855192.000000
855955.000000
856730.000000
857527.000000
858328.000000
859095.000000
859851.000000
860605.000000
861370.000000
862141.000000
862890.000000
863646.000000
864405.000000
865174.000000
865947.000000
866697.000000
867453.000000
868217.000000
868978.000000
869725.000000
870470.000000
871226.000000
872007.000000
872797.000000
873567.000000
874345.000000
875133.000000
875911.000000
876660.000000
877413.000000
878171.000000
878922.000000
879654.000000
880384.000000
881131.000000
881898.000000
882645.000000
883391.000000
884142.000000
884892.000000
885640.000000
886380.000000
887123.000000
887869.000000
888610.000000
889336.000000
890060.000000
890778.000000
891479.000000
892179.000000
892870.000000
893539.000000
894220.000000
894901.000000
895591.000000
896288.000000
896990.000000
897706.000000
898417.000000
899122.000000
899836.000000
900554.000000
901266.000000
901983.000000
902691.000000
903385.000000
904083.000000
904782.000000
905491.000000
906201.000000
906932.000000
907706.000000
908504.000000
909316.000000
910085.000000
910845.000000
911617.000000
912386.000000
913165.000000
913927.000000
914676.000000
915443.000000
916233.000000
917053.000000
917840.000000
918633.000000
919446.000000
920258.000000
921040.000000
921811.000000
922608.000000
923411.000000
924193.000000
924942.000000
925699.000000
926463.000000
927272.000000
928060.000000
928817.000000
929608.000000
930485.000000
931401.000000
932213.000000
933004.000000
933804.000000
934630.000000
935408.000000
936174.000000
936955.000000
937773.000000
938585.000000
939352.000000
940149.000000
940959.000000
941784.000000
942568.000000
943348.000000
944150.000000
944988.000000
945777.000000
946546.000000
947334.000000
948133.000000
948922.000000
949689.000000
950446.000000
951209.000000
951991.000000
952773.000000
953524.000000
954275.000000
955030.000000
955817.000000
956604.000000
957364.000000
958128.000000
958913.000000
959705.000000
960468.000000
961215.000000
961968.000000
962724.000000
963514.000000
964283.000000
965054.000000
965866.000000
966725.000000
967558.000000
968343.000000
969121.000000
969887.000000
970654.000000
971399.000000
972155.000000
972939.000000
973761.000000
974600.000000
975409.000000
976218.000000
977044.000000
977868.000000
978665.000000
979434.000000
980212.000000
980986.000000
981742.000000
982493.000000
983233.000000
983992.000000
984773.000000
985561.000000
986312.000000
987055.000000
987813.000000
988583.000000
989372.000000
990135.000000
990908.000000
991692.000000
992476.000000
993235.000000
993980.000000
994732.000000
995491.000000
996273.000000
997060.000000
997830.000000
998618.000000
999393.000000
1000187.000000
1001019.000000
1001808.000000
1002553.000000
1003298.000000
1004033.000000
1004764.000000
1005487.000000
1006218.000000
1006955.000000
1007704.000000
1008439.000000
1009205.000000
1009990.000000
1010785.000000
1011562.000000
1012334.000000
1013107.000000
1013869.000000
1014620.000000
1015365.000000
1016123.000000
1016896.000000
1017701.000000
1018508.000000
1019284.000000
1020071.000000
1020856.000000
1021620.000000
1022368.000000
1023115.000000
1023869.000000
1024642.000000
1025423.000000
1026191.000000
1026970.000000
1027754.000000
1028549.000000
1029313.000000
1030082.000000
1030836.000000
1031598.000000
1032347.000000
1033083.000000
1033828.000000
1034594.000000
1035396.000000
1036172.000000
1036939.000000
1037712.000000
1038485.000000
1039230.000000
1039972.000000
1040738.000000
1041534.000000
1042362.000000
1043161.000000
1043945.000000
1044761.000000
1045569.000000
1046362.000000
1047122.000000
1047894.000000
1048713.000000
1049520.000000
1050293.000000
1051068.000000
1051861.000000
1052677.000000
1053472.000000
1054239.000000
1055020.000000
1055820.000000
1056638.000000
1057427.000000
1058240.000000
1059086.000000
1059883.000000
1060638.000000
1061394.000000
1062155.000000
1062935.000000
1063691.000000
1064437.000000
1065195.000000
1065952.000000
1066728.000000
1067489.000000
1068228.000000
1068964.000000
1069691.000000
1070424.000000
1071148.000000
1071880.000000
1072662.000000
1073504.000000
1074296.000000
1075057.000000
1075830.000000
1076612.000000
1077395.000000
1078156.000000
1078904.000000
1079654.000000
1080405.000000
1081164.000000
1081949.000000
1082769.000000
1083600.000000
1084411.000000
1085212.000000
1086024.000000
1086826.000000
1087595.000000
1088360.000000
1089179.000000
1090009.000000
1090827.000000
1091604.000000
1092371.000000
1093144.000000
1093926.000000
1094702.000000
1095460.000000
1096208.000000
1096966.000000
1097724.000000
1098514.000000
1099315.000000
1100083.000000
1100865.000000
1101641.000000
1102407.000000
1103180.000000
1103921.000000
1104662.000000
1105415.000000
1106184.000000
1106969.000000
1107756.000000
1108510.000000
1109249.000000
1109985.000000
1110717.000000
1111440.000000
1112152.000000
1112857.000000
1113550.000000
1114241.000000
1114919.000000
1115587.000000
1116244.000000
1116905.000000
1117606.000000
1118320.000000
1119034.000000
1119757.000000
1120492.000000
1121243.000000
1121985.000000
1122711.000000
1123451.000000
1124187.000000
1124923.000000
1125664.000000
1126385.000000
1127113.000000
1127851.000000
1128607.000000
1129378.000000
1130137.000000
1130910.000000
1131700.000000
1132506.000000
1133296.000000
1134054.000000
1134796.000000
1135546.000000
1136306.000000
1137089.000000
1137852.000000
1138598.000000
1139352.000000
1140112.000000
1140888.000000
1141641.000000
1142370.000000
1143109.000000
1143848.000000
1144586.000000
1145331.000000
1146084.000000
1146877.000000
1147700.000000
1148509.000000
1149287.000000
1150073.000000
1150870.000000
1151671.000000
1152449.000000
1153210.000000
1154007.000000
1154794.000000
1155561.000000
1156315.000000
1157093.000000
1157878.000000
1158680.000000
1159450.000000
1160212.000000
1160981.000000
1161766.000000
1162553.000000
1163334.000000
1164091.000000
1164848.000000
1165620.000000
1166401.000000
1167192.000000
1167957.000000
1168702.000000
1169449.000000
1170192.000000
1170926.000000
1171650.000000
1172391.000000
1173153.000000
1173937.000000
1174732.000000
1175493.000000
1176267.000000
1177061.000000
1177866.000000
1178626.000000
1179386.000000
1180139.000000
1180896.000000
1181645.000000
1182388.000000
1183131.000000
1183890.000000
1184679.000000
1185450.000000
1186241.000000
1187058.000000
1187873.000000
1188670.000000
1189444.000000
1190211.000000
1190994.000000
1191802.000000
1192573.000000
1193325.000000
1194069.000000
1194808.000000
1195551.000000
1196308.000000
1197047.000000
1197806.000000
1198583.000000
1199339.000000
1200088.000000
