ECG (ms)
573.000000
1249.000000
1927.000000
2583.000000
3297.000000
4035.000000
4791.000000
5543.000000
6266.000000
6944.000000
7623.000000
8355.000000
9099.000000
9851.000000
10592.000000
11312.000000
11998.000000
12664.000000
13332.000000
14087.000000
14839.000000
15629.000000
16382.000000
17129.000000
17809.000000
18487.000000
19154.000000
19918.000000
20640.000000
21429.000000
22138.000000
22891.000000
23560.000000
24231.000000
24884.000000
25627.000000
26388.000000
27186.000000
27966.000000
28743.000000
29437.000000
30158.000000
30884.000000
31705.000000
32434.000000
33258.000000
33959.000000
34738.000000
35415.000000
36243.000000
36963.000000
37684.000000
38367.000000
39146.000000
39904.000000
40695.000000
41411.000000
42155.000000
42846.000000
43551.000000
44226.000000
44911.000000
45657.000000
46409.000000
47176.000000
47931.000000
48642.000000
49328.000000
49998.000000
50708.000000
51462.000000
52233.000000
52991.000000
53753.000000
54448.000000
55126.000000
55794.000000
56543.000000
57305.000000
58089.000000
58860.000000
59629.000000
60347.000000
61105.000000
61848.000000
62610.000000
63321.000000
64023.000000
64695.000000
65376.000000
66136.000000
66858.000000
67678.000000
68390.000000
69218.000000
69908.000000
70603.000000
71274.000000
72070.000000
72981.000000
73798.000000
74565.000000
75314.000000
76046.000000
76775.000000
77530.000000
78295.000000
79065.000000
79831.000000
80583.000000
81313.000000
82036.000000
82751.000000
83473.000000
84213.000000
84957.000000
85700.000000
86443.000000
87217.000000
88000.000000
88777.000000
89545.000000
90286.000000
91002.000000
91703.000000
92398.000000
93120.000000
93845.000000
94587.000000
95336.000000
96068.000000
96784.000000
97466.000000
98145.000000
98857.000000
99585.000000
100296.000000
100940.000000
101577.000000
102240.000000
102913.000000
103596.000000
104297.000000
105005.000000
105765.000000
106502.000000
107222.000000
107902.000000
108575.000000
109275.000000
110035.000000
110796.000000
111487.000000
112174.000000
112873.000000
113635.000000
114369.000000
115075.000000
115765.000000
116523.000000
117235.000000
118017.000000
118696.000000
119387.000000
120042.000000
120705.000000
121419.000000
122163.000000
122910.000000
123668.000000
124364.000000
125067.000000
125737.000000
126397.000000
127051.000000
127779.000000
128547.000000
129398.000000
130127.000000
130855.000000
131536.000000
132211.000000
132866.000000
133569.000000
134518.000000
135349.000000
136127.000000
136887.000000
137630.000000
138351.000000
139056.000000
139761.000000
140506.000000
141269.000000
142063.000000
142850.000000
143621.000000
144380.000000
145143.000000
145911.000000
146672.000000
147416.000000
148145.000000
148852.000000
149543.000000
150228.000000
150958.000000
151706.000000
152470.000000
153230.000000
153983.000000
154721.000000
155437.000000
156159.000000
156891.000000
157638.000000
158396.000000
159140.000000
159877.000000
160638.000000
161434.000000
162235.000000
163040.000000
163816.000000
164566.000000
165317.000000
166066.000000
166826.000000
167572.000000
168317.000000
169069.000000
169836.000000
170606.000000
171366.000000
172109.000000
172851.000000
173598.000000
174354.000000
175105.000000
175841.000000
176573.000000
177311.000000
178054.000000
178784.000000
179505.000000
180215.000000
180937.000000
181692.000000
182460.000000
183238.000000
184009.000000
184746.000000
185465.000000
186160.000000
186843.000000
187571.000000
188329.000000
189099.000000
189866.000000
190618.000000
191377.000000
192138.000000
192905.000000
193666.000000
194404.000000
195127.000000
195845.000000
196576.000000
197313.000000
198054.000000
198802.000000
199535.000000
200257.000000
200982.000000
201720.000000
202479.000000
203237.000000
203977.000000
204720.000000
205481.000000
206244.000000
207016.000000
207778.000000
208516.000000
209243.000000
209983.000000
210738.000000
211498.000000
212246.000000
212990.000000
213750.000000
214516.000000
215265.000000
215992.000000
216719.000000
217454.000000
218197.000000
218928.000000
219659.000000
220398.000000
221168.000000
221969.000000
222747.000000
223512.000000
224283.000000
225067.000000
225833.000000
226581.000000
227329.000000
228080.000000
228832.000000
229565.000000
230289.000000
231027.000000
231785.000000
232543.000000
233284.000000
234028.000000
234782.000000
235552.000000
236296.000000
237025.000000
237763.000000
238518.000000
239281.000000
240022.000000
240749.000000
241477.000000
242224.000000
242989.000000
243750.000000
244493.000000
245215.000000
245932.000000
246670.000000
247431.000000
248199.000000
248948.000000
249678.000000
250390.000000
251103.000000
251848.000000
252614.000000
253395.000000
254172.000000
254940.000000
255684.000000
256412.000000
257146.000000
257896.000000
258665.000000
259436.000000
260188.000000
260923.000000
261655.000000
262407.000000
263170.000000
263935.000000
264687.000000
265425.000000
266171.000000
266938.000000
267720.000000
268494.000000
269246.000000
269982.000000
270716.000000
271449.000000
272185.000000
272912.000000
273636.000000
274370.000000
275139.000000
275932.000000
276703.000000
277467.000000
278242.000000
279012.000000
279762.000000
280484.000000
281195.000000
281915.000000
282651.000000
283400.000000
284133.000000
284852.000000
285574.000000
286311.000000
287067.000000
287822.000000
288558.000000
289282.000000
290018.000000
290765.000000
291511.000000
292244.000000
292960.000000
293677.000000
294409.000000
295151.000000
295891.000000
296615.000000
297343.000000
298096.000000
298863.000000
299617.000000
300361.000000
301129.000000
301893.000000
302643.000000
303372.000000
304099.000000
304837.000000
305581.000000
306314.000000
307042.000000
307796.000000
308559.000000
309325.000000
310063.000000
310793.000000
311531.000000
312283.000000
313048.000000
313794.000000
314536.000000
315285.000000
316052.000000
316830.000000
317603.000000
318360.000000
319116.000000
319905.000000
320708.000000
321516.000000
322310.000000
323073.000000
323807.000000
324526.000000
325246.000000
325990.000000
326758.000000
327544.000000
328331.000000
329115.000000
329914.000000
330714.000000
331495.000000
332258.000000
333026.000000
333804.000000
334581.000000
335351.000000
336113.000000
336886.000000
337667.000000
338457.000000
339224.000000
339973.000000
340726.000000
341489.000000
342266.000000
343022.000000
343767.000000
344516.000000
345279.000000
346052.000000
346804.000000
347552.000000
348316.000000
349087.000000
349846.000000
350584.000000
351310.000000
352050.000000
352805.000000
353560.000000
354316.000000
355063.000000
355792.000000
356515.000000
357245.000000
357989.000000
358737.000000
359478.000000
360217.000000
360965.000000
361718.000000
362460.000000
363187.000000
363904.000000
364645.000000
365434.000000
366221.000000
366996.000000
367763.000000
368548.000000
369336.000000
370113.000000
370860.000000
371609.000000
372363.000000
373128.000000
373885.000000
374634.000000
375392.000000
376151.000000
376909.000000
377647.000000
378368.000000
379095.000000
379842.000000
380593.000000
381340.000000
382074.000000
382796.000000
383526.000000
384274.000000
385026.000000
385792.000000
386565.000000
387356.000000
388157.000000
388935.000000
389683.000000
390429.000000
391196.000000
391960.000000
392731.000000
393482.000000
394223.000000
394974.000000
395741.000000
396512.000000
397262.000000
397999.000000
398745.000000
399499.000000
400279.000000
401039.000000
401798.000000
402566.000000
403346.000000
404120.000000
404873.000000
405620.000000
406375.000000
407150.000000
407907.000000
408646.000000
409379.000000
410136.000000
410908.000000
411679.000000
412433.000000
413184.000000
413944.000000
414732.000000
415543.000000
416341.000000
417122.000000
417882.000000
418649.000000
419426.000000
420219.000000
421000.000000
421761.000000
422526.000000
423308.000000
424102.000000
424873.000000
425631.000000
426397.000000
427172.000000
427934.000000
428680.000000
429426.000000
430189.000000
430968.000000
431731.000000
432484.000000
433251.000000
434029.000000
434812.000000
435573.000000
436320.000000
437085.000000
437859.000000
438645.000000
439410.000000
440161.000000
440920.000000
441696.000000
442467.000000
443230.000000
444001.000000
444801.000000
445608.000000
446393.000000
447144.000000
447899.000000
448673.000000
449448.000000
450202.000000
450936.000000
451681.000000
452450.000000
453228.000000
453977.000000
454708.000000
455452.000000
456231.000000
457015.000000
457778.000000
458527.000000
459290.000000
460065.000000
460840.000000
461591.000000
462345.000000
463115.000000
463891.000000
464650.000000
465387.000000
466124.000000
466881.000000
467658.000000
468433.000000
469186.000000
469937.000000
470709.000000
471499.000000
472276.000000
473033.000000
473791.000000
474585.000000
475400.000000
476209.000000
476993.000000
477751.000000
478510.000000
479283.000000
480062.000000
480836.000000
481596.000000
482345.000000
483110.000000
483872.000000
484636.000000
485384.000000
486136.000000
486915.000000
487709.000000
488484.000000
489245.000000
490004.000000
490776.000000
491560.000000
492329.000000
493078.000000
493838.000000
494613.000000
495416.000000
496193.000000
496947.000000
497706.000000
498486.000000
499289.000000
500077.000000
500848.000000
501643.000000
502450.000000
503237.000000
504012.000000
504804.000000
505600.000000
506378.000000
507134.000000
507889.000000
508648.000000
509407.000000
510141.000000
510861.000000
511572.000000
512317.000000
513085.000000
513865.000000
514641.000000
515424.000000
516218.000000
517030.000000
517833.000000
518608.000000
519362.000000
520118.000000
520902.000000
521711.000000
522508.000000
523279.000000
524029.000000
524758.000000
525484.000000
526243.000000
527029.000000
527820.000000
528609.000000
529378.000000
530145.000000
530928.000000
531708.000000
532471.000000
533209.000000
533934.000000
534663.000000
535408.000000
536164.000000
536888.000000
537574.000000
538260.000000
538964.000000
539675.000000
540582.000000
541406.000000
542185.000000
542933.000000
543695.000000
544457.000000
545215.000000
545965.000000
546703.000000
547455.000000
548236.000000
549033.000000
549799.000000
550552.000000
551312.000000
552088.000000
552865.000000
553619.000000
554363.000000
555125.000000
555905.000000
556690.000000
557457.000000
558231.000000
559030.000000
559846.000000
560625.000000
561398.000000
562163.000000
562934.000000
563722.000000
564503.000000
565275.000000
566040.000000
566847.000000
567714.000000
568568.000000
569366.000000
570144.000000
570916.000000
571692.000000
572481.000000
573251.000000
574005.000000
574772.000000
575582.000000
576420.000000
577240.000000
578024.000000
578777.000000
579516.000000
580266.000000
581029.000000
581828.000000
582609.000000
583365.000000
584107.000000
584863.000000
585640.000000
586430.000000
587203.000000
587960.000000
588720.000000
589502.000000
590311.000000
591114.000000
591897.000000
592646.000000
593384.000000
594121.000000
594874.000000
595658.000000
596429.000000
597197.000000
598008.000000
598837.000000
599662.000000
600459.000000
601222.000000
601970.000000
602721.000000
603486.000000
604265.000000
605050.000000
605842.000000
606672.000000
607517.000000
608368.000000
609176.000000
609945.000000
610690.000000
611428.000000
612182.000000
612913.000000
613597.000000
614243.000000
614879.000000
615558.000000
616294.000000
616996.000000
617692.000000
618394.000000
619150.000000
619894.000000
620682.000000
621417.000000
622166.000000
622874.000000
623571.000000
624277.000000
625045.000000
625795.000000
626613.000000
627322.000000
628065.000000
628804.000000
629662.000000
630492.000000
631255.000000
632009.000000
632755.000000
633545.000000
634323.000000
635067.000000
635786.000000
636579.000000
637396.000000
638235.000000
638987.000000
639721.000000
640522.000000
641344.000000
642152.000000
642940.000000
643663.000000
644374.000000
645130.000000
645923.000000
646761.000000
647544.000000
648270.000000
649034.000000
649828.000000
650605.000000
651338.000000
652057.000000
652797.000000
653594.000000
654372.000000
655093.000000
655814.000000
656572.000000
657345.000000
658087.000000
658789.000000
659470.000000
660182.000000
660950.000000
661719.000000
662468.000000
663194.000000
663949.000000
664737.000000
665525.000000
666260.000000
666980.000000
667686.000000
668473.000000
669266.000000
670054.000000
670788.000000
671642.000000
672473.000000
673317.000000
674096.000000
674828.000000
675629.000000
676411.000000
677194.000000
677946.000000
678689.000000
679519.000000
680339.000000
681152.000000
681929.000000
682686.000000
683437.000000
684178.000000
684876.000000
685610.000000
686437.000000
687243.000000
688033.000000
688803.000000
689581.000000
690348.000000
691124.000000
691887.000000
692634.000000
693388.000000
694162.000000
694945.000000
695716.000000
696475.000000
697240.000000
698031.000000
698825.000000
699600.000000
700377.000000
701185.000000
702001.000000
702806.000000
703593.000000
704357.000000
705131.000000
705918.000000
706698.000000
707454.000000
708208.000000
708971.000000
709742.000000
710500.000000
711244.000000
711986.000000
712757.000000
713549.000000
714332.000000
715097.000000
715868.000000
716647.000000
717423.000000
718182.000000
718919.000000
719658.000000
720420.000000
721203.000000
722004.000000
722775.000000
723523.000000
724279.000000
725043.000000
725831.000000
726607.000000
727378.000000
728162.000000
728955.000000
729756.000000
730534.000000
731305.000000
732081.000000
732854.000000
733623.000000
734383.000000
735139.000000
735916.000000
736719.000000
737511.000000
738279.000000
739047.000000
739817.000000
740593.000000
741355.000000
742106.000000
742868.000000
743633.000000
744382.000000
745122.000000
745867.000000
746618.000000
747379.000000
748138.000000
748878.000000
749623.000000
750381.000000
751154.000000
751927.000000
752679.000000
753409.000000
754140.000000
754878.000000
755629.000000
756371.000000
757098.000000
757834.000000
758582.000000
759348.000000
760104.000000
760838.000000
761546.000000
762273.000000
762995.000000
763670.000000
764324.000000
764944.000000
765555.000000
766173.000000
766797.000000
767422.000000
768091.000000
768841.000000
769605.000000
770330.000000
771077.000000
771768.000000
772462.000000
773181.000000
773979.000000
774742.000000
775490.000000
776216.000000
777217.000000
778068.000000
778863.000000
779626.000000
780387.000000
781170.000000
781994.000000
782797.000000
783574.000000
784359.000000
785145.000000
785926.000000
786695.000000
787461.000000
788235.000000
789026.000000
789793.000000
790538.000000
791283.000000
792038.000000
792815.000000
793583.000000
794343.000000
795136.000000
795953.000000
796776.000000
797570.000000
798344.000000
799123.000000
799908.000000
800695.000000
801478.000000
802263.000000
803091.000000
803939.000000
804757.000000
805550.000000
806333.000000
807117.000000
807897.000000
808658.000000
809412.000000
810171.000000
810951.000000
811721.000000
812487.000000
813270.000000
814069.000000
814861.000000
815640.000000
816442.000000
817243.000000
818035.000000
818799.000000
819553.000000
820327.000000
821133.000000
821927.000000
822700.000000
823493.000000
824314.000000
825149.000000
825969.000000
826758.000000
827561.000000
828360.000000
829134.000000
829877.000000
830608.000000
831328.000000
832024.000000
832663.000000
833306.000000
834005.000000
834690.000000
835427.000000
836261.000000
837079.000000
837809.000000
838510.000000
839206.000000
839943.000000
840688.000000
841443.000000
842139.000000
842819.000000
843523.000000
844336.000000
845196.000000
845976.000000
846696.000000
847499.000000
848263.000000
849030.000000
849760.000000
850561.000000
851434.000000
852306.000000
853138.000000
853929.000000
854723.000000
855510.000000
856288.000000
857047.000000
857822.000000
858595.000000
859381.000000
860148.000000
860900.000000
861664.000000
862425.000000
863185.000000
863927.000000
864659.000000
865390.000000
866141.000000
866891.000000
867636.000000
868419.000000
869229.000000
870028.000000
870796.000000
871545.000000
872308.000000
873080.000000
873873.000000
874662.000000
875440.000000
876196.000000
876963.000000
877739.000000
878521.000000
879259.000000
879961.000000
880612.000000
881243.000000
881847.000000
882449.000000
883064.000000
883662.000000
884293.000000
884977.000000
885647.000000
886318.000000
887044.000000
887795.000000
888529.000000
889263.000000
889957.000000
890633.000000
891284.000000
891954.000000
892648.000000
893406.000000
894174.000000
894925.000000
895655.000000
896349.000000
897118.000000
898052.000000
898936.000000
899767.000000
900531.000000
901249.000000
901966.000000
902754.000000
903583.000000
904440.000000
905290.000000
906116.000000
906907.000000
907694.000000
908499.000000
909324.000000
910144.000000
910931.000000
911715.000000
912491.000000
913280.000000
914076.000000
914851.000000
915615.000000
916394.000000
917192.000000
917998.000000
918789.000000
919570.000000
920357.000000
921148.000000
921921.000000
922674.000000
923437.000000
924223.000000
925027.000000
925817.000000
926592.000000
927379.000000
928166.000000
928957.000000
929728.000000
930494.000000
931266.000000
932060.000000
932855.000000
933638.000000
934437.000000
935252.000000
936074.000000
936876.000000
937654.000000
938441.000000
939239.000000
940014.000000
940758.000000
941492.000000
942249.000000
943034.000000
943833.000000
944614.000000
945417.000000
946242.000000
947073.000000
947872.000000
948655.000000
949450.000000
950257.000000
951038.000000
951801.000000
952564.000000
953346.000000
954150.000000
954935.000000
955711.000000
956492.000000
957288.000000
958077.000000
958850.000000
959649.000000
960478.000000
961309.000000
962103.000000
962880.000000
963665.000000
964463.000000
965272.000000
966064.000000
966837.000000
967627.000000
968431.000000
969236.000000
970016.000000
970789.000000
971572.000000
972373.000000
973161.000000
973934.000000
974708.000000
975509.000000
976338.000000
977168.000000
977960.000000
978749.000000
979552.000000
980345.000000
981134.000000
981908.000000
982668.000000
983428.000000
984205.000000
984986.000000
985769.000000
986536.000000
987287.000000
988029.000000
988784.000000
989548.000000
990323.000000
991080.000000
991820.000000
992556.000000
993315.000000
994102.000000
994898.000000
995677.000000
996445.000000
997218.000000
998000.000000
998787.000000
999561.000000
1000325.000000
1001114.000000
1001917.000000
1002711.000000
1003477.000000
1004236.000000
1005007.000000
1005808.000000
1006598.000000
1007378.000000
1008183.000000
1009003.000000
1009798.000000
1010578.000000
1011343.000000
1012118.000000
1012914.000000
1013712.000000
1014492.000000
1015260.000000
1016040.000000
1016828.000000
1017625.000000
1018392.000000
1019148.000000
1019921.000000
1020703.000000
1021485.000000
1022254.000000
1023028.000000
1023817.000000
1024615.000000
1025403.000000
1026179.000000
1026949.000000
1027746.000000
1028543.000000
1029342.000000
1030133.000000
1030892.000000
1031630.000000
1032347.000000
1033043.000000
1033682.000000
1034314.000000
1034986.000000
1035769.000000
1036510.000000
1037206.000000
1037912.000000
1038683.000000
1039461.000000
1040235.000000
1040946.000000
1041641.000000
1042303.000000
1042981.000000
1043801.000000
1044660.000000
1045511.000000
1046303.000000
1047018.000000
1047766.000000
1048544.000000
1049368.000000
1050189.000000
1050951.000000
1051683.000000
1052441.000000
1053259.000000
1054057.000000
1054848.000000
1055577.000000
1056313.000000
1057094.000000
1057936.000000
1058709.000000
1059447.000000
1060240.000000
1060992.000000
1061767.000000
1062484.000000
1063232.000000
1064054.000000
1064868.000000
1065636.000000
1066367.000000
1067130.000000
1067938.000000
1068714.000000
1069464.000000
1070218.000000
1071007.000000
1071844.000000
1072628.000000
1073354.000000
1074122.000000
1074890.000000
1075685.000000
1076447.000000
1077196.000000
1078051.000000
1078914.000000
1079737.000000
1080508.000000
1081267.000000
1082027.000000
1082805.000000
1083594.000000
1084379.000000
1085193.000000
1086033.000000
1086886.000000
1087702.000000
1088520.000000
1089333.000000
1090141.000000
1090926.000000
1091703.000000
1092485.000000
1093293.000000
1094091.000000
1094871.000000
1095665.000000
1096472.000000
1097283.000000
1098062.000000
1098833.000000
1099613.000000
1100387.000000
1101154.000000
1101916.000000
1102697.000000
1103495.000000
1104275.000000
1105026.000000
1105761.000000
1106464.000000
1107108.000000
1107766.000000
1108484.000000
1109133.000000
1109792.000000
1110501.000000
1111227.000000
1111936.000000
1112692.000000
1113568.000000
1114499.000000
1115301.000000
1116034.000000
1116729.000000
1117475.000000
1118269.000000
1119131.000000
1119983.000000
1120825.000000
1121718.000000
1122632.000000
1123469.000000
1124280.000000
1125106.000000
1125955.000000
1126827.000000
1127669.000000
1128470.000000
1129268.000000
1130075.000000
1130911.000000
1131723.000000
1132531.000000
1133359.000000
1134207.000000
1135051.000000
1135869.000000
1136678.000000
1137499.000000
1138331.000000
1139137.000000
1139930.000000
1140732.000000
1141555.000000
1142376.000000
1143186.000000
1143983.000000
1144800.000000
1145617.000000
1146406.000000
1147180.000000
1147967.000000
1148756.000000
1149554.000000
1150339.000000
1151111.000000
1151914.000000
1152732.000000
1153545.000000
1154339.000000
1155131.000000
1155941.000000
1156767.000000
1157600.000000
1158398.000000
1159200.000000
1160013.000000
1160828.000000
1161628.000000
1162413.000000
1163214.000000
1164032.000000
1164858.000000
1165640.000000
1166393.000000
1167155.000000
1167934.000000
1168735.000000
1169538.000000
1170311.000000
1171081.000000
1171860.000000
1172639.000000
1173407.000000
1174177.000000
1174963.000000
1175768.000000
1176563.000000
1177340.000000
1178120.000000
1178886.000000
1179630.000000
1180351.000000
1181020.000000
1181651.000000
1182274.000000
1182912.000000
1183525.000000
1184169.000000
1184904.000000
1185663.000000
1186428.000000
1187143.000000
1187889.000000
1188630.000000
1189426.000000
1190188.000000
1190954.000000
1191670.000000
1192415.000000
1193330.000000
1194207.000000
