ECG (ms)
560.000000
1565.000000
2546.000000
3456.000000
4445.000000
5454.000000
6380.000000
7320.000000
8215.000000
9047.000000
9908.000000
10732.000000
11541.000000
12361.000000
13188.000000
14042.000000
14855.000000
15679.000000
16500.000000
17260.000000
18013.000000
18747.000000
19470.000000
20172.000000
20867.000000
21562.000000
22292.000000
23054.000000
23804.000000
24567.000000
25321.000000
26095.000000
26859.000000
27616.000000
28389.000000
29150.000000
29917.000000
30674.000000
31444.000000
32257.000000
33083.000000
33878.000000
34692.000000
35523.000000
36352.000000
37145.000000
37907.000000
38682.000000
39464.000000
40260.000000
41081.000000
41888.000000
42657.000000
43438.000000
44214.000000
44991.000000
45739.000000
46494.000000
47261.000000
48034.000000
48775.000000
49527.000000
50295.000000
51064.000000
51830.000000
52581.000000
53368.000000
54148.000000
54944.000000
55708.000000
56446.000000
57163.000000
57870.000000
58558.000000
59242.000000
59968.000000
60713.000000
61506.000000
62326.000000
63151.000000
63949.000000
64764.000000
65605.000000
66435.000000
67237.000000
68064.000000
68873.000000
69651.000000
70455.000000
71279.000000
72074.000000
72860.000000
73680.000000
74484.000000
75276.000000
76127.000000
76959.000000
77760.000000
78591.000000
79423.000000
80202.000000
80981.000000
81742.000000
82471.000000
83243.000000
84013.000000
84826.000000
85685.000000
86521.000000
87372.000000
88264.000000
89145.000000
89971.000000
90771.000000
91595.000000
92465.000000
93281.000000
94110.000000
94965.000000
95777.000000
96601.000000
97453.000000
98255.000000
99032.000000
99836.000000
100662.000000
101442.000000
102211.000000
102999.000000
103821.000000
104607.000000
105388.000000
106195.000000
107017.000000
107809.000000
108598.000000
109434.000000
110256.000000
111009.000000
111770.000000
112556.000000
113339.000000
114166.000000
114989.000000
115796.000000
116650.000000
117490.000000
118287.000000
119151.000000
120050.000000
120942.000000
121727.000000
122510.000000
123309.000000
124197.000000
125110.000000
126028.000000
126935.000000
127796.000000
128676.000000
129618.000000
130513.000000
131380.000000
132213.000000
132990.000000
133783.000000
134602.000000
135467.000000
136301.000000
137126.000000
137933.000000
138688.000000
139469.000000
140265.000000
141041.000000
141781.000000
142534.000000
143293.000000
144038.000000
144819.000000
145551.000000
146284.000000
147003.000000
147762.000000
148593.000000
149537.000000
150377.000000
151200.000000
152014.000000
152870.000000
153785.000000
154716.000000
155596.000000
156470.000000
157403.000000
158370.000000
159330.000000
160242.000000
161188.000000
162184.000000
163119.000000
164021.000000
164867.000000
165650.000000
166558.000000
167536.000000
168449.000000
169406.000000
170397.000000
171344.000000
172279.000000
173274.000000
174275.000000
175202.000000
176131.000000
177094.000000
178023.000000
178880.000000
179726.000000
180595.000000
181433.000000
182279.000000
183226.000000
184215.000000
185134.000000
186018.000000
186887.000000
187720.000000
188577.000000
189502.000000
190472.000000
191401.000000
192396.000000
193425.000000
194414.000000
195384.000000
196330.000000
197325.000000
198278.000000
199179.000000
200166.000000
201187.000000
202165.000000
203135.000000
204139.000000
205077.000000
206055.000000
207043.000000
207970.000000
208834.000000
209715.000000
210622.000000
211444.000000
212221.000000
213069.000000
213896.000000
214828.000000
215788.000000
216723.000000
217695.000000
218627.000000
219497.000000
220413.000000
221337.000000
222192.000000
223092.000000
223951.000000
224760.000000
225580.000000
226482.000000
227393.000000
228290.000000
229205.000000
230127.000000
230985.000000
231880.000000
232838.000000
233772.000000
234651.000000
235528.000000
236488.000000
237380.000000
238277.000000
239211.000000
240131.000000
241024.000000
241947.000000
242839.000000
243714.000000
244629.000000
245593.000000
246536.000000
247501.000000
248439.000000
249319.000000
250229.000000
251175.000000
252048.000000
252940.000000
253851.000000
254774.000000
255646.000000
256545.000000
257486.000000
258369.000000
259238.000000
260129.000000
261027.000000
261886.000000
262750.000000
263698.000000
264634.000000
265509.000000
266429.000000
267371.000000
268260.000000
269137.000000
270017.000000
270902.000000
271730.000000
272546.000000
273359.000000
274123.000000
274913.000000
275743.000000
276571.000000
277363.000000
278152.000000
278998.000000
279874.000000
280731.000000
281571.000000
282384.000000
283162.000000
283952.000000
284747.000000
285520.000000
286259.000000
287030.000000
287907.000000
288913.000000
289846.000000
290696.000000
291520.000000
292363.000000
293220.000000
294038.000000
294825.000000
295616.000000
296444.000000
297291.000000
298123.000000
298948.000000
299761.000000
300561.000000
301368.000000
302144.000000
302960.000000
303800.000000
304652.000000
305494.000000
306330.000000
307194.000000
308028.000000
308844.000000
309591.000000
310291.000000
310975.000000
311624.000000
312245.000000
312856.000000
313477.000000
314125.000000
314862.000000
315655.000000
316517.000000
317441.000000
318330.000000
319130.000000
319937.000000
320791.000000
321664.000000
322516.000000
323358.000000
324167.000000
324980.000000
325772.000000
326544.000000
327284.000000
328024.000000
328779.000000
329589.000000
330339.000000
331086.000000
331852.000000
332653.000000
333439.000000
334230.000000
335126.000000
336002.000000
336912.000000
337857.000000
338749.000000
339583.000000
340439.000000
341284.000000
342189.000000
343111.000000
344074.000000
345068.000000
346018.000000
346895.000000
347543.000000
348445.000000
349259.000000
350211.000000
351230.000000
352221.000000
353181.000000
354187.000000
355146.000000
356052.000000
356917.000000
357721.000000
358518.000000
359305.000000
360094.000000
360895.000000
361702.000000
362493.000000
363262.000000
363999.000000
364777.000000
365642.000000
366491.000000
367374.000000
368264.000000
369112.000000
369939.000000
370807.000000
371714.000000
372574.000000
373401.000000
374240.000000
375162.000000
375981.000000
376785.000000
377653.000000
378607.000000
379600.000000
380576.000000
381480.000000
382398.000000
383366.000000
384319.000000
385215.000000
386129.000000
387046.000000
387937.000000
388765.000000
389535.000000
390292.000000
391064.000000
391804.000000
392539.000000
393279.000000
394049.000000
394843.000000
395636.000000
396426.000000
397235.000000
398053.000000
398852.000000
399672.000000
400523.000000
401396.000000
402259.000000
403137.000000
403975.000000
404761.000000
405543.000000
406355.000000
407155.000000
407938.000000
408769.000000
409631.000000
410441.000000
411233.000000
412042.000000
412883.000000
413745.000000
414564.000000
415392.000000
416233.000000
417083.000000
417915.000000
418756.000000
419594.000000
420377.000000
421210.000000
422062.000000
422926.000000
423800.000000
424653.000000
425464.000000
426285.000000
427100.000000
427946.000000
428784.000000
429624.000000
430442.000000
431244.000000
432036.000000
432791.000000
433543.000000
434325.000000
435158.000000
436034.000000
436865.000000
437695.000000
438527.000000
439367.000000
440192.000000
441046.000000
441918.000000
442770.000000
443562.000000
444309.000000
445062.000000
445843.000000
446718.000000
447623.000000
448549.000000
449441.000000
450380.000000
451423.000000
452475.000000
453537.000000
454550.000000
455553.000000
456524.000000
457481.000000
458358.000000
459185.000000
459966.000000
460735.000000
461580.000000
462425.000000
463248.000000
464023.000000
464779.000000
465538.000000
466336.000000
467149.000000
467941.000000
468737.000000
469507.000000
470249.000000
471015.000000
471838.000000
472656.000000
473513.000000
474418.000000
475292.000000
476119.000000
476985.000000
477878.000000
478759.000000
479606.000000
480572.000000
481437.000000
482345.000000
483272.000000
484358.000000
485057.000000
485559.000000
486058.000000
487005.000000
487909.000000
488772.000000
489602.000000
490427.000000
491245.000000
492032.000000
492797.000000
493567.000000
494364.000000
495186.000000
495997.000000
496880.000000
497799.000000
498694.000000
499513.000000
500339.000000
501232.000000
502105.000000
502953.000000
503839.000000
504648.000000
505458.000000
506293.000000
507114.000000
508005.000000
508962.000000
509936.000000
510845.000000
511785.000000
512692.000000
513579.000000
514421.000000
515270.000000
516145.000000
517038.000000
517948.000000
518850.000000
519779.000000
520730.000000
521704.000000
522617.000000
523542.000000
524540.000000
525473.000000
526355.000000
527308.000000
528225.000000
529115.000000
530028.000000
530995.000000
531959.000000
532940.000000
533829.000000
534711.000000
535632.000000
536572.000000
537506.000000
538391.000000
539221.000000
540006.000000
540827.000000
541686.000000
542644.000000
543561.000000
544415.000000
545204.000000
545966.000000
546699.000000
547411.000000
548126.000000
548859.000000
549739.000000
550626.000000
551580.000000
552570.000000
553541.000000
554464.000000
555293.000000
556103.000000
556882.000000
557676.000000
558738.000000
559805.000000
560802.000000
561799.000000
562853.000000
563903.000000
564882.000000
565912.000000
566955.000000
567966.000000
568955.000000
569935.000000
570915.000000
571844.000000
572739.000000
573627.000000
574601.000000
575538.000000
576477.000000
577437.000000
578397.000000
579302.000000
580257.000000
581223.000000
582139.000000
582987.000000
583852.000000
584754.000000
585658.000000
586524.000000
587451.000000
588425.000000
589338.000000
590248.000000
591175.000000
592055.000000
592890.000000
593737.000000
594592.000000
595451.000000
596262.000000
597105.000000
597963.000000
598812.000000
599647.000000
600449.000000
601214.000000
601991.000000
602805.000000
603664.000000
604452.000000
605247.000000
606082.000000
606905.000000
607751.000000
608630.000000
609524.000000
610415.000000
611268.000000
612162.000000
613099.000000
614033.000000
614909.000000
615769.000000
616656.000000
617592.000000
618502.000000
619438.000000
620350.000000
621270.000000
622223.000000
623178.000000
624118.000000
625041.000000
625935.000000
626812.000000
627607.000000
628352.000000
629100.000000
629940.000000
630895.000000
631794.000000
632661.000000
633590.000000
634473.000000
635273.000000
636084.000000
636928.000000
637749.000000
638624.000000
639608.000000
640582.000000
641481.000000
642446.000000
643514.000000
644508.000000
645468.000000
646439.000000
647394.000000
648321.000000
649289.000000
650262.000000
651189.000000
652180.000000
653147.000000
654064.000000
655035.000000
656003.000000
656941.000000
657859.000000
658758.000000
659612.000000
660445.000000
661251.000000
662084.000000
662938.000000
663833.000000
664716.000000
665555.000000
666392.000000
667253.000000
668139.000000
669012.000000
669855.000000
670655.000000
671477.000000
672364.000000
673198.000000
674020.000000
674855.000000
675657.000000
676426.000000
677238.000000
678045.000000
678891.000000
679821.000000
680780.000000
681681.000000
682602.000000
683551.000000
684462.000000
685323.000000
686220.000000
687162.000000
688062.000000
689031.000000
690036.000000
690999.000000
691939.000000
692785.000000
693627.000000
694548.000000
695482.000000
696388.000000
697329.000000
698333.000000
699321.000000
700253.000000
701213.000000
702173.000000
703147.000000
704064.000000
704925.000000
705770.000000
706652.000000
707459.000000
708258.000000
709071.000000
709903.000000
710832.000000
711719.000000
712594.000000
713456.000000
714329.000000
715186.000000
716117.000000
717050.000000
717924.000000
718837.000000
719764.000000
720674.000000
721589.000000
722434.000000
723237.000000
724056.000000
724918.000000
725824.000000
726692.000000
727592.000000
728438.000000
729247.000000
730178.000000
731105.000000
731967.000000
732783.000000
733634.000000
734557.000000
735428.000000
736339.000000
737323.000000
738274.000000
739178.000000
740135.000000
741090.000000
741991.000000
742919.000000
743818.000000
744666.000000
745511.000000
746376.000000
747222.000000
748067.000000
748914.000000
749729.000000
750556.000000
751413.000000
752258.000000
753079.000000
753960.000000
754864.000000
755726.000000
756637.000000
757582.000000
758494.000000
759432.000000
760357.000000
761273.000000
762187.000000
763089.000000
763962.000000
764763.000000
765556.000000
766382.000000
767269.000000
768145.000000
768964.000000
769792.000000
770618.000000
771436.000000
772260.000000
773045.000000
773832.000000
774624.000000
775476.000000
776348.000000
777226.000000
778038.000000
778812.000000
779543.000000
780276.000000
781024.000000
781783.000000
782567.000000
783412.000000
784210.000000
784959.000000
785733.000000
786535.000000
787365.000000
788201.000000
789044.000000
789847.000000
790652.000000
791473.000000
792239.000000
792969.000000
793688.000000
794434.000000
795226.000000
795979.000000
796704.000000
797412.000000
798106.000000
798812.000000
799691.000000
800646.000000
801607.000000
802530.000000
803402.000000
804277.000000
805153.000000
805967.000000
806731.000000
807522.000000
808349.000000
809159.000000
809977.000000
810855.000000
811763.000000
812674.000000
813536.000000
814414.000000
815304.000000
816182.000000
817026.000000
817884.000000
818766.000000
819670.000000
820559.000000
821402.000000
822205.000000
822987.000000
823748.000000
824482.000000
825254.000000
826107.000000
826944.000000
827847.000000
828778.000000
829696.000000
830572.000000
831480.000000
832384.000000
833269.000000
834125.000000
834994.000000
835851.000000
836683.000000
837509.000000
838369.000000
839192.000000
840031.000000
840864.000000
841733.000000
842593.000000
843438.000000
844314.000000
845179.000000
846031.000000
846823.000000
847590.000000
848365.000000
849154.000000
849925.000000
850738.000000
851562.000000
852359.000000
853118.000000
853872.000000
854618.000000
855388.000000
856215.000000
857074.000000
857928.000000
858770.000000
859647.000000
860552.000000
861421.000000
862226.000000
862993.000000
863747.000000
864490.000000
865274.000000
866066.000000
866859.000000
867711.000000
868564.000000
869381.000000
870200.000000
871005.000000
871773.000000
872551.000000
873380.000000
874199.000000
875005.000000
875829.000000
876705.000000
877546.000000
878410.000000
879240.000000
880029.000000
880849.000000
881714.000000
882577.000000
883412.000000
884285.000000
885159.000000
886003.000000
886900.000000
887834.000000
888751.000000
889629.000000
890461.000000
891252.000000
892050.000000
892865.000000
893666.000000
894457.000000
895253.000000
896117.000000
896969.000000
897816.000000
898713.000000
899649.000000
