ECG (ms)
269.000000
1382.000000
2454.000000
3467.000000
4482.000000
5613.000000
6813.000000
7951.000000
9053.000000
10137.000000
11235.000000
12384.000000
13537.000000
14692.000000
15765.000000
16793.000000
17869.000000
19009.000000
20150.000000
21224.000000
22260.000000
23305.000000
24364.000000
25340.000000
26252.000000
27235.000000
28274.000000
29375.000000
30502.000000
31593.000000
32618.000000
33651.000000
34740.000000
35836.000000
36916.000000
37963.000000
38973.000000
40007.000000
41166.000000
42329.000000
43481.000000
44600.000000
45657.000000
46720.000000
47854.000000
49025.000000
50172.000000
51259.000000
52320.000000
53340.000000
54372.000000
55482.000000
56645.000000
57794.000000
58914.000000
59979.000000
61035.000000
62121.000000
63237.000000
64366.000000
65465.000000
66514.000000
67533.000000
68601.000000
69753.000000
70910.000000
72015.000000
73092.000000
74111.000000
75123.000000
76259.000000
77372.000000
78456.000000
79527.000000
80577.000000
81675.000000
82843.000000
83999.000000
85107.000000
86181.000000
87307.000000
88506.000000
89654.000000
90777.000000
91837.000000
92896.000000
94052.000000
95209.000000
96334.000000
97442.000000
98508.000000
99579.000000
100735.000000
101874.000000
102954.000000
104004.000000
105029.000000
106073.000000
107216.000000
108389.000000
109549.000000
110655.000000
111712.000000
112730.000000
113789.000000
114954.000000
116113.000000
117254.000000
118333.000000
119354.000000
120401.000000
121573.000000
122746.000000
123891.000000
124996.000000
126042.000000
127125.000000
128302.000000
129434.000000
130508.000000
131525.000000
132557.000000
133690.000000
134838.000000
135936.000000
136960.000000
137956.000000
138985.000000
140116.000000
141252.000000
142376.000000
143406.000000
144424.000000
145457.000000
146545.000000
147630.000000
148700.000000
149690.000000
150703.000000
151705.000000
152601.000000
153500.000000
154487.000000
155453.000000
156444.000000
157505.000000
158580.000000
159627.000000
160620.000000
161583.000000
162550.000000
163617.000000
164719.000000
165808.000000
166825.000000
167817.000000
168829.000000
169922.000000
171026.000000
172115.000000
173145.000000
174175.000000
175278.000000
176367.000000
177398.000000
178420.000000
179517.000000
180644.000000
181750.000000
182782.000000
183856.000000
184968.000000
186082.000000
187175.000000
188186.000000
189192.000000
190250.000000
191395.000000
192509.000000
193537.000000
194569.000000
195667.000000
196774.000000
197844.000000
198856.000000
199868.000000
200940.000000
202036.000000
203126.000000
204154.000000
205253.000000
206403.000000
207491.000000
208516.000000
209547.000000
210613.000000
211669.000000
212658.000000
213724.000000
214831.000000
215867.000000
216878.000000
217937.000000
219007.000000
220004.000000
221047.000000
222113.000000
223157.000000
224170.000000
225254.000000
226368.000000
227394.000000
228458.000000
229558.000000
230574.000000
231594.000000
232676.000000
233690.000000
234667.000000
235694.000000
236772.000000
237800.000000
238764.000000
239759.000000
240807.000000
241796.000000
242774.000000
243818.000000
244852.000000
245889.000000
246842.000000
247764.000000
248715.000000
249658.000000
250535.000000
251424.000000
252383.000000
253302.000000
254280.000000
255279.000000
256284.000000
257226.000000
258209.000000
259202.000000
260156.000000
261081.000000
262045.000000
263066.000000
264089.000000
265058.000000
266064.000000
267098.000000
268120.000000
269083.000000
270055.000000
271126.000000
272240.000000
273378.000000
274426.000000
275440.000000
276465.000000
277595.000000
278673.000000
279667.000000
280629.000000
281635.000000
282646.000000
283627.000000
284618.000000
285653.000000
286703.000000
287680.000000
288604.000000
289551.000000
290413.000000
291251.000000
292174.000000
293119.000000
294090.000000
295127.000000
296215.000000
297292.000000
298294.000000
299317.000000
300350.000000
301409.000000
302410.000000
303427.000000
304513.000000
305599.000000
306617.000000
307664.000000
308778.000000
309844.000000
310847.000000
311915.000000
312999.000000
314009.000000
315078.000000
316160.000000
317185.000000
318198.000000
319264.000000
320255.000000
321245.000000
322275.000000
323315.000000
324328.000000
325409.000000
326499.000000
327485.000000
328482.000000
329540.000000
330589.000000
331575.000000
332615.000000
333662.000000
334641.000000
335611.000000
336583.000000
337460.000000
338308.000000
339150.000000
340027.000000
340979.000000
342019.000000
343051.000000
343970.000000
344908.000000
345918.000000
346981.000000
347962.000000
348914.000000
349956.000000
351052.000000
352115.000000
353118.000000
354155.000000
355268.000000
356361.000000
357391.000000
358477.000000
359597.000000
360628.000000
361666.000000
362762.000000
363835.000000
364847.000000
365898.000000
367000.000000
368052.000000
369086.000000
370187.000000
371274.000000
372309.000000
373352.000000
374467.000000
375524.000000
376550.000000
377624.000000
378727.000000
379764.000000
380773.000000
381851.000000
383003.000000
384077.000000
385119.000000
386247.000000
387396.000000
388479.000000
389492.000000
390561.000000
391651.000000
392649.000000
393692.000000
394774.000000
395786.000000
396884.000000
397989.000000
399030.000000
400116.000000
401214.000000
402200.000000
403201.000000
404183.000000
405078.000000
406044.000000
406945.000000
407792.000000
408647.000000
409516.000000
410452.000000
411504.000000
412585.000000
413637.000000
414579.000000
415544.000000
416572.000000
417597.000000
418547.000000
419541.000000
420650.000000
421690.000000
422714.000000
423818.000000
424907.000000
425918.000000
426993.000000
428105.000000
429138.000000
430150.000000
431251.000000
432334.000000
433338.000000
434421.000000
435529.000000
436557.000000
437606.000000
438697.000000
439741.000000
440735.000000
441786.000000
442858.000000
443856.000000
444890.000000
445914.000000
446825.000000
447659.000000
448557.000000
449619.000000
450584.000000
451519.000000
452530.000000
453497.000000
454426.000000
455468.000000
456532.000000
457486.000000
458509.000000
459589.000000
460565.000000
461559.000000
462646.000000
463686.000000
464651.000000
465710.000000
466843.000000
467895.000000
469001.000000
470098.000000
471125.000000
472208.000000
473283.000000
474278.000000
475335.000000
476432.000000
477440.000000
478500.000000
479606.000000
480623.000000
481669.000000
482774.000000
483832.000000
484837.000000
485906.000000
486971.000000
487976.000000
489046.000000
490168.000000
491217.000000
492235.000000
493289.000000
494315.000000
495302.000000
496329.000000
497310.000000
498257.000000
499348.000000
500450.000000
501514.000000
502489.000000
503491.000000
504467.000000
505351.000000
506187.000000
507080.000000
507995.000000
509032.000000
510142.000000
511198.000000
512150.000000
513158.000000
514231.000000
515319.000000
516317.000000
517262.000000
518246.000000
519414.000000
520541.000000
521553.000000
522593.000000
523745.000000
524936.000000
526029.000000
527073.000000
528183.000000
529316.000000
530373.000000
531478.000000
532641.000000
533738.000000
534799.000000
535922.000000
537021.000000
538046.000000
539096.000000
540195.000000
541255.000000
542282.000000
543391.000000
544471.000000
545476.000000
546543.000000
547612.000000
548590.000000
549621.000000
550724.000000
551742.000000
552807.000000
553897.000000
554912.000000
555904.000000
556956.000000
558036.000000
559099.000000
560085.000000
561128.000000
562217.000000
563291.000000
564325.000000
565418.000000
566482.000000
567523.000000
568637.000000
569740.000000
570765.000000
571857.000000
572991.000000
574097.000000
575122.000000
576160.000000
577284.000000
578409.000000
579433.000000
580437.000000
581519.000000
582644.000000
583712.000000
584707.000000
585761.000000
586864.000000
587899.000000
588901.000000
589983.000000
591108.000000
592170.000000
593112.000000
594014.000000
594858.000000
595717.000000
596678.000000
597613.000000
598637.000000
599721.000000
600718.000000
601702.000000
602724.000000
603763.000000
604782.000000
605726.000000
606670.000000
607725.000000
608822.000000
609925.000000
610952.000000
612012.000000
613152.000000
614298.000000
615405.000000
616452.000000
617551.000000
618688.000000
619769.000000
620787.000000
621869.000000
622999.000000
624063.000000
625083.000000
626156.000000
627236.000000
628265.000000
629250.000000
630309.000000
631369.000000
632353.000000
633327.000000
634194.000000
635027.000000
635860.000000
636673.000000
637506.000000
638390.000000
639398.000000
640429.000000
641337.000000
642263.000000
643268.000000
644314.000000
645278.000000
646186.000000
647171.000000
648188.000000
649184.000000
650129.000000
651209.000000
652293.000000
653198.000000
654146.000000
655131.000000
656019.000000
656877.000000
657734.000000
658635.000000
659679.000000
660782.000000
661797.000000
662747.000000
663775.000000
664837.000000
665843.000000
666769.000000
667745.000000
668847.000000
669914.000000
670911.000000
671944.000000
673032.000000
674127.000000
675142.000000
676208.000000
677282.000000
678286.000000
679316.000000
680418.000000
681511.000000
682541.000000
683585.000000
684681.000000
685754.000000
686744.000000
687770.000000
688836.000000
689876.000000
690868.000000
691928.000000
692999.000000
694041.000000
694943.000000
695769.000000
696620.000000
697592.000000
698703.000000
699698.000000
700684.000000
701752.000000
702803.000000
703795.000000
704816.000000
705885.000000
706937.000000
707899.000000
708890.000000
709967.000000
711044.000000
712042.000000
713101.000000
714195.000000
715234.000000
716242.000000
717316.000000
718391.000000
719404.000000
720458.000000
721580.000000
722636.000000
723633.000000
724708.000000
725832.000000
726863.000000
727899.000000
729006.000000
730109.000000
731119.000000
732196.000000
733332.000000
734426.000000
735453.000000
736534.000000
737683.000000
738779.000000
739809.000000
740908.000000
741923.000000
742973.000000
744108.000000
745174.000000
746198.000000
747287.000000
748349.000000
749345.000000
750402.000000
751525.000000
752629.000000
753649.000000
754722.000000
755836.000000
756927.000000
757944.000000
759030.000000
760106.000000
761080.000000
762076.000000
763127.000000
764199.000000
765177.000000
766198.000000
767212.000000
768159.000000
769061.000000
770049.000000
771059.000000
771944.000000
772768.000000
773576.000000
774445.000000
775443.000000
776448.000000
777336.000000
778295.000000
779321.000000
780324.000000
781238.000000
782214.000000
783263.000000
784288.000000
785220.000000
786271.000000
787357.000000
788390.000000
789373.000000
790455.000000
791524.000000
792480.000000
793431.000000
794518.000000
795644.000000
796653.000000
797716.000000
798808.000000
799858.000000
800871.000000
801941.000000
803065.000000
804103.000000
805153.000000
806243.000000
807311.000000
808323.000000
809395.000000
810487.000000
811504.000000
812513.000000
813600.000000
814632.000000
815622.000000
816667.000000
817681.000000
818617.000000
819625.000000
820742.000000
821771.000000
822768.000000
823826.000000
824788.000000
825652.000000
826490.000000
827325.000000
828276.000000
829397.000000
830476.000000
831532.000000
832524.000000
833541.000000
834633.000000
835751.000000
836853.000000
837898.000000
838986.000000
840194.000000
841382.000000
842537.000000
843608.000000
844705.000000
845856.000000
846991.000000
848109.000000
849135.000000
850192.000000
851279.000000
852300.000000
853375.000000
854527.000000
855597.000000
856604.000000
857655.000000
858707.000000
859675.000000
860665.000000
861712.000000
862756.000000
863752.000000
864802.000000
865779.000000
866662.000000
867490.000000
868323.000000
869262.000000
870356.000000
871408.000000
872370.000000
873358.000000
874425.000000
875486.000000
876477.000000
877517.000000
878601.000000
879674.000000
880688.000000
881770.000000
882889.000000
883974.000000
884986.000000
886093.000000
887255.000000
888358.000000
889352.000000
890404.000000
891524.000000
892574.000000
893596.000000
894699.000000
895776.000000
896759.000000
897766.000000
898840.000000
