ECG (ms)
40.000000
1000.000000
1946.000000
2886.000000
3848.000000
4748.000000
5651.000000
6615.000000
7536.000000
8416.000000
9348.000000
10301.000000
11151.000000
12029.000000
12944.000000
13828.000000
14677.000000
15589.000000
16536.000000
17401.000000
18303.000000
19249.000000
20111.000000
20965.000000
21848.000000
22736.000000
23568.000000
24468.000000
25443.000000
26332.000000
27218.000000
28162.000000
29052.000000
29905.000000
30808.000000
31723.000000
32564.000000
33465.000000
34336.000000
35143.000000
35975.000000
36860.000000
37695.000000
38566.000000
39479.000000
40377.000000
41243.000000
42155.000000
43091.000000
43960.000000
44860.000000
45760.000000
46591.000000
47446.000000
48332.000000
49209.000000
50039.000000
50948.000000
51892.000000
52764.000000
53687.000000
54655.000000
55531.000000
56409.000000
57305.000000
58198.000000
59060.000000
60007.000000
60958.000000
61800.000000
62662.000000
63573.000000
64494.000000
65317.000000
66164.000000
67065.000000
67977.000000
68810.000000
69673.000000
70585.000000
71476.000000
72324.000000
73218.000000
74144.000000
75020.000000
75912.000000
76838.000000
77754.000000
78587.000000
79439.000000
80329.000000
81234.000000
82066.000000
82916.000000
83838.000000
84731.000000
85569.000000
86454.000000
87339.000000
88153.000000
88921.000000
89652.000000
90384.000000
91168.000000
91917.000000
92674.000000
93520.000000
94437.000000
95251.000000
96122.000000
97053.000000
97936.000000
98747.000000
99632.000000
100532.000000
101347.000000
102188.000000
103098.000000
103984.000000
104808.000000
105691.000000
106619.000000
107466.000000
108362.000000
109285.000000
110138.000000
110956.000000
111804.000000
112684.000000
113494.000000
114348.000000
115267.000000
116120.000000
117029.000000
117985.000000
118883.000000
119755.000000
120648.000000
121486.000000
122265.000000
123056.000000
123873.000000
124648.000000
125479.000000
126378.000000
127175.000000
127987.000000
128838.000000
129626.000000
130390.000000
131238.000000
132093.000000
132848.000000
133632.000000
134474.000000
135264.000000
136111.000000
137053.000000
137994.000000
138888.000000
139831.000000
140719.000000
141540.000000
142404.000000
143270.000000
144068.000000
144934.000000
145840.000000
146669.000000
147551.000000
148486.000000
149348.000000
150187.000000
151046.000000
151918.000000
152761.000000
153680.000000
154634.000000
155497.000000
156410.000000
157367.000000
158231.000000
159169.000000
160146.000000
161007.000000
161883.000000
162786.000000
163623.000000
164442.000000
165325.000000
166183.000000
167005.000000
167903.000000
168759.000000
169573.000000
170407.000000
171255.000000
172038.000000
172848.000000
173695.000000
174497.000000
175328.000000
176208.000000
177030.000000
177833.000000
178676.000000
179514.000000
180298.000000
181099.000000
181917.000000
182700.000000
183497.000000
184338.000000
185144.000000
185923.000000
186729.000000
187526.000000
188289.000000
189117.000000
189985.000000
190768.000000
191560.000000
192375.000000
193147.000000
193910.000000
194713.000000
195529.000000
196278.000000
197046.000000
197846.000000
198611.000000
199375.000000
200182.000000
200970.000000
201741.000000
202577.000000
203456.000000
204239.000000
205026.000000
205843.000000
206620.000000
207389.000000
208207.000000
209028.000000
209803.000000
210651.000000
211555.000000
212373.000000
213200.000000
214072.000000
214919.000000
215713.000000
216531.000000
217352.000000
218122.000000
218935.000000
219808.000000
220616.000000
221447.000000
222339.000000
223264.000000
224095.000000
224939.000000
225801.000000
226641.000000
227503.000000
228434.000000
229332.000000
230191.000000
231076.000000
231944.000000
232722.000000
233457.000000
234178.000000
234989.000000
235906.000000
236860.000000
237748.000000
238657.000000
239637.000000
240612.000000
241530.000000
242538.000000
243521.000000
244435.000000
245366.000000
246316.000000
247142.000000
247990.000000
248883.000000
249726.000000
250574.000000
251522.000000
252430.000000
253300.000000
254168.000000
255030.000000
255830.000000
256658.000000
257542.000000
258370.000000
259240.000000
260149.000000
261008.000000
261932.000000
262851.000000
263712.000000
264610.000000
265510.000000
266353.000000
267242.000000
268151.000000
268997.000000
269893.000000
270799.000000
271655.000000
272574.000000
273529.000000
274388.000000
275280.000000
276200.000000
277051.000000
277940.000000
278839.000000
279708.000000
280637.000000
281619.000000
282492.000000
283333.000000
284175.000000
284988.000000
285781.000000
286636.000000
287554.000000
288390.000000
289269.000000
290162.000000
290976.000000
291798.000000
292672.000000
293485.000000
294280.000000
295101.000000
295910.000000
296668.000000
297443.000000
298210.000000
298942.000000
299658.000000
300356.000000
301070.000000
301832.000000
302557.000000
303306.000000
304106.000000
304881.000000
305623.000000
306402.000000
307213.000000
307964.000000
308736.000000
309553.000000
310335.000000
311103.000000
311928.000000
312763.000000
313542.000000
314384.000000
315218.000000
315981.000000
316755.000000
317602.000000
318480.000000
319304.000000
320207.000000
321144.000000
321982.000000
322858.000000
323768.000000
324599.000000
325423.000000
326269.000000
327093.000000
327896.000000
328773.000000
329696.000000
330540.000000
331451.000000
332352.000000
333175.000000
334043.000000
334930.000000
335739.000000
336580.000000
337447.000000
338261.000000
339128.000000
340032.000000
340865.000000
341704.000000
342579.000000
343392.000000
344225.000000
345073.000000
345882.000000
346735.000000
347637.000000
348478.000000
349339.000000
350224.000000
351045.000000
351876.000000
352714.000000
353506.000000
354330.000000
355202.000000
356062.000000
356887.000000
357780.000000
358707.000000
359547.000000
360388.000000
361238.000000
362053.000000
362841.000000
363668.000000
364512.000000
365315.000000
366150.000000
367048.000000
367942.000000
368796.000000
369723.000000
370704.000000
371612.000000
372573.000000
373549.000000
374445.000000
375366.000000
376336.000000
377218.000000
378117.000000
379074.000000
379963.000000
380895.000000
381896.000000
382832.000000
383749.000000
384697.000000
385578.000000
386499.000000
387474.000000
388352.000000
389244.000000
390192.000000
391065.000000
391919.000000
392894.000000
393884.000000
394848.000000
395902.000000
396946.000000
397883.000000
398879.000000
399922.000000
400857.000000
401847.000000
402859.000000
403775.000000
404748.000000
405798.000000
406724.000000
407692.000000
408686.000000
409576.000000
410512.000000
411484.000000
412342.000000
413257.000000
414236.000000
415164.000000
416048.000000
416998.000000
417920.000000
418793.000000
419708.000000
420620.000000
421464.000000
422376.000000
423327.000000
424224.000000
425201.000000
426159.000000
427025.000000
427901.000000
428767.000000
429588.000000
430484.000000
431457.000000
432342.000000
433299.000000
434303.000000
435178.000000
436050.000000
436968.000000
437825.000000
438640.000000
439497.000000
440371.000000
441196.000000
442079.000000
442994.000000
443845.000000
444726.000000
445668.000000
446554.000000
447382.000000
448242.000000
449101.000000
449893.000000
450729.000000
451585.000000
452372.000000
453156.000000
453966.000000
454792.000000
455582.000000
456432.000000
457291.000000
458074.000000
458877.000000
459729.000000
460554.000000
461322.000000
462110.000000
462910.000000
463658.000000
464428.000000
465244.000000
466021.000000
466770.000000
467587.000000
468430.000000
469187.000000
469979.000000
470808.000000
471577.000000
472358.000000
473178.000000
473975.000000
474714.000000
475483.000000
476285.000000
477044.000000
477794.000000
478559.000000
479294.000000
480017.000000
480734.000000
481427.000000
482116.000000
482799.000000
483488.000000
484212.000000
484956.000000
485665.000000
486377.000000
487121.000000
487895.000000
488615.000000
489354.000000
490129.000000
490898.000000
491626.000000
492402.000000
493217.000000
493964.000000
494731.000000
495526.000000
496302.000000
497038.000000
497819.000000
498639.000000
499388.000000
500204.000000
501093.000000
501899.000000
502727.000000
503633.000000
504492.000000
505353.000000
506269.000000
507133.000000
507995.000000
508917.000000
509818.000000
510673.000000
511575.000000
512503.000000
513344.000000
514227.000000
515182.000000
516089.000000
516992.000000
517933.000000
518844.000000
519688.000000
520575.000000
521466.000000
522279.000000
523129.000000
524059.000000
524934.000000
525855.000000
526833.000000
527701.000000
528600.000000
529538.000000
530407.000000
531248.000000
532085.000000
532935.000000
533759.000000
534639.000000
535605.000000
536545.000000
537426.000000
538320.000000
539170.000000
539961.000000
540782.000000
541635.000000
542439.000000
543283.000000
544191.000000
545058.000000
545891.000000
546781.000000
547620.000000
548421.000000
549259.000000
550111.000000
550916.000000
551767.000000
552651.000000
553455.000000
554295.000000
555154.000000
555946.000000
556756.000000
557583.000000
558368.000000
559129.000000
559906.000000
560687.000000
561426.000000
562202.000000
563034.000000
563849.000000
564614.000000
565421.000000
566256.000000
567023.000000
567797.000000
568595.000000
569396.000000
570149.000000
570942.000000
571788.000000
572557.000000
573360.000000
574198.000000
575022.000000
575774.000000
576572.000000
577411.000000
578189.000000
578975.000000
579800.000000
580579.000000
581340.000000
582165.000000
582970.000000
583740.000000
584582.000000
585453.000000
586261.000000
587151.000000
588138.000000
589029.000000
589940.000000
590859.000000
591710.000000
592591.000000
593470.000000
594296.000000
595184.000000
596140.000000
597009.000000
597923.000000
598871.000000
599782.000000
600740.000000
601716.000000
602613.000000
603561.000000
604540.000000
605421.000000
606359.000000
607378.000000
608298.000000
609247.000000
610197.000000
611070.000000
612010.000000
613002.000000
613926.000000
614752.000000
615630.000000
616607.000000
617581.000000
618483.000000
619418.000000
620381.000000
621256.000000
622172.000000
623160.000000
624105.000000
624985.000000
625931.000000
626876.000000
627732.000000
628617.000000
629547.000000
630426.000000
631352.000000
632296.000000
633180.000000
634074.000000
635048.000000
635974.000000
636823.000000
637688.000000
638562.000000
639378.000000
640234.000000
641145.000000
642043.000000
642858.000000
643704.000000
644597.000000
645483.000000
646286.000000
647117.000000
647998.000000
648852.000000
649730.000000
650673.000000
651595.000000
652476.000000
653390.000000
654306.000000
655150.000000
656031.000000
656957.000000
657808.000000
658675.000000
659560.000000
660389.000000
661245.000000
662139.000000
662994.000000
663788.000000
664589.000000
665409.000000
666264.000000
667074.000000
667933.000000
668853.000000
669713.000000
670585.000000
671466.000000
672281.000000
673129.000000
674048.000000
674944.000000
675767.000000
676623.000000
677467.000000
678243.000000
678989.000000
679726.000000
680511.000000
681380.000000
682242.000000
683091.000000
683996.000000
684935.000000
685866.000000
686720.000000
687592.000000
688463.000000
689302.000000
690163.000000
691045.000000
691919.000000
692739.000000
693603.000000
694487.000000
695309.000000
696143.000000
696963.000000
697737.000000
698521.000000
699323.000000
700146.000000
700938.000000
701743.000000
702563.000000
703357.000000
704178.000000
705017.000000
705824.000000
706589.000000
707375.000000
708204.000000
709003.000000
709822.000000
710674.000000
711491.000000
712312.000000
713168.000000
714044.000000
714876.000000
715784.000000
716773.000000
717732.000000
718603.000000
719447.000000
720217.000000
720947.000000
721671.000000
722407.000000
723179.000000
724105.000000
725031.000000
725865.000000
726715.000000
727625.000000
728523.000000
729338.000000
730168.000000
731054.000000
731899.000000
732719.000000
733598.000000
734515.000000
735350.000000
736236.000000
737187.000000
738060.000000
738983.000000
739943.000000
740791.000000
741652.000000
742534.000000
743392.000000
744232.000000
745147.000000
746092.000000
746964.000000
747869.000000
748819.000000
749738.000000
750662.000000
751577.000000
752411.000000
753212.000000
754051.000000
754938.000000
755787.000000
756618.000000
757511.000000
758427.000000
759276.000000
760084.000000
760918.000000
761757.000000
762544.000000
763351.000000
764179.000000
764971.000000
765802.000000
766636.000000
767428.000000
768249.000000
769078.000000
769869.000000
770668.000000
771488.000000
772283.000000
773056.000000
773883.000000
774719.000000
775489.000000
776301.000000
777135.000000
777899.000000
778672.000000
779475.000000
780279.000000
781056.000000
781872.000000
782715.000000
783516.000000
784311.000000
785165.000000
786003.000000
786804.000000
787657.000000
788478.000000
789266.000000
790104.000000
790939.000000
791732.000000
792594.000000
793532.000000
794376.000000
795258.000000
796188.000000
797058.000000
797975.000000
798948.000000
799807.000000
800688.000000
801597.000000
802477.000000
803283.000000
804107.000000
805028.000000
805981.000000
806861.000000
807741.000000
808662.000000
809564.000000
810385.000000
811244.000000
812210.000000
813180.000000
814053.000000
814969.000000
815923.000000
816804.000000
817609.000000
818456.000000
819413.000000
820342.000000
821215.000000
822129.000000
823053.000000
823890.000000
824757.000000
825645.000000
826486.000000
827336.000000
828262.000000
829123.000000
829959.000000
830813.000000
831657.000000
832458.000000
833320.000000
834215.000000
835059.000000
835937.000000
836844.000000
837696.000000
838563.000000
839452.000000
840313.000000
841212.000000
842188.000000
843071.000000
843967.000000
844887.000000
845751.000000
846588.000000
847478.000000
848412.000000
849307.000000
850268.000000
851249.000000
852166.000000
853032.000000
853929.000000
854807.000000
855674.000000
856576.000000
857483.000000
858317.000000
859210.000000
860143.000000
860986.000000
861781.000000
862591.000000
863442.000000
864347.000000
865203.000000
866102.000000
867037.000000
867908.000000
868785.000000
869708.000000
870662.000000
871533.000000
872418.000000
873303.000000
874140.000000
874980.000000
875849.000000
876725.000000
877549.000000
878410.000000
879338.000000
880217.000000
881030.000000
881908.000000
882833.000000
883675.000000
884438.000000
885171.000000
885936.000000
886815.000000
887749.000000
888702.000000
889576.000000
890475.000000
891463.000000
892451.000000
893361.000000
894276.000000
895221.000000
896118.000000
896957.000000
897849.000000
898777.000000
899625.000000
900503.000000
901403.000000
902238.000000
903089.000000
903990.000000
904836.000000
905712.000000
906633.000000
907489.000000
908343.000000
909218.000000
910075.000000
910889.000000
911751.000000
912640.000000
913455.000000
914273.000000
915123.000000
915965.000000
916761.000000
917582.000000
918435.000000
919261.000000
920072.000000
920924.000000
921781.000000
922588.000000
923430.000000
924306.000000
925144.000000
926003.000000
926878.000000
927704.000000
928511.000000
929361.000000
930236.000000
931067.000000
931936.000000
932819.000000
933676.000000
934555.000000
935423.000000
936243.000000
937089.000000
937981.000000
938852.000000
939692.000000
940563.000000
941433.000000
942246.000000
943077.000000
943935.000000
944789.000000
945598.000000
946458.000000
947339.000000
948174.000000
949048.000000
949950.000000
950786.000000
951659.000000
952590.000000
953478.000000
954315.000000
955186.000000
956071.000000
956891.000000
957747.000000
958649.000000
959532.000000
960342.000000
961187.000000
962060.000000
962878.000000
963714.000000
964618.000000
965516.000000
966320.000000
967114.000000
967993.000000
968920.000000
969769.000000
970624.000000
971532.000000
972414.000000
973331.000000
974305.000000
975186.000000
976089.000000
977015.000000
977860.000000
978691.000000
979524.000000
980331.000000
981125.000000
982022.000000
983068.000000
983991.000000
984972.000000
986004.000000
986891.000000
987738.000000
988605.000000
989432.000000
990215.000000
991014.000000
991874.000000
992721.000000
993566.000000
994502.000000
995442.000000
996292.000000
997169.000000
998011.000000
998813.000000
999636.000000
1000467.000000
1001264.000000
1002101.000000
1002974.000000
1003782.000000
1004596.000000
1005418.000000
1006190.000000
1006974.000000
1007789.000000
1008612.000000
1009398.000000
1010195.000000
1011020.000000
1011808.000000
1012634.000000
1013462.000000
1014221.000000
1015016.000000
1015841.000000
1016607.000000
1017362.000000
1018156.000000
1018997.000000
1019784.000000
1020633.000000
1021533.000000
1022379.000000
1023238.000000
1024133.000000
1024945.000000
1025765.000000
1026625.000000
1027424.000000
1028238.000000
1029076.000000
1029875.000000
1030632.000000
1031431.000000
1032278.000000
1033082.000000
1033890.000000
1034718.000000
1035503.000000
1036279.000000
1037092.000000
1037920.000000
1038704.000000
1039507.000000
1040325.000000
1041109.000000
1041919.000000
1042751.000000
1043549.000000
1044360.000000
1045195.000000
1045982.000000
1046797.000000
1047619.000000
1048404.000000
1049234.000000
1050076.000000
1050866.000000
1051648.000000
1052434.000000
1053212.000000
1053956.000000
1054724.000000
1055526.000000
1056285.000000
1057028.000000
1057804.000000
1058578.000000
1059306.000000
1060060.000000
1060796.000000
1061494.000000
1062189.000000
1062890.000000
1063594.000000
1064342.000000
1065120.000000
1065854.000000
1066574.000000
1067340.000000
1068131.000000
1068871.000000
1069641.000000
1070466.000000
1071266.000000
1072012.000000
1072797.000000
1073666.000000
1074527.000000
1075328.000000
1076170.000000
1077049.000000
1077840.000000
1078667.000000
1079550.000000
1080374.000000
1081235.000000
1082148.000000
1082989.000000
1083854.000000
1084708.000000
1085494.000000
1086277.000000
1087122.000000
1087983.000000
1088810.000000
1089676.000000
1090554.000000
1091389.000000
1092272.000000
1093180.000000
1094022.000000
1094875.000000
1095806.000000
1096718.000000
1097570.000000
1098515.000000
1099499.000000
1100399.000000
1101333.000000
1102282.000000
1103147.000000
1104033.000000
1105009.000000
1105912.000000
1106854.000000
1107875.000000
1108789.000000
1109770.000000
1110751.000000
1111627.000000
1112511.000000
1113390.000000
1114215.000000
1115083.000000
1116047.000000
1116992.000000
1117843.000000
1118745.000000
1119656.000000
1120513.000000
1121437.000000
1122371.000000
1123203.000000
1124054.000000
1124892.000000
1125675.000000
1126483.000000
1127349.000000
1128235.000000
1129070.000000
1129951.000000
1130862.000000
1131703.000000
1132580.000000
1133472.000000
1134280.000000
1135108.000000
1135949.000000
1136762.000000
1137553.000000
1138383.000000
1139280.000000
1140099.000000
1140844.000000
1141565.000000
1142307.000000
1143208.000000
1144101.000000
1144999.000000
1145840.000000
1146697.000000
1147590.000000
1148476.000000
1149288.000000
1150110.000000
1150943.000000
1151771.000000
1152557.000000
1153372.000000
1154214.000000
1155017.000000
1155843.000000
1156697.000000
1157536.000000
1158338.000000
1159140.000000
1159922.000000
1160693.000000
1161526.000000
1162387.000000
1163188.000000
1164021.000000
1164868.000000
1165684.000000
1166495.000000
1167326.000000
1168189.000000
1169024.000000
1169886.000000
1170765.000000
1171643.000000
1172460.000000
1173300.000000
1174190.000000
1175088.000000
1175905.000000
1176751.000000
1177632.000000
1178478.000000
1179357.000000
1180254.000000
1181135.000000
1181974.000000
1182866.000000
1183805.000000
1184664.000000
1185521.000000
1186387.000000
1187193.000000
1188021.000000
1188900.000000
1189751.000000
1190629.000000
1191644.000000
1192596.000000
1193538.000000
1194439.000000
