ECG (ms)
716.000000
1475.000000
2274.000000
3056.000000
3842.000000
4615.000000
5385.000000
6192.000000
7011.000000
7850.000000
8677.000000
9495.000000
10299.000000
11067.000000
11817.000000
12565.000000
13298.000000
14031.000000
14784.000000
15589.000000
16430.000000
17255.000000
18100.000000
18895.000000
19647.000000
20404.000000
21141.000000
21863.000000
22592.000000
23326.000000
24080.000000
24833.000000
25637.000000
26458.000000
27281.000000
28066.000000
28815.000000
29566.000000
30297.000000
31017.000000
31732.000000
32458.000000
33198.000000
33967.000000
34814.000000
35656.000000
36478.000000
37259.000000
38022.000000
38780.000000
39543.000000
40303.000000
41057.000000
41795.000000
42536.000000
43287.000000
44095.000000
44924.000000
45734.000000
46527.000000
47303.000000
48051.000000
48779.000000
49503.000000
50222.000000
50939.000000
51667.000000
52425.000000
53209.000000
54006.000000
54784.000000
55547.000000
56295.000000
57026.000000
57739.000000
58446.000000
59142.000000
59837.000000
60555.000000
61315.000000
62083.000000
62864.000000
63632.000000
64387.000000
65123.000000
65824.000000
66522.000000
67210.000000
67922.000000
68655.000000
69406.000000
70159.000000
70895.000000
71614.000000
72311.000000
73007.000000
73689.000000
74387.000000
75078.000000
75783.000000
76509.000000
77269.000000
78027.000000
78778.000000
79515.000000
80235.000000
80953.000000
81656.000000
82346.000000
83036.000000
83723.000000
84411.000000
85117.000000
85852.000000
86601.000000
87348.000000
88076.000000
88790.000000
89491.000000
90182.000000
90860.000000
91549.000000
92234.000000
92926.000000
93638.000000
94361.000000
95106.000000
95841.000000
96562.000000
97266.000000
97965.000000
98651.000000
99327.000000
99977.000000
100640.000000
101295.000000
101988.000000
102688.000000
103387.000000
104093.000000
104801.000000
105524.000000
106279.000000
107033.000000
107783.000000
108519.000000
109230.000000
109919.000000
110608.000000
111295.000000
111978.000000
112664.000000
113369.000000
114097.000000
114843.000000
115611.000000
116367.000000
117114.000000
117845.000000
118546.000000
119245.000000
119946.000000
120644.000000
121376.000000
122130.000000
122890.000000
123631.000000
124358.000000
125070.000000
125778.000000
126472.000000
127175.000000
127874.000000
128594.000000
129328.000000
130059.000000
130790.000000
131512.000000
132228.000000
132929.000000
133628.000000
134313.000000
135011.000000
135736.000000
136466.000000
137213.000000
137944.000000
138670.000000
139390.000000
140113.000000
140825.000000
141530.000000
142228.000000
142939.000000
143694.000000
144451.000000
145205.000000
145933.000000
146642.000000
147340.000000
148042.000000
148748.000000
149463.000000
150207.000000
150957.000000
151731.000000
152526.000000
153330.000000
154128.000000
154916.000000
155682.000000
156423.000000
157143.000000
157863.000000
158584.000000
159322.000000
160075.000000
160856.000000
161644.000000
162433.000000
163193.000000
163926.000000
164651.000000
165363.000000
166067.000000
166762.000000
167468.000000
168179.000000
168915.000000
169688.000000
170458.000000
171229.000000
171993.000000
172738.000000
173473.000000
174186.000000
174898.000000
175618.000000
176338.000000
177057.000000
177809.000000
178567.000000
179327.000000
180080.000000
180829.000000
181573.000000
182305.000000
183031.000000
183745.000000
184456.000000
185171.000000
185893.000000
186666.000000
187452.000000
188235.000000
189012.000000
189783.000000
190528.000000
191253.000000
191968.000000
192678.000000
193162.000000
194105.000000
194779.000000
195465.000000
196169.000000
196895.000000
197634.000000
198376.000000
199108.000000
199840.000000
200550.000000
201276.000000
201998.000000
202725.000000
203461.000000
204216.000000
204957.000000
205693.000000
206415.000000
207126.000000
207838.000000
208546.000000
209243.000000
209923.000000
210601.000000
211316.000000
212049.000000
212786.000000
213529.000000
214263.000000
214984.000000
215697.000000
216406.000000
217110.000000
217820.000000
218539.000000
219278.000000
220040.000000
220813.000000
221573.000000
222324.000000
223051.000000
223772.000000
224495.000000
225215.000000
225933.000000
226654.000000
227369.000000
228096.000000
228875.000000
229683.000000
230478.000000
231257.000000
232023.000000
232765.000000
233491.000000
234218.000000
234937.000000
235666.000000
236433.000000
237227.000000
238020.000000
238787.000000
239552.000000
240293.000000
241028.000000
241752.000000
242475.000000
243197.000000
243922.000000
244667.000000
245437.000000
246225.000000
246991.000000
247744.000000
248479.000000
249210.000000
249937.000000
250677.000000
251395.000000
252126.000000
252872.000000
253635.000000
254398.000000
255171.000000
255949.000000
256719.000000
257485.000000
258260.000000
259007.000000
259756.000000
260517.000000
261295.000000
262095.000000
262903.000000
263689.000000
264478.000000
265234.000000
265980.000000
266715.000000
267433.000000
268143.000000
268853.000000
269568.000000
270326.000000
271107.000000
271910.000000
272685.000000
273461.000000
274220.000000
274954.000000
275670.000000
276386.000000
277098.000000
277808.000000
278536.000000
279297.000000
280060.000000
280832.000000
281585.000000
282322.000000
283044.000000
283754.000000
284469.000000
285187.000000
285891.000000
286607.000000
287347.000000
288106.000000
288877.000000
289637.000000
290374.000000
291101.000000
291809.000000
292517.000000
293230.000000
293955.000000
294706.000000
295456.000000
296199.000000
296935.000000
297672.000000
298390.000000
299099.000000
299820.000000
300548.000000
301300.000000
302032.000000
302762.000000
303483.000000
304208.000000
304909.000000
305608.000000
306285.000000
306968.000000
307640.000000
308322.000000
309025.000000
309736.000000
310467.000000
311199.000000
311935.000000
312646.000000
313344.000000
314056.000000
314766.000000
315477.000000
316181.000000
316887.000000
317608.000000
318337.000000
319112.000000
319872.000000
320603.000000
321286.000000
321942.000000
322592.000000
323271.000000
323962.000000
324651.000000
325356.000000
326088.000000
326829.000000
327584.000000
328326.000000
329063.000000
329785.000000
330499.000000
331224.000000
331978.000000
332732.000000
333489.000000
334245.000000
334988.000000
335748.000000
336486.000000
337229.000000
337961.000000
338722.000000
339490.000000
340258.000000
341024.000000
341803.000000
342563.000000
343315.000000
344058.000000
344804.000000
345555.000000
346303.000000
347042.000000
347785.000000
348519.000000
349258.000000
350022.000000
350811.000000
351595.000000
352366.000000
353134.000000
353870.000000
354596.000000
355309.000000
356034.000000
356794.000000
357545.000000
358313.000000
359080.000000
359841.000000
360589.000000
361328.000000
362052.000000
362800.000000
363568.000000
364338.000000
365101.000000
365859.000000
366617.000000
367349.000000
368066.000000
368800.000000
369526.000000
370275.000000
371024.000000
371786.000000
372541.000000
373268.000000
373998.000000
374731.000000
375482.000000
376240.000000
377016.000000
377803.000000
378588.000000
379353.000000
380098.000000
380845.000000
381589.000000
382338.000000
383083.000000
383827.000000
384607.000000
385429.000000
386258.000000
387060.000000
387834.000000
388587.000000
389320.000000
390042.000000
390767.000000
391486.000000
392210.000000
392967.000000
393755.000000
394571.000000
395379.000000
396150.000000
396898.000000
397630.000000
398352.000000
399070.000000
399787.000000
400499.000000
401231.000000
401987.000000
402740.000000
403504.000000
404275.000000
405009.000000
405739.000000
406455.000000
407168.000000
407890.000000
408630.000000
409381.000000
410123.000000
410869.000000
411611.000000
412333.000000
413046.000000
413746.000000
414458.000000
415177.000000
415927.000000
416705.000000
417492.000000
418266.000000
419004.000000
419721.000000
420423.000000
421116.000000
421824.000000
422542.000000
423275.000000
424011.000000
424760.000000
425504.000000
426232.000000
426952.000000
427664.000000
428363.000000
429080.000000
429817.000000
430569.000000
431351.000000
432124.000000
432893.000000
433648.000000
434396.000000
435140.000000
435881.000000
436624.000000
437358.000000
438111.000000
438906.000000
439720.000000
440536.000000
441335.000000
442095.000000
442823.000000
443549.000000
444270.000000
444993.000000
445729.000000
446464.000000
447212.000000
447994.000000
448789.000000
449572.000000
450343.000000
451094.000000
451840.000000
452579.000000
453301.000000
454017.000000
454735.000000
455464.000000
456213.000000
456968.000000
457729.000000
458467.000000
459190.000000
459910.000000
460618.000000
461312.000000
462005.000000
462697.000000
463397.000000
464115.000000
464841.000000
465577.000000
466311.000000
467041.000000
467755.000000
468468.000000
469176.000000
469876.000000
470582.000000
471304.000000
472028.000000
472767.000000
473506.000000
474227.000000
474938.000000
475640.000000
476323.000000
477012.000000
477723.000000
478445.000000
479170.000000
479896.000000
480607.000000
481302.000000
481979.000000
482665.000000
483370.000000
484087.000000
484815.000000
485549.000000
486280.000000
487008.000000
487741.000000
488460.000000
489163.000000
489866.000000
490580.000000
491317.000000
492060.000000
492829.000000
493580.000000
494323.000000
495051.000000
495766.000000
496473.000000
497211.000000
497959.000000
498727.000000
499223.000000
500230.000000
500928.000000
501624.000000
502312.000000
503001.000000
503705.000000
504425.000000
505165.000000
505919.000000
506678.000000
507437.000000
508185.000000
508906.000000
509615.000000
510319.000000
511023.000000
511734.000000
512469.000000
513213.000000
513957.000000
514685.000000
515410.000000
516122.000000
516828.000000
517534.000000
518241.000000
518963.000000
519711.000000
520457.000000
521202.000000
521943.000000
522690.000000
523438.000000
524162.000000
524874.000000
525586.000000
526315.000000
527056.000000
527794.000000
528549.000000
529322.000000
530071.000000
530809.000000
531540.000000
532283.000000
533033.000000
533777.000000
534527.000000
535266.000000
536003.000000
536732.000000
537482.000000
538262.000000
539048.000000
539827.000000
540615.000000
541348.000000
542069.000000
542785.000000
543509.000000
544228.000000
544975.000000
545732.000000
546497.000000
547261.000000
547999.000000
548732.000000
549453.000000
550183.000000
550912.000000
551639.000000
552405.000000
553199.000000
554001.000000
554803.000000
555558.000000
556289.000000
557006.000000
557723.000000
558429.000000
559126.000000
559835.000000
560563.000000
561302.000000
562073.000000
562849.000000
563630.000000
564384.000000
565132.000000
565871.000000
566602.000000
567333.000000
568084.000000
568850.000000
569618.000000
570387.000000
571129.000000
571857.000000
572579.000000
573303.000000
574024.000000
574759.000000
575535.000000
576329.000000
577153.000000
577960.000000
578722.000000
579454.000000
580186.000000
580921.000000
581661.000000
582421.000000
583191.000000
583966.000000
584733.000000
585479.000000
586199.000000
586905.000000
587619.000000
588363.000000
589121.000000
589918.000000
590701.000000
591478.000000
592242.000000
592984.000000
593707.000000
594438.000000
595151.000000
595836.000000
596505.000000
597186.000000
597890.000000
598598.000000
599291.000000
600010.000000
600736.000000
601451.000000
602151.000000
602840.000000
603524.000000
604194.000000
604865.000000
605562.000000
606281.000000
607017.000000
607759.000000
608495.000000
609218.000000
609932.000000
610640.000000
611340.000000
612046.000000
612762.000000
613494.000000
614253.000000
615015.000000
615776.000000
616529.000000
617260.000000
617972.000000
618672.000000
619375.000000
620074.000000
620792.000000
621524.000000
622268.000000
622988.000000
623695.000000
624381.000000
625033.000000
625692.000000
626361.000000
627035.000000
627728.000000
628438.000000
629167.000000
629899.000000
630608.000000
631326.000000
632036.000000
632742.000000
633461.000000
634212.000000
634964.000000
635716.000000
636463.000000
637192.000000
637908.000000
638632.000000
639378.000000
640137.000000
640903.000000
641674.000000
642431.000000
643174.000000
643900.000000
644619.000000
645345.000000
646089.000000
646848.000000
647611.000000
648350.000000
649073.000000
649784.000000
650503.000000
651236.000000
651984.000000
652740.000000
653486.000000
654219.000000
654940.000000
655646.000000
656341.000000
657054.000000
657773.000000
658510.000000
659244.000000
659955.000000
660650.000000
661344.000000
662037.000000
662744.000000
663472.000000
664201.000000
664934.000000
665643.000000
666352.000000
667064.000000
667785.000000
668510.000000
669231.000000
669955.000000
670654.000000
671350.000000
672041.000000
672743.000000
673465.000000
674215.000000
674965.000000
675708.000000
676439.000000
677163.000000
677888.000000
678631.000000
679381.000000
680141.000000
680885.000000
681615.000000
682329.000000
683049.000000
683791.000000
684544.000000
685302.000000
686051.000000
686786.000000
687507.000000
688232.000000
688966.000000
689692.000000
690418.000000
691141.000000
691863.000000
692588.000000
693350.000000
694127.000000
694883.000000
695618.000000
696355.000000
697086.000000
697842.000000
698592.000000
699324.000000
700050.000000
700757.000000
701491.000000
702228.000000
702956.000000
703695.000000
704424.000000
705136.000000
705861.000000
706594.000000
707340.000000
708080.000000
708808.000000
709528.000000
710248.000000
710976.000000
711698.000000
712420.000000
713147.000000
713862.000000
714584.000000
715347.000000
716083.000000
716802.000000
717506.000000
718188.000000
718885.000000
719587.000000
720321.000000
721081.000000
721818.000000
722543.000000
723255.000000
723957.000000
724663.000000
725378.000000
726108.000000
726840.000000
727606.000000
728415.000000
729220.000000
730009.000000
730782.000000
731521.000000
732254.000000
732999.000000
733756.000000
734512.000000
735283.000000
736080.000000
736853.000000
737605.000000
738342.000000
739061.000000
739771.000000
740491.000000
741206.000000
741923.000000
742670.000000
743420.000000
744170.000000
744900.000000
745626.000000
746334.000000
747018.000000
747681.000000
748334.000000
749013.000000
749696.000000
750380.000000
751091.000000
751851.000000
752607.000000
753344.000000
754075.000000
754796.000000
755507.000000
756223.000000
756938.000000
757680.000000
758409.000000
759169.000000
759964.000000
760788.000000
761617.000000
762454.000000
763276.000000
764045.000000
764807.000000
765551.000000
766315.000000
767093.000000
767871.000000
768646.000000
769406.000000
770146.000000
770887.000000
771615.000000
772366.000000
773133.000000
773898.000000
774671.000000
775419.000000
776162.000000
776884.000000
777604.000000
778331.000000
779080.000000
779837.000000
780579.000000
781329.000000
782063.000000
782804.000000
783547.000000
784284.000000
785009.000000
785732.000000
786449.000000
787179.000000
787905.000000
788635.000000
789359.000000
790076.000000
790791.000000
791512.000000
792248.000000
793026.000000
793822.000000
794586.000000
795317.000000
796032.000000
796731.000000
797421.000000
798126.000000
798840.000000
799567.000000
800291.000000
801009.000000
801710.000000
802412.000000
803140.000000
803864.000000
804600.000000
805339.000000
806067.000000
806767.000000
807462.000000
808162.000000
808866.000000
809585.000000
810298.000000
810989.000000
811682.000000
812385.000000
813103.000000
813848.000000
814598.000000
815332.000000
816055.000000
816761.000000
817469.000000
818198.000000
818941.000000
819692.000000
820435.000000
821172.000000
821891.000000
822606.000000
823326.000000
824059.000000
824808.000000
825554.000000
826283.000000
827007.000000
827719.000000
828428.000000
829137.000000
829847.000000
830570.000000
831313.000000
832067.000000
832815.000000
833541.000000
834255.000000
834963.000000
835658.000000
836372.000000
837100.000000
837835.000000
838565.000000
839292.000000
840001.000000
840707.000000
841424.000000
842149.000000
842885.000000
843615.000000
844326.000000
845031.000000
845733.000000
846442.000000
847160.000000
847905.000000
848640.000000
849366.000000
850076.000000
850763.000000
851459.000000
852163.000000
852873.000000
853603.000000
854346.000000
855078.000000
855787.000000
856500.000000
857225.000000
857946.000000
858679.000000
859415.000000
860135.000000
860840.000000
861543.000000
862251.000000
862949.000000
863683.000000
864442.000000
865217.000000
865964.000000
866691.000000
867415.000000
868123.000000
868827.000000
869552.000000
870287.000000
871023.000000
871765.000000
872481.000000
873192.000000
873897.000000
874608.000000
875331.000000
876077.000000
876838.000000
877606.000000
878361.000000
879103.000000
879839.000000
880573.000000
881303.000000
882039.000000
882774.000000
883522.000000
884253.000000
884975.000000
885682.000000
886392.000000
887113.000000
887840.000000
888561.000000
889272.000000
889982.000000
890674.000000
891377.000000
892091.000000
892817.000000
893544.000000
894272.000000
894978.000000
895677.000000
896380.000000
897092.000000
897817.000000
898569.000000
899313.000000
