ECG (ms)
669.000000
1454.000000
2347.000000
3213.000000
4030.000000
4817.000000
5569.000000
6301.000000
7020.000000
7739.000000
8481.000000
9220.000000
9944.000000
10655.000000
11375.000000
12101.000000
12837.000000
13586.000000
14321.000000
15033.000000
15737.000000
16452.000000
17154.000000
17877.000000
18660.000000
19449.000000
20221.000000
20973.000000
21703.000000
22441.000000
23191.000000
23972.000000
24818.000000
25698.000000
26569.000000
27383.000000
28159.000000
28914.000000
29675.000000
30448.000000
31260.000000
32162.000000
33099.000000
33994.000000
34839.000000
35651.000000
36449.000000
37238.000000
38060.000000
38959.000000
39863.000000
40725.000000
41534.000000
42313.000000
43094.000000
43877.000000
44672.000000
45557.000000
46492.000000
47391.000000
48236.000000
49043.000000
49835.000000
50615.000000
51399.000000
52239.000000
53171.000000
54122.000000
55010.000000
55829.000000
56620.000000
57411.000000
58202.000000
58999.000000
59862.000000
60799.000000
61705.000000
62558.000000
63369.000000
64169.000000
64959.000000
65748.000000
66553.000000
67457.000000
68377.000000
69237.000000
70030.000000
70786.000000
71518.000000
72265.000000
73038.000000
73889.000000
74826.000000
75833.000000
76800.000000
77679.000000
78481.000000
79253.000000
80009.000000
80757.000000
81534.000000
82402.000000
83351.000000
84235.000000
85054.000000
85833.000000
86593.000000
87346.000000
88111.000000
88917.000000
89810.000000
90734.000000
91593.000000
92398.000000
93171.000000
93932.000000
94688.000000
95453.000000
96262.000000
97160.000000
98074.000000
98939.000000
99745.000000
100514.000000
101263.000000
102009.000000
102769.000000
103607.000000
104529.000000
105466.000000
106355.000000
107185.000000
107977.000000
108753.000000
109531.000000
110348.000000
111244.000000
112162.000000
113036.000000
113861.000000
114648.000000
115420.000000
116197.000000
116990.000000
117865.000000
118771.000000
119661.000000
120500.000000
121314.000000
122100.000000
122875.000000
123640.000000
124438.000000
125301.000000
126143.000000
126971.000000
127770.000000
128540.000000
129259.000000
129931.000000
130607.000000
131326.000000
132115.000000
132989.000000
133845.000000
134640.000000
135407.000000
136148.000000
136881.000000
137609.000000
138349.000000
139147.000000
140061.000000
141003.000000
141895.000000
142724.000000
143504.000000
144267.000000
145014.000000
145787.000000
146684.000000
147578.000000
148452.000000
149300.000000
150135.000000
150948.000000
151769.000000
152640.000000
153496.000000
154328.000000
155131.000000
155926.000000
156720.000000
157531.000000
158398.000000
159303.000000
160154.000000
160965.000000
161745.000000
162518.000000
163293.000000
164101.000000
164979.000000
165835.000000
166682.000000
167503.000000
168308.000000
169098.000000
169892.000000
170721.000000
171554.000000
172377.000000
173196.000000
174002.000000
174808.000000
175645.000000
176485.000000
177320.000000
178127.000000
178943.000000
179753.000000
180600.000000
181476.000000
182320.000000
183134.000000
183923.000000
184703.000000
185500.000000
186380.000000
187263.000000
188135.000000
188993.000000
189841.000000
190703.000000
191576.000000
192421.000000
193238.000000
194042.000000
194834.000000
195662.000000
196537.000000
197392.000000
198227.000000
199049.000000
199861.000000
200685.000000
201526.000000
202370.000000
203207.000000
204031.000000
204854.000000
205691.000000
206559.000000
207401.000000
208223.000000
209034.000000
209839.000000
210644.000000
211478.000000
212372.000000
213246.000000
214085.000000
214892.000000
215692.000000
216483.000000
217286.000000
218145.000000
219057.000000
219923.000000
220757.000000
221574.000000
222388.000000
223199.000000
224007.000000
224856.000000
225722.000000
226563.000000
227385.000000
228187.000000
228978.000000
229776.000000
230575.000000
231420.000000
232331.000000
233198.000000
234032.000000
234845.000000
235649.000000
236447.000000
237263.000000
238128.000000
239076.000000
240011.000000
240893.000000
241731.000000
242541.000000
243343.000000
244151.000000
245013.000000
245940.000000
246823.000000
247664.000000
248476.000000
249274.000000
250069.000000
250883.000000
251710.000000
252553.000000
253450.000000
254333.000000
255164.000000
255955.000000
256716.000000
257460.000000
258205.000000
258977.000000
259843.000000
260819.000000
261833.000000
262797.000000
263715.000000
264564.000000
265378.000000
266168.000000
266967.000000
267814.000000
268709.000000
269601.000000
270474.000000
271309.000000
272123.000000
272927.000000
273749.000000
274623.000000
275503.000000
276366.000000
277196.000000
278010.000000
278807.000000
279604.000000
280411.000000
281238.000000
282122.000000
283082.000000
284023.000000
284919.000000
285763.000000
286577.000000
287371.000000
288162.000000
289004.000000
289942.000000
290869.000000
291766.000000
292622.000000
293459.000000
294279.000000
295106.000000
295978.000000
296901.000000
297774.000000
298598.000000
299398.000000
300183.000000
300968.000000
301748.000000
302562.000000
303458.000000
304413.000000
305344.000000
306215.000000
307030.000000
307813.000000
308594.000000
309399.000000
310245.000000
311183.000000
312141.000000
313075.000000
313957.000000
314786.000000
315588.000000
316386.000000
317211.000000
318131.000000
319134.000000
320102.000000
321027.000000
321889.000000
322710.000000
323522.000000
324352.000000
325207.000000
326112.000000
327062.000000
328005.000000
328905.000000
329759.000000
330580.000000
331399.000000
332226.000000
333111.000000
334061.000000
335036.000000
335972.000000
336855.000000
337694.000000
338510.000000
339349.000000
340266.000000
341230.000000
342161.000000
343030.000000
343853.000000
344664.000000
345464.000000
346297.000000
347127.000000
347884.000000
348631.000000
349431.000000
350242.000000
351055.000000
351859.000000
352634.000000
353406.000000
354167.000000
354938.000000
355782.000000
356678.000000
357556.000000
358411.000000
359250.000000
360049.000000
360833.000000
361633.000000
362501.000000
363392.000000
364260.000000
365115.000000
365945.000000
366767.000000
367589.000000
368453.000000
369337.000000
370217.000000
371071.000000
371912.000000
372741.000000
373620.000000
374489.000000
375328.000000
376152.000000
376975.000000
377794.000000
378621.000000
379454.000000
380328.000000
381198.000000
382051.000000
382889.000000
383728.000000
384572.000000
385432.000000
386334.000000
387245.000000
388121.000000
388973.000000
389801.000000
390641.000000
391521.000000
392403.000000
393274.000000
394132.000000
394972.000000
395808.000000
396682.000000
397549.000000
398397.000000
399262.000000
400115.000000
400985.000000
401873.000000
402743.000000
403610.000000
404482.000000
405382.000000
406287.000000
407177.000000
408032.000000
408874.000000
409719.000000
410596.000000
411499.000000
412406.000000
413289.000000
414147.000000
414998.000000
415848.000000
416757.000000
417655.000000
418555.000000
419444.000000
420326.000000
421209.000000
422084.000000
423010.000000
423940.000000
424829.000000
425665.000000
426474.000000
427280.000000
428146.000000
429054.000000
429967.000000
430872.000000
431765.000000
432639.000000
433549.000000
434469.000000
435353.000000
436198.000000
437017.000000
437884.000000
438867.000000
439844.000000
440786.000000
441674.000000
442517.000000
443349.000000
444240.000000
445228.000000
446258.000000
447281.000000
448260.000000
449178.000000
450028.000000
450901.000000
451848.000000
452809.000000
453745.000000
454651.000000
455545.000000
456442.000000
457390.000000
458369.000000
459319.000000
460236.000000
461108.000000
461969.000000
462827.000000
463763.000000
464704.000000
465622.000000
466501.000000
467348.000000
468182.000000
469048.000000
469963.000000
470855.000000
471718.000000
472551.000000
473373.000000
474195.000000
475050.000000
476063.000000
477101.000000
478097.000000
479041.000000
479936.000000
480797.000000
481674.000000
482670.000000
483664.000000
484624.000000
485552.000000
486452.000000
487347.000000
488294.000000
489249.000000
490182.000000
491083.000000
491969.000000
492871.000000
493804.000000
494716.000000
495600.000000
496464.000000
497318.000000
498176.000000
499079.000000
499980.000000
500850.000000
501720.000000
502598.000000
503479.000000
504384.000000
505272.000000
506148.000000
507003.000000
507831.000000
508681.000000
509626.000000
510564.000000
511488.000000
512370.000000
513228.000000
514090.000000
514967.000000
515879.000000
516819.000000
517756.000000
518672.000000
519576.000000
520464.000000
521346.000000
522207.000000
523073.000000
523983.000000
524894.000000
525767.000000
526619.000000
527450.000000
528272.000000
529090.000000
529950.000000
530835.000000
531716.000000
532581.000000
533431.000000
534281.000000
535163.000000
536032.000000
536889.000000
537750.000000
538596.000000
539453.000000
540337.000000
541235.000000
542108.000000
542995.000000
543873.000000
544762.000000
545697.000000
546617.000000
547527.000000
548421.000000
549300.000000
550183.000000
551091.000000
551981.000000
552859.000000
553734.000000
554603.000000
555453.000000
556299.000000
557114.000000
557853.000000
558573.000000
559363.000000
560204.000000
561111.000000
562027.000000
562969.000000
563915.000000
564804.000000
565647.000000
566466.000000
567291.000000
568145.000000
569091.000000
570041.000000
570982.000000
571904.000000
572814.000000
573722.000000
574626.000000
575519.000000
576435.000000
577342.000000
578230.000000
579089.000000
579947.000000
580804.000000
581683.000000
582534.000000
583374.000000
584194.000000
585002.000000
585819.000000
586723.000000
587625.000000
588526.000000
589418.000000
590296.000000
591167.000000
592088.000000
593029.000000
593946.000000
594842.000000
595731.000000
596654.000000
597555.000000
598437.000000
599295.000000
600158.000000
601050.000000
601945.000000
602819.000000
603688.000000
604578.000000
605488.000000
606378.000000
607257.000000
608156.000000
609081.000000
610030.000000
610940.000000
611840.000000
612743.000000
613647.000000
614586.000000
615520.000000
616410.000000
617268.000000
618099.000000
618934.000000
619837.000000
620816.000000
621772.000000
622662.000000
623512.000000
624349.000000
625196.000000
626036.000000
626935.000000
627902.000000
628948.000000
629953.000000
630873.000000
631720.000000
632538.000000
633373.000000
634219.000000
635118.000000
636078.000000
637073.000000
638059.000000
638991.000000
639868.000000
640698.000000
641530.000000
642399.000000
643353.000000
644319.000000
645295.000000
646237.000000
647118.000000
647972.000000
648879.000000
649833.000000
650769.000000
651704.000000
652682.000000
653628.000000
654532.000000
655414.000000
656310.000000
657277.000000
658254.000000
659206.000000
660113.000000
661003.000000
661868.000000
662749.000000
663656.000000
664543.000000
665395.000000
666250.000000
667097.000000
667940.000000
668783.000000
669648.000000
670569.000000
671497.000000
672380.000000
673230.000000
674049.000000
674867.000000
675703.000000
676567.000000
677510.000000
678453.000000
679356.000000
680218.000000
681060.000000
681946.000000
682935.000000
683922.000000
684843.000000
685739.000000
686676.000000
687614.000000
688540.000000
689449.000000
690382.000000
691300.000000
692191.000000
693077.000000
693972.000000
694930.000000
695894.000000
696818.000000
697717.000000
698586.000000
699435.000000
700290.000000
701249.000000
702216.000000
703170.000000
704078.000000
704907.000000
705673.000000
706383.000000
707097.000000
707847.000000
708654.000000
709536.000000
710516.000000
711493.000000
712424.000000
713305.000000
714150.000000
714977.000000
715801.000000
716646.000000
717579.000000
718605.000000
719621.000000
720593.000000
721525.000000
722428.000000
723348.000000
724265.000000
725162.000000
726061.000000
726939.000000
727829.000000
728719.000000
729641.000000
730592.000000
731540.000000
732449.000000
733379.000000
734311.000000
735250.000000
736144.000000
736995.000000
737851.000000
738793.000000
739774.000000
740738.000000
741670.000000
742552.000000
743407.000000
744262.000000
745220.000000
746167.000000
747082.000000
747970.000000
748807.000000
749637.000000
750504.000000
751451.000000
752401.000000
753323.000000
754205.000000
755066.000000
755923.000000
756840.000000
757805.000000
758760.000000
759678.000000
760564.000000
761448.000000
762397.000000
763391.000000
764313.000000
765180.000000
766011.000000
766856.000000
767808.000000
768782.000000
769726.000000
770659.000000
771585.000000
772516.000000
773461.000000
774374.000000
775280.000000
776151.000000
777020.000000
777908.000000
778813.000000
779758.000000
780737.000000
781701.000000
782645.000000
783516.000000
784367.000000
785230.000000
786144.000000
787076.000000
788093.000000
789151.000000
790195.000000
791193.000000
792146.000000
793095.000000
794013.000000
794924.000000
795813.000000
796648.000000
797497.000000
798445.000000
799445.000000
800438.000000
801371.000000
802256.000000
803113.000000
804008.000000
804948.000000
805881.000000
806813.000000
807766.000000
808697.000000
809555.000000
810387.000000
811253.000000
812161.000000
813078.000000
814001.000000
814935.000000
815834.000000
816720.000000
817593.000000
818489.000000
819395.000000
820293.000000
821171.000000
822030.000000
822915.000000
823822.000000
824763.000000
825668.000000
826549.000000
827471.000000
828399.000000
829314.000000
830231.000000
831194.000000
832184.000000
833179.000000
834113.000000
834977.000000
835801.000000
836612.000000
837497.000000
838437.000000
839410.000000
840369.000000
841329.000000
842219.000000
843068.000000
843930.000000
844809.000000
845722.000000
846649.000000
847566.000000
848450.000000
849310.000000
850192.000000
851103.000000
852055.000000
852976.000000
853885.000000
854760.000000
855596.000000
856413.000000
857202.000000
858045.000000
858954.000000
859967.000000
861020.000000
862031.000000
862975.000000
863862.000000
864734.000000
865611.000000
866530.000000
867456.000000
868394.000000
869319.000000
870225.000000
871097.000000
871978.000000
872891.000000
873784.000000
874674.000000
875515.000000
876343.000000
877187.000000
878064.000000
878959.000000
879846.000000
880737.000000
881602.000000
882509.000000
883432.000000
884322.000000
885169.000000
885997.000000
886861.000000
887754.000000
888671.000000
889618.000000
890562.000000
891494.000000
892412.000000
893276.000000
894108.000000
894975.000000
