ECG (ms)
199.000000
955.000000
1712.000000
2507.000000
3325.000000
4100.000000
4864.000000
5633.000000
6398.000000
7164.000000
7902.000000
8648.000000
9412.000000
10199.000000
10965.000000
11741.000000
12539.000000
13339.000000
14108.000000
14861.000000
15639.000000
16432.000000
17213.000000
17978.000000
18766.000000
19575.000000
20382.000000
21149.000000
21911.000000
22694.000000
23489.000000
24280.000000
25060.000000
25864.000000
26691.000000
27503.000000
28292.000000
29105.000000
29932.000000
30762.000000
31567.000000
32342.000000
33114.000000
33903.000000
34709.000000
35524.000000
36312.000000
37126.000000
37968.000000
38781.000000
39577.000000
40409.000000
41274.000000
42107.000000
42904.000000
43715.000000
44527.000000
45306.000000
46084.000000
46892.000000
47706.000000
48488.000000
49290.000000
50114.000000
50944.000000
51729.000000
52526.000000
53348.000000
54153.000000
54924.000000
55715.000000
56521.000000
57306.000000
58065.000000
58839.000000
59627.000000
60421.000000
61213.000000
61988.000000
62741.000000
63513.000000
64309.000000
65112.000000
65902.000000
66666.000000
67445.000000
68227.000000
68977.000000
69738.000000
70526.000000
71354.000000
72151.000000
72961.000000
73820.000000
74683.000000
75505.000000
76299.000000
77114.000000
77952.000000
78774.000000
79552.000000
80332.000000
81138.000000
81959.000000
82739.000000
83514.000000
84324.000000
85162.000000
86016.000000
86835.000000
87620.000000
88423.000000
89230.000000
90019.000000
90779.000000
91545.000000
92336.000000
93140.000000
93924.000000
94684.000000
95474.000000
96291.000000
97115.000000
97899.000000
98654.000000
99435.000000
100244.000000
101048.000000
101821.000000
102599.000000
103398.000000
104205.000000
104967.000000
105718.000000
106492.000000
107276.000000
108035.000000
108788.000000
109574.000000
110378.000000
111151.000000
111932.000000
112738.000000
113539.000000
114301.000000
115073.000000
115857.000000
116637.000000
117388.000000
118156.000000
118960.000000
119769.000000
120543.000000
121332.000000
122154.000000
122977.000000
123754.000000
124536.000000
125347.000000
126166.000000
126940.000000
127715.000000
128517.000000
129336.000000
130122.000000
130912.000000
131733.000000
132580.000000
133390.000000
134180.000000
134991.000000
135824.000000
136618.000000
137396.000000
138205.000000
139039.000000
139847.000000
140639.000000
141464.000000
142310.000000
143113.000000
143897.000000
144700.000000
145500.000000
146236.000000
146970.000000
147726.000000
148512.000000
149288.000000
150054.000000
150860.000000
151694.000000
152507.000000
153292.000000
154084.000000
154885.000000
155668.000000
156417.000000
157181.000000
157976.000000
158798.000000
159589.000000
160367.000000
161176.000000
161998.000000
162817.000000
163598.000000
164393.000000
165209.000000
166009.000000
166778.000000
167546.000000
168321.000000
169098.000000
169821.000000
170543.000000
171303.000000
172130.000000
172961.000000
173789.000000
174649.000000
175544.000000
176406.000000
177247.000000
178110.000000
178977.000000
179784.000000
180585.000000
181426.000000
182279.000000
183075.000000
183858.000000
184661.000000
185479.000000
186270.000000
187041.000000
187837.000000
188657.000000
189452.000000
190226.000000
191023.000000
191837.000000
192642.000000
193407.000000
194170.000000
194956.000000
195770.000000
196551.000000
197328.000000
198127.000000
198928.000000
199694.000000
200442.000000
201206.000000
201989.000000
202753.000000
203502.000000
204286.000000
205101.000000
205907.000000
206706.000000
207522.000000
208353.000000
209163.000000
209947.000000
210744.000000
211563.000000
212410.000000
213226.000000
214029.000000
214841.000000
215653.000000
216458.000000
217244.000000
218044.000000
218875.000000
219719.000000
220539.000000
221347.000000
222164.000000
222974.000000
223744.000000
224500.000000
225277.000000
226096.000000
226907.000000
227754.000000
228603.000000
229460.000000
230321.000000
231183.000000
232031.000000
232890.000000
233709.000000
234511.000000
235327.000000
236144.000000
236930.000000
237698.000000
238482.000000
239282.000000
240102.000000
240899.000000
241699.000000
242499.000000
243285.000000
244047.000000
244823.000000
245608.000000
246376.000000
247128.000000
247896.000000
248689.000000
249455.000000
250206.000000
250989.000000
251823.000000
252677.000000
253487.000000
254258.000000
255047.000000
255842.000000
256602.000000
257335.000000
258086.000000
258851.000000
259605.000000
260344.000000
261112.000000
261912.000000
262694.000000
263457.000000
264270.000000
265099.000000
265885.000000
266664.000000
267473.000000
268295.000000
269069.000000
269816.000000
270580.000000
271351.000000
272116.000000
272853.000000
273608.000000
274384.000000
275174.000000
275939.000000
276693.000000
277472.000000
278269.000000
279061.000000
279818.000000
280584.000000
281373.000000
282167.000000
282919.000000
283666.000000
284444.000000
285249.000000
286041.000000
286795.000000
287570.000000
288361.000000
289166.000000
289939.000000
290706.000000
291502.000000
292315.000000
293113.000000
293881.000000
294666.000000
295483.000000
296284.000000
297046.000000
297832.000000
298649.000000
299450.000000
300225.000000
301014.000000
301828.000000
302655.000000
303453.000000
304217.000000
304997.000000
305792.000000
306569.000000
307319.000000
308091.000000
308911.000000
309724.000000
310507.000000
311319.000000
312161.000000
312961.000000
313747.000000
314571.000000
315428.000000
316239.000000
317024.000000
317837.000000
318662.000000
319443.000000
320214.000000
321025.000000
321871.000000
322698.000000
323492.000000
324303.000000
325137.000000
325972.000000
326781.000000
327553.000000
328332.000000
329132.000000
329903.000000
330662.000000
331463.000000
332320.000000
333162.000000
333967.000000
334807.000000
335675.000000
336503.000000
337304.000000
338135.000000
338985.000000
339785.000000
340562.000000
341358.000000
342179.000000
342962.000000
343717.000000
344499.000000
345314.000000
346125.000000
346899.000000
347699.000000
348536.000000
349353.000000
350137.000000
350949.000000
351795.000000
352643.000000
353432.000000
354226.000000
355044.000000
355872.000000
356697.000000
357485.000000
358255.000000
359042.000000
359849.000000
360671.000000
361480.000000
362271.000000
363069.000000
363886.000000
364723.000000
365529.000000
366318.000000
367127.000000
367952.000000
368776.000000
369612.000000
370427.000000
371225.000000
372023.000000
372828.000000
373611.000000
374388.000000
375185.000000
376006.000000
376800.000000
377595.000000
378419.000000
379263.000000
380079.000000
380893.000000
381725.000000
382569.000000
383376.000000
384166.000000
384966.000000
385773.000000
386589.000000
387380.000000
388155.000000
388951.000000
389770.000000
390571.000000
391371.000000
392207.000000
393054.000000
393857.000000
394664.000000
395477.000000
396264.000000
397025.000000
397804.000000
398601.000000
399382.000000
400145.000000
400937.000000
401759.000000
402554.000000
403336.000000
404140.000000
404962.000000
405758.000000
406536.000000
407338.000000
408143.000000
408923.000000
409694.000000
410477.000000
411279.000000
412086.000000
412872.000000
413666.000000
414472.000000
415286.000000
416056.000000
416838.000000
417657.000000
418494.000000
419277.000000
420066.000000
420885.000000
421721.000000
422498.000000
423268.000000
424060.000000
424853.000000
425602.000000
426348.000000
427127.000000
427943.000000
428724.000000
429509.000000
430333.000000
431164.000000
431945.000000
432715.000000
433504.000000
434307.000000
435081.000000
435827.000000
436595.000000
437393.000000
438190.000000
438952.000000
439731.000000
440538.000000
441358.000000
442142.000000
442913.000000
443720.000000
444562.000000
445396.000000
446176.000000
446952.000000
447760.000000
448579.000000
449359.000000
450118.000000
450908.000000
451733.000000
452523.000000
453292.000000
454117.000000
454979.000000
455836.000000
456637.000000
457424.000000
458229.000000
459035.000000
459805.000000
460585.000000
461404.000000
462237.000000
463030.000000
463827.000000
464661.000000
465492.000000
466285.000000
467083.000000
467911.000000
468729.000000
469494.000000
470243.000000
471021.000000
471817.000000
472595.000000
473352.000000
474134.000000
474936.000000
475750.000000
476543.000000
477322.000000
478130.000000
478959.000000
479755.000000
480532.000000
481340.000000
482171.000000
482976.000000
483746.000000
484540.000000
485355.000000
486151.000000
486915.000000
487699.000000
488516.000000
489350.000000
490141.000000
490919.000000
491722.000000
492540.000000
493359.000000
494131.000000
494904.000000
495704.000000
496532.000000
497305.000000
498060.000000
498839.000000
499632.000000
500415.000000
501161.000000
501904.000000
502662.000000
503407.000000
504136.000000
504836.000000
505517.000000
506210.000000
506936.000000
507703.000000
508451.000000
509194.000000
509982.000000
510807.000000
511608.000000
512373.000000
513179.000000
514002.000000
514803.000000
515573.000000
516362.000000
517165.000000
517938.000000
518687.000000
519468.000000
520287.000000
521069.000000
521831.000000
522628.000000
523447.000000
524237.000000
525002.000000
525785.000000
526584.000000
527378.000000
528131.000000
528886.000000
529661.000000
530452.000000
531254.000000
532017.000000
532772.000000
533546.000000
534334.000000
535086.000000
535832.000000
536606.000000
537402.000000
538171.000000
538927.000000
539706.000000
540513.000000
541278.000000
542023.000000
542792.000000
543575.000000
544327.000000
545059.000000
545812.000000
546600.000000
547382.000000
548131.000000
548897.000000
549698.000000
550524.000000
551303.000000
552071.000000
552871.000000
553691.000000
554520.000000
555300.000000
556066.000000
556861.000000
557688.000000
558516.000000
559301.000000
560069.000000
560871.000000
561736.000000
562555.000000
563386.000000
564222.000000
565071.000000
565876.000000
566696.000000
567506.000000
568325.000000
569149.000000
569942.000000
570714.000000
571503.000000
572311.000000
573103.000000
573879.000000
574675.000000
575500.000000
576289.000000
577102.000000
577909.000000
578733.000000
579537.000000
580306.000000
581084.000000
581896.000000
582734.000000
583558.000000
584373.000000
585213.000000
586057.000000
586878.000000
587686.000000
588514.000000
589354.000000
590161.000000
590954.000000
591764.000000
592600.000000
593403.000000
594193.000000
594996.000000
595815.000000
596613.000000
597392.000000
598196.000000
599019.000000
599803.000000
600624.000000
601442.000000
602257.000000
603065.000000
603858.000000
604657.000000
605464.000000
606277.000000
607073.000000
607849.000000
608642.000000
609453.000000
610267.000000
611054.000000
611858.000000
612679.000000
613513.000000
614337.000000
615126.000000
615919.000000
616721.000000
