ECG (ms)
471.000000
1184.000000
1952.000000
3160.000000
4215.000000
5242.000000
6204.000000
7038.000000
7908.000000
9005.000000
9903.000000
10889.000000
12033.000000
13081.000000
13973.000000
15068.000000
16212.000000
17238.000000
18147.000000
19294.000000
20386.000000
21262.000000
22179.000000
23122.000000
24068.000000
25350.000000
26554.000000
27637.000000
28614.000000
29402.000000
30145.000000
30927.000000
31948.000000
33088.000000
34191.000000
35260.000000
36240.000000
37103.000000
37911.000000
38728.000000
39554.000000
40412.000000
41251.000000
42264.000000
43262.000000
44079.000000
44874.000000
45701.000000
46474.000000
47231.000000
48090.000000
49175.000000
50069.000000
51001.000000
52010.000000
52946.000000
53988.000000
54850.000000
55681.000000
56518.000000
57337.000000
58484.000000
59592.000000
60538.000000
61555.000000
62554.000000
63489.000000
64446.000000
65425.000000
66318.000000
67159.000000
68153.000000
69250.000000
70231.000000
71089.000000
71994.000000
73124.000000
74195.000000
75107.000000
76079.000000
77086.000000
77947.000000
79050.000000
80178.000000
81182.000000
82145.000000
83249.000000
84287.000000
85203.000000
86120.000000
87249.000000
88297.000000
89314.000000
90489.000000
91622.000000
92614.000000
93565.000000
94562.000000
95546.000000
96548.000000
97744.000000
98850.000000
99822.000000
100912.000000
102051.000000
103059.000000
104108.000000
105128.000000
106007.000000
106867.000000
107903.000000
108872.000000
109799.000000
110873.000000
111979.000000
112943.000000
113802.000000
114603.000000
115752.000000
116753.000000
117753.000000
118764.000000
119695.000000
120506.000000
121324.000000
122436.000000
123323.000000
124363.000000
125435.000000
126353.000000
127328.000000
128392.000000
129381.000000
130306.000000
131341.000000
132330.000000
133169.000000
134099.000000
135276.000000
136212.000000
137380.000000
138446.000000
139348.000000
140446.000000
141519.000000
142428.000000
143556.000000
144681.000000
145649.000000
146715.000000
147714.000000
148539.000000
149443.000000
150607.000000
151519.000000
152462.000000
153566.000000
154541.000000
155395.000000
156295.000000
157319.000000
158151.000000
158972.000000
159808.000000
160698.000000
161571.000000
162383.000000
163211.000000
164155.000000
165188.000000
166052.000000
166935.000000
167855.000000
168723.000000
169552.000000
170435.000000
171589.000000
172651.000000
173515.000000
174416.000000
175416.000000
176249.000000
177165.000000
178166.000000
179194.000000
180099.000000
181160.000000
182156.000000
182996.000000
183827.000000
184804.000000
185747.000000
186583.000000
187514.000000
188568.000000
189479.000000
190586.000000
191693.000000
192650.000000
193653.000000
194676.000000
195538.000000
196454.000000
197598.000000
198579.000000
199757.000000
200735.000000
201752.000000
202810.000000
203697.000000
204702.000000
205969.000000
207015.000000
208070.000000
209161.000000
210042.000000
211005.000000
212112.000000
213145.000000
214030.000000
215088.000000
216183.000000
217148.000000
218152.000000
219188.000000
220087.000000
221039.000000
222141.000000
223045.000000
223942.000000
224892.000000
225807.000000
226724.000000
227867.000000
228862.000000
229737.000000
230694.000000
231600.000000
232437.000000
233346.000000
234328.000000
235189.000000
236058.000000
237175.000000
238062.000000
238891.000000
239824.000000
240892.000000
241799.000000
242837.000000
243831.000000
244751.000000
245815.000000
246913.000000
247902.000000
248915.000000
249934.000000
250847.000000
251703.000000
252922.000000
254083.000000
255052.000000
256091.000000
257058.000000
257888.000000
258668.000000
259478.000000
260755.000000
261912.000000
262924.000000
263889.000000
264985.000000
266010.000000
266924.000000
267801.000000
268870.000000
269969.000000
270948.000000
271817.000000
272869.000000
273995.000000
275049.000000
275972.000000
277014.000000
278092.000000
279017.000000
279892.000000
281076.000000
282247.000000
283290.000000
284274.000000
285345.000000
286385.000000
287223.000000
288034.000000
288870.000000
290095.000000
291169.000000
292230.000000
293257.000000
294250.000000
295108.000000
295950.000000
297091.000000
298143.000000
299067.000000
300033.000000
301105.000000
301998.000000
302938.000000
303985.000000
304849.000000
305807.000000
306830.000000
307685.000000
308592.000000
309601.000000
310604.000000
311429.000000
312208.000000
312981.000000
313865.000000
314963.000000
315829.000000
316689.000000
317632.000000
318487.000000
319272.000000
320025.000000
320813.000000
321738.000000
322668.000000
323488.000000
324250.000000
324994.000000
325773.000000
326681.000000
327613.000000
328406.000000
329157.000000
329891.000000
330681.000000
331710.000000
332688.000000
333522.000000
334308.000000
335090.000000
335930.000000
336848.000000
337717.000000
338495.000000
339244.000000
340040.000000
341152.000000
342030.000000
342819.000000
343602.000000
344515.000000
345484.000000
346308.000000
347126.000000
347991.000000
348907.000000
349740.000000
350557.000000
351561.000000
352523.000000
353339.000000
354103.000000
354843.000000
355640.000000
356782.000000
357738.000000
358661.000000
359637.000000
360476.000000
361252.000000
362010.000000
363052.000000
364126.000000
365019.000000
365924.000000
366980.000000
367866.000000
368651.000000
369438.000000
370265.000000
371240.000000
372141.000000
373090.000000
374129.000000
375137.000000
375960.000000
376728.000000
377467.000000
378223.000000
379003.000000
379858.000000
381099.000000
382166.000000
383057.000000
383908.000000
384767.000000
385590.000000
386373.000000
387163.000000
388341.000000
389467.000000
390434.000000
391435.000000
392428.000000
393291.000000
394108.000000
394928.000000
396189.000000
397203.000000
398103.000000
399206.000000
400315.000000
401266.000000
402230.000000
403121.000000
404021.000000
404834.000000
405709.000000
406557.000000
407421.000000
408339.000000
409512.000000
410556.000000
411454.000000
412353.000000
413173.000000
413964.000000
414714.000000
415468.000000
416711.000000
417842.000000
418904.000000
419896.000000
420757.000000
421540.000000
422332.000000
423188.000000
424036.000000
425240.000000
426268.000000
427116.000000
427980.000000
429008.000000
429890.000000
430811.000000
431684.000000
432510.000000
433405.000000
434368.000000
435217.000000
436065.000000
436950.000000
437776.000000
438577.000000
439356.000000
440142.000000
440932.000000
441740.000000
442512.000000
443257.000000
443953.000000
444648.000000
445375.000000
446105.000000
446840.000000
447627.000000
448445.000000
449204.000000
449932.000000
450640.000000
451368.000000
452361.000000
453230.000000
454052.000000
454828.000000
455626.000000
456478.000000
457355.000000
458183.000000
458969.000000
459764.000000
460756.000000
461754.000000
462591.000000
463400.000000
464189.000000
464970.000000
465810.000000
466955.000000
468033.000000
469033.000000
469956.000000
470775.000000
471594.000000
472522.000000
473519.000000
474499.000000
475397.000000
476199.000000
477041.000000
478087.000000
478984.000000
480104.000000
481008.000000
481948.000000
482848.000000
483669.000000
484554.000000
485401.000000
486566.000000
487626.000000
488584.000000
489612.000000
490502.000000
491502.000000
492384.000000
493168.000000
493907.000000
494652.000000
495542.000000
496588.000000
497645.000000
498666.000000
499550.000000
500441.000000
501266.000000
502081.000000
502958.000000
503844.000000
504914.000000
505890.000000
506806.000000
507732.000000
508583.000000
509538.000000
510505.000000
511352.000000
512233.000000
513135.000000
514050.000000
515212.000000
516291.000000
517298.000000
518277.000000
519134.000000
520089.000000
521088.000000
521970.000000
523085.000000
524191.000000
525109.000000
526033.000000
526812.000000
527524.000000
528216.000000
528884.000000
529545.000000
530240.000000
531088.000000
531849.000000
533000.000000
533980.000000
534940.000000
535765.000000
536495.000000
537202.000000
538006.000000
539141.000000
540134.000000
541236.000000
542279.000000
543192.000000
544125.000000
545015.000000
545781.000000
546520.000000
547273.000000
548405.000000
549348.000000
550190.000000
551083.000000
552148.000000
553163.000000
554049.000000
554935.000000
555815.000000
556694.000000
557525.000000
558328.000000
559181.000000
560126.000000
561105.000000
561980.000000
562861.000000
563851.000000
564833.000000
565734.000000
566618.000000
567451.000000
568315.000000
569427.000000
570532.000000
571505.000000
572439.000000
573268.000000
574103.000000
575045.000000
576160.000000
577109.000000
578241.000000
579151.000000
580067.000000
581251.000000
582196.000000
583143.000000
584230.000000
585114.000000
585934.000000
586744.000000
587574.000000
588404.000000
589298.000000
590092.000000
590813.000000
591528.000000
592441.000000
593279.000000
594096.000000
595069.000000
596097.000000
597104.000000
598080.000000
599009.000000
599928.000000
600942.000000
601961.000000
602888.000000
603835.000000
604818.000000
605748.000000
606865.000000
607843.000000
608696.000000
609706.000000
610598.000000
611606.000000
612703.000000
613731.000000
614799.000000
615716.000000
616673.000000
617518.000000
618394.000000
619330.000000
620171.000000
621102.000000
622063.000000
623009.000000
623927.000000
624725.000000
625463.000000
626186.000000
626956.000000
627773.000000
628699.000000
629503.000000
630282.000000
631053.000000
631840.000000
632875.000000
633849.000000
634674.000000
635470.000000
636263.000000
637020.000000
637797.000000
638897.000000
639917.000000
640925.000000
641895.000000
642749.000000
643622.000000
644624.000000
645479.000000
646384.000000
647255.000000
648092.000000
649198.000000
650343.000000
651318.000000
652306.000000
653215.000000
654060.000000
654912.000000
655841.000000
656750.000000
657647.000000
658551.000000
659420.000000
660346.000000
661351.000000
662247.000000
663196.000000
664154.000000
664987.000000
665885.000000
666850.000000
667708.000000
668919.000000
669819.000000
670657.000000
671583.000000
672450.000000
673365.000000
674323.000000
675218.000000
676214.000000
677138.000000
678078.000000
679098.000000
679999.000000
681023.000000
682012.000000
682999.000000
684099.000000
685220.000000
686187.000000
687100.000000
688047.000000
689008.000000
690153.000000
690987.000000
691759.000000
692583.000000
693343.000000
694048.000000
694742.000000
695549.000000
696300.000000
697102.000000
698097.000000
699061.000000
699889.000000
700644.000000
701427.000000
702317.000000
703158.000000
704008.000000
704990.000000
705955.000000
706810.000000
707671.000000
708690.000000
709726.000000
710692.000000
711733.000000
712720.000000
713555.000000
714398.000000
715547.000000
716407.000000
717422.000000
718487.000000
719525.000000
720525.000000
721436.000000
722375.000000
723280.000000
724304.000000
725414.000000
726275.000000
727287.000000
728420.000000
729442.000000
730592.000000
731675.000000
732792.000000
733877.000000
734838.000000
735969.000000
736944.000000
737766.000000
738600.000000
739709.000000
740892.000000
741806.000000
742880.000000
743980.000000
744956.000000
745864.000000
746742.000000
747772.000000
748822.000000
749833.000000
750782.000000
751696.000000
752685.000000
753632.000000
754682.000000
755676.000000
756565.000000
757369.000000
758153.000000
758935.000000
759711.000000
760631.000000
761529.000000
762391.000000
763381.000000
764204.000000
764941.000000
765646.000000
766335.000000
767028.000000
767772.000000
768514.000000
769240.000000
769999.000000
770803.000000
771584.000000
772317.000000
773054.000000
773835.000000
774599.000000
775409.000000
776333.000000
777288.000000
778294.000000
779288.000000
780142.000000
780988.000000
781895.000000
782753.000000
783959.000000
785102.000000
786144.000000
787198.000000
788058.000000
789088.000000
789983.000000
790792.000000
791611.000000
792792.000000
793875.000000
794793.000000
795853.000000
796906.000000
797788.000000
798665.000000
799640.000000
800513.000000
801315.000000
802237.000000
803322.000000
804242.000000
805145.000000
806145.000000
807097.000000
807989.000000
808987.000000
810052.000000
811056.000000
812120.000000
813185.000000
814242.000000
815258.000000
816221.000000
817135.000000
818212.000000
819297.000000
820362.000000
821455.000000
822367.000000
823184.000000
824201.000000
825041.000000
826227.000000
827185.000000
828105.000000
829302.000000
830328.000000
831402.000000
832498.000000
833425.000000
834337.000000
835234.000000
836060.000000
836882.000000
838040.000000
839117.000000
840202.000000
841177.000000
842192.000000
843112.000000
843983.000000
844868.000000
845708.000000
846647.000000
847720.000000
848757.000000
849807.000000
850758.000000
851702.000000
852562.000000
853394.000000
854321.000000
855463.000000
856473.000000
857488.000000
858367.000000
859335.000000
860299.000000
861233.000000
862245.000000
863086.000000
863915.000000
864724.000000
865478.000000
866208.000000
866972.000000
867796.000000
868972.000000
869926.000000
870832.000000
871728.000000
872540.000000
873348.000000
874177.000000
875082.000000
875912.000000
876834.000000
877921.000000
878895.000000
879942.000000
880956.000000
881831.000000
882709.000000
883550.000000
884403.000000
885640.000000
886756.000000
887772.000000
888809.000000
889782.000000
890647.000000
891529.000000
892642.000000
893554.000000
894511.000000
895673.000000
896779.000000
897907.000000
898981.000000
900059.000000
901181.000000
902283.000000
903275.000000
904224.000000
905083.000000
905966.000000
907057.000000
907917.000000
909058.000000
910060.000000
910920.000000
911805.000000
912603.000000
913384.000000
914324.000000
915194.000000
916029.000000
916955.000000
917806.000000
918693.000000
919593.000000
920429.000000
921333.000000
922248.000000
923080.000000
923950.000000
