ECG (ms)
865.000000
1781.000000
2640.000000
3486.000000
4328.000000
5331.000000
6331.000000
7347.000000
8322.000000
9324.000000
10326.000000
11262.000000
12201.000000
13161.000000
14145.000000
15086.000000
16018.000000
16998.000000
18006.000000
19035.000000
20079.000000
21095.000000
22121.000000
23136.000000
24081.000000
25063.000000
26065.000000
27100.000000
28131.000000
29129.000000
30142.000000
31143.000000
32073.000000
33011.000000
33983.000000
34963.000000
35918.000000
36869.000000
37843.000000
38834.000000
39801.000000
40757.000000
41754.000000
42766.000000
43729.000000
44770.000000
45941.000000
47010.000000
47950.000000
48877.000000
49900.000000
50885.000000
51966.000000
53074.000000
54079.000000
55105.000000
56141.000000
57078.000000
58077.000000
59063.000000
59977.000000
60961.000000
61978.000000
62964.000000
63987.000000
65018.000000
65908.000000
66749.000000
67646.000000
68807.000000
69904.000000
70923.000000
71962.000000
72944.000000
73886.000000
74868.000000
75827.000000
76771.000000
77751.000000
78711.000000
79670.000000
80661.000000
81614.000000
82548.000000
83544.000000
84483.000000
85447.000000
86458.000000
87491.000000
88472.000000
89473.000000
90471.000000
91408.000000
92359.000000
93330.000000
94313.000000
95248.000000
96218.000000
97198.000000
98182.000000
99121.000000
100106.000000
101100.000000
102057.000000
103004.000000
103973.000000
104926.000000
105874.000000
106865.000000
107860.000000
108803.000000
109807.000000
110828.000000
111788.000000
112789.000000
113791.000000
114749.000000
115755.000000
116759.000000
117697.000000
118602.000000
119548.000000
120542.000000
121596.000000
122706.000000
123767.000000
124795.000000
125744.000000
126627.000000
127577.000000
128636.000000
129708.000000
130780.000000
131857.000000
132870.000000
133802.000000
134756.000000
135726.000000
136600.000000
137438.000000
138372.000000
139641.000000
140688.000000
141668.000000
142683.000000
143673.000000
144587.000000
145550.000000
146536.000000
147478.000000
148435.000000
149397.000000
150324.000000
151206.000000
152114.000000
153033.000000
153968.000000
154866.000000
155793.000000
156747.000000
157727.000000
158665.000000
159596.000000
160578.000000
161563.000000
162552.000000
163529.000000
164482.000000
165394.000000
166344.000000
167299.000000
168225.000000
169128.000000
170069.000000
171030.000000
172020.000000
172952.000000
173890.000000
174854.000000
175819.000000
176732.000000
177619.000000
178520.000000
179446.000000
180395.000000
181325.000000
182223.000000
183127.000000
184060.000000
185006.000000
185964.000000
186888.000000
187786.000000
188715.000000
189650.000000
190563.000000
191473.000000
192425.000000
193389.000000
194325.000000
195305.000000
196280.000000
197201.000000
198143.000000
199094.000000
200064.000000
200998.000000
201938.000000
202916.000000
203898.000000
204832.000000
205813.000000
206817.000000
207773.000000
208768.000000
209760.000000
210690.000000
211590.000000
212513.000000
213457.000000
214435.000000
215378.000000
216355.000000
217342.000000
218311.000000
219228.000000
220163.000000
221111.000000
222077.000000
223011.000000
223972.000000
224960.000000
225946.000000
226889.000000
227867.000000
228831.000000
229751.000000
230686.000000
231573.000000
232336.000000
233237.000000
234317.000000
235228.000000
236048.000000
236983.000000
238150.000000
239240.000000
240248.000000
241280.000000
242299.000000
243191.000000
244083.000000
245014.000000
246067.000000
247042.000000
248041.000000
249085.000000
250135.000000
251065.000000
251947.000000
252879.000000
253851.000000
254858.000000
255788.000000
256667.000000
257522.000000
258441.000000
259444.000000
260492.000000
261507.000000
262396.000000
263223.000000
264031.000000
264751.000000
265776.000000
266890.000000
268026.000000
269179.000000
270279.000000
271336.000000
272305.000000
273176.000000
273939.000000
274726.000000
275908.000000
276929.000000
277964.000000
279117.000000
280198.000000
281190.000000
282155.000000
283061.000000
283980.000000
284919.000000
285908.000000
286988.000000
287935.000000
288782.000000
289587.000000
290447.000000
291514.000000
292595.000000
293652.000000
294642.000000
295501.000000
296310.000000
297104.000000
297972.000000
299183.000000
300238.000000
301219.000000
302206.000000
303172.000000
304084.000000
304986.000000
305900.000000
306845.000000
307807.000000
308796.000000
309796.000000
310772.000000
311729.000000
312656.000000
313606.000000
314576.000000
315521.000000
316399.000000
317267.000000
318043.000000
318836.000000
319725.000000
320877.000000
321909.000000
322823.000000
323722.000000
324615.000000
325597.000000
326659.000000
327616.000000
328578.000000
329543.000000
330477.000000
331386.000000
332323.000000
333306.000000
334263.000000
335196.000000
336176.000000
337158.000000
338117.000000
339024.000000
339938.000000
340872.000000
341818.000000
342742.000000
343634.000000
344535.000000
345484.000000
346438.000000
347344.000000
348315.000000
349307.000000
350259.000000
351163.000000
352065.000000
352913.000000
353902.000000
354881.000000
355819.000000
356803.000000
357774.000000
358680.000000
359576.000000
360426.000000
361301.000000
362288.000000
363218.000000
364197.000000
365177.000000
366164.000000
367045.000000
367946.000000
368890.000000
369954.000000
370926.000000
371868.000000
372787.000000
373822.000000
374823.000000
375824.000000
376783.000000
377771.000000
378769.000000
379767.000000
380714.000000
381652.000000
382628.000000
383619.000000
384624.000000
385579.000000
386496.000000
387417.000000
388393.000000
389377.000000
390380.000000
391383.000000
392344.000000
393318.000000
394300.000000
395288.000000
396253.000000
397209.000000
398214.000000
399263.000000
400404.000000
401436.000000
402464.000000
403474.000000
404454.000000
405388.000000
406380.000000
407389.000000
408366.000000
409384.000000
410420.000000
411408.000000
412395.000000
413395.000000
414348.000000
415282.000000
416247.000000
417191.000000
418102.000000
419062.000000
420032.000000
420954.000000
421932.000000
422910.000000
423838.000000
424809.000000
425788.000000
426710.000000
427637.000000
428590.000000
429557.000000
430478.000000
431416.000000
432393.000000
433399.000000
434363.000000
435325.000000
436301.000000
437276.000000
438201.000000
439126.000000
440089.000000
441095.000000
442140.000000
443246.000000
444384.000000
445460.000000
446447.000000
447376.000000
448307.000000
449272.000000
450270.000000
451314.000000
452331.000000
453349.000000
454389.000000
455441.000000
456450.000000
457480.000000
458504.000000
459496.000000
460428.000000
461407.000000
462409.000000
463396.000000
464381.000000
465409.000000
466433.000000
467386.000000
468287.000000
469089.000000
470015.000000
471080.000000
472083.000000
472925.000000
473774.000000
474796.000000
475785.000000
476715.000000
477657.000000
478622.000000
479598.000000
480579.000000
481556.000000
482479.000000
483454.000000
484440.000000
485434.000000
486368.000000
487325.000000
488310.000000
489312.000000
490315.000000
491271.000000
492261.000000
493255.000000
494217.000000
495156.000000
496139.000000
497142.000000
498119.000000
499130.000000
500148.000000
501139.000000
502079.000000
503066.000000
504059.000000
505015.000000
505965.000000
506951.000000
507951.000000
508928.000000
509866.000000
510833.000000
511809.000000
512789.000000
513721.000000
514643.000000
515596.000000
516566.000000
517537.000000
518473.000000
519458.000000
520445.000000
521384.000000
522310.000000
523259.000000
524216.000000
525125.000000
526061.000000
527010.000000
527963.000000
528904.000000
529907.000000
530900.000000
531853.000000
532848.000000
533846.000000
534773.000000
535674.000000
536605.000000
537554.000000
538509.000000
539430.000000
540368.000000
541346.000000
542347.000000
543353.000000
544308.000000
545288.000000
546256.000000
547164.000000
548132.000000
549133.000000
550119.000000
551030.000000
552007.000000
553004.000000
554006.000000
554970.000000
555910.000000
556879.000000
557856.000000
558833.000000
559769.000000
560746.000000
561730.000000
562709.000000
563654.000000
564631.000000
565599.000000
566505.000000
567436.000000
568392.000000
569382.000000
570325.000000
571312.000000
572323.000000
573275.000000
574255.000000
575227.000000
576165.000000
577088.000000
578046.000000
579026.000000
579958.000000
580923.000000
581910.000000
582905.000000
583841.000000
584828.000000
585822.000000
586752.000000
587730.000000
588709.000000
589626.000000
590600.000000
591575.000000
592510.000000
593457.000000
594426.000000
595389.000000
596302.000000
597257.000000
598219.000000
599145.000000
600103.000000
601057.000000
601967.000000
602881.000000
603816.000000
604764.000000
605675.000000
606568.000000
607480.000000
608446.000000
609421.000000
610389.000000
611323.000000
612281.000000
613203.000000
614069.000000
614811.000000
615538.000000
616243.000000
617145.000000
617975.000000
618732.000000
619485.000000
620573.000000
621638.000000
622747.000000
623844.000000
624855.000000
625713.000000
626510.000000
627512.000000
628565.000000
629585.000000
630464.000000
631340.000000
632292.000000
633367.000000
634428.000000
635393.000000
636314.000000
637223.000000
638138.000000
639108.000000
640148.000000
641217.000000
642315.000000
643345.000000
644345.000000
645355.000000
646353.000000
647292.000000
648247.000000
649230.000000
650261.000000
651232.000000
652202.000000
653215.000000
654251.000000
655243.000000
656252.000000
657269.000000
658261.000000
659210.000000
660202.000000
661189.000000
662127.000000
663107.000000
664097.000000
665041.000000
666013.000000
667001.000000
668000.000000
668945.000000
669921.000000
670895.000000
671824.000000
672812.000000
673809.000000
674769.000000
675660.000000
676487.000000
677288.000000
678496.000000
679685.000000
680711.000000
681717.000000
682731.000000
683729.000000
684696.000000
685697.000000
686707.000000
687720.000000
688683.000000
689592.000000
690431.000000
691152.000000
692248.000000
693322.000000
694558.000000
695689.000000
696746.000000
697716.000000
698542.000000
699287.000000
700076.000000
701335.000000
702384.000000
703373.000000
704292.000000
705135.000000
706004.000000
706821.000000
707646.000000
708541.000000
709558.000000
710586.000000
711573.000000
712509.000000
713421.000000
714257.000000
715064.000000
715954.000000
717227.000000
718289.000000
719331.000000
720355.000000
721309.000000
722226.000000
723068.000000
723988.000000
725159.000000
726374.000000
727522.000000
728602.000000
729646.000000
730614.000000
731546.000000
732392.000000
733295.000000
734506.000000
735594.000000
736728.000000
737719.000000
738665.000000
739579.000000
740593.000000
741619.000000
742555.000000
743552.000000
744628.000000
745728.000000
746658.000000
747553.000000
748522.000000
749716.000000
750859.000000
751884.000000
752879.000000
753788.000000
754636.000000
755485.000000
756492.000000
757713.000000
758812.000000
759790.000000
760776.000000
761796.000000
762768.000000
763659.000000
764568.000000
765595.000000
766634.000000
767559.000000
768538.000000
769551.000000
770565.000000
771454.000000
772258.000000
773027.000000
773856.000000
775063.000000
776126.000000
777086.000000
778082.000000
779090.000000
780045.000000
780937.000000
781870.000000
782818.000000
783809.000000
784733.000000
785610.000000
786500.000000
787442.000000
788451.000000
789434.000000
790353.000000
791305.000000
792237.000000
793116.000000
793956.000000
794841.000000
795751.000000
796578.000000
797346.000000
798107.000000
798978.000000
800054.000000
801156.000000
802205.000000
803174.000000
804101.000000
804897.000000
805639.000000
806320.000000
807034.000000
808209.000000
809261.000000
810190.000000
811110.000000
812047.000000
812988.000000
813947.000000
814915.000000
815831.000000
816711.000000
817524.000000
818408.000000
819537.000000
820663.000000
821676.000000
822677.000000
823670.000000
824671.000000
825573.000000
826439.000000
827382.000000
828472.000000
829541.000000
830529.000000
831501.000000
832452.000000
833305.000000
834166.000000
835143.000000
836355.000000
837409.000000
838408.000000
839353.000000
840200.000000
841014.000000
841806.000000
842667.000000
844025.000000
845157.000000
846365.000000
847435.000000
848427.000000
849356.000000
850277.000000
851323.000000
852516.000000
853625.000000
854620.000000
855641.000000
856675.000000
857696.000000
858672.000000
859590.000000
860433.000000
861295.000000
862263.000000
863507.000000
864545.000000
865607.000000
866702.000000
867713.000000
868585.000000
869431.000000
870268.000000
871195.000000
872033.000000
872808.000000
873545.000000
874405.000000
875714.000000
876897.000000
878028.000000
879038.000000
879938.000000
880950.000000
882008.000000
883034.000000
883929.000000
884767.000000
885691.000000
886952.000000
888068.000000
889054.000000
890048.000000
891046.000000
892043.000000
892990.000000
893939.000000
894903.000000
895872.000000
896848.000000
897778.000000
898744.000000
899726.000000
900731.000000
901694.000000
902696.000000
903695.000000
904686.000000
905616.000000
906527.000000
907466.000000
908433.000000
909451.000000
910468.000000
911446.000000
912458.000000
913475.000000
