ECG (ms)
681.000000
1403.000000
2113.000000
2841.000000
3448.000000
4021.000000
5109.000000
5806.000000
6461.000000
7129.000000
7828.000000
8608.000000
9419.000000
10207.000000
11112.000000
11965.000000
12763.000000
13698.000000
14658.000000
15464.000000
16307.000000
17057.000000
17848.000000
18673.000000
19506.000000
20343.000000
21147.000000
21865.000000
22573.000000
23246.000000
23934.000000
24659.000000
25375.000000
26166.000000
26933.000000
27669.000000
28461.000000
29408.000000
30256.000000
31028.000000
31805.000000
32626.000000
33440.000000
34161.000000
34870.000000
35566.000000
36254.000000
36947.000000
37619.000000
38299.000000
39017.000000
39788.000000
40576.000000
41291.000000
42039.000000
42815.000000
43649.000000
44378.000000
45132.000000
45954.000000
46899.000000
47686.000000
48521.000000
49381.000000
50221.000000
51015.000000
51798.000000
52596.000000
53323.000000
54071.000000
54896.000000
55768.000000
56529.000000
57298.000000
58154.000000
59093.000000
60014.000000
60778.000000
61541.000000
62383.000000
63277.000000
64241.000000
65092.000000
65834.000000
66593.000000
67448.000000
68339.000000
69125.000000
69948.000000
70871.000000
71788.000000
72572.000000
73413.000000
74315.000000
75212.000000
75994.000000
76810.000000
77706.000000
78590.000000
79362.000000
80242.000000
81288.000000
82258.000000
83034.000000
83856.000000
84754.000000
85685.000000
86467.000000
87276.000000
88194.000000
89194.000000
90025.000000
90830.000000
91739.000000
92712.000000
93532.000000
94331.000000
95218.000000
96190.000000
97017.000000
97797.000000
98638.000000
99539.000000
100412.000000
101207.000000
102078.000000
103025.000000
103935.000000
104731.000000
105600.000000
106552.000000
107415.000000
108203.000000
109065.000000
109991.000000
110922.000000
111738.000000
112622.000000
113527.000000
114415.000000
115198.000000
116034.000000
116948.000000
117970.000000
118915.000000
119742.000000
120602.000000
121511.000000
122461.000000
123290.000000
124148.000000
125113.000000
126134.000000
126969.000000
127829.000000
128781.000000
129814.000000
130692.000000
131661.000000
132632.000000
133575.000000
134437.000000
135385.000000
136434.000000
137316.000000
138208.000000
139195.000000
140133.000000
140922.000000
141736.000000
142623.000000
143570.000000
144415.000000
145370.000000
146379.000000
147355.000000
148165.000000
149025.000000
149911.000000
150767.000000
151539.000000
152351.000000
153235.000000
154124.000000
154903.000000
155730.000000
156569.000000
157396.000000
158142.000000
158892.000000
159717.000000
160624.000000
161474.000000
162272.000000
163125.000000
164072.000000
164892.000000
165647.000000
166441.000000
167265.000000
168088.000000
168858.000000
169678.000000
170561.000000
171456.000000
172253.000000
173074.000000
173922.000000
174739.000000
175506.000000
176310.000000
177130.000000
177914.000000
178653.000000
179412.000000
180201.000000
180991.000000
181721.000000
182466.000000
183246.000000
184063.000000
184822.000000
185604.000000
186428.000000
187259.000000
188005.000000
188757.000000
189524.000000
190272.000000
190981.000000
191715.000000
192497.000000
193329.000000
194102.000000
194891.000000
195737.000000
196598.000000
197374.000000
198172.000000
198989.000000
199823.000000
200578.000000
201334.000000
202110.000000
202906.000000
203635.000000
204364.000000
205152.000000
205980.000000
206773.000000
207519.000000
208294.000000
209096.000000
209893.000000
210656.000000
211475.000000
212339.000000
213148.000000
213941.000000
214772.000000
215602.000000
216361.000000
217154.000000
217973.000000
218786.000000
219566.000000
220404.000000
221290.000000
222146.000000
222933.000000
223771.000000
224630.000000
225500.000000
226298.000000
227145.000000
228067.000000
228991.000000
229804.000000
230638.000000
231502.000000
232400.000000
233210.000000
234111.000000
235145.000000
236133.000000
237037.000000
237975.000000
238945.000000
239757.000000
240578.000000
241468.000000
242400.000000
243225.000000
244098.000000
245066.000000
246078.000000
246917.000000
247775.000000
248729.000000
249720.000000
250543.000000
251426.000000
252385.000000
253304.000000
254111.000000
254970.000000
255935.000000
256838.000000
257667.000000
258545.000000
259442.000000
260249.000000
261058.000000
261863.000000
262691.000000
263477.000000
264261.000000
265072.000000
265924.000000
266712.000000
267525.000000
268390.000000
269222.000000
269994.000000
270814.000000
271657.000000
272473.000000
273238.000000
274035.000000
274859.000000
275657.000000
276404.000000
277171.000000
277958.000000
278706.000000
279448.000000
280222.000000
281011.000000
281760.000000
282474.000000
283204.000000
283937.000000
284674.000000
285400.000000
286227.000000
287129.000000
287961.000000
288789.000000
289630.000000
290432.000000
291187.000000
291972.000000
292834.000000
293762.000000
294556.000000
295362.000000
296171.000000
296957.000000
297679.000000
298387.000000
299102.000000
299823.000000
300612.000000
301487.000000
302251.000000
303028.000000
303856.000000
304656.000000
305391.000000
306148.000000
306962.000000
307793.000000
308565.000000
309365.000000
310197.000000
311059.000000
311832.000000
312642.000000
313505.000000
314423.000000
315257.000000
316032.000000
316850.000000
317692.000000
318552.000000
319342.000000
320166.000000
321001.000000
321845.000000
322608.000000
323369.000000
324162.000000
325005.000000
325837.000000
326623.000000
327476.000000
328383.000000
329244.000000
330029.000000
330844.000000
331680.000000
332569.000000
333388.000000
334174.000000
335007.000000
335873.000000
336732.000000
337491.000000
338276.000000
339121.000000
340017.000000
340826.000000
341647.000000
342503.000000
343372.000000
344215.000000
344989.000000
345767.000000
346582.000000
347408.000000
348294.000000
349083.000000
349893.000000
350742.000000
351673.000000
352495.000000
353273.000000
354083.000000
354888.000000
355652.000000
356397.000000
357187.000000
358024.000000
358994.000000
359807.000000
360632.000000
361552.000000
362467.000000
363281.000000
364060.000000
364880.000000
365744.000000
366659.000000
367540.000000
368316.000000
369144.000000
370015.000000
370906.000000
371731.000000
372519.000000
373370.000000
374256.000000
375149.000000
375969.000000
376807.000000
377658.000000
378533.000000
379316.000000
380126.000000
380977.000000
381828.000000
382641.000000
383396.000000
384193.000000
385056.000000
385963.000000
386793.000000
387649.000000
388567.000000
389526.000000
390361.000000
391136.000000
391941.000000
392759.000000
393597.000000
394394.000000
395206.000000
396047.000000
396916.000000
397708.000000
398525.000000
399384.000000
400249.000000
401040.000000
401825.000000
402630.000000
403458.000000
404225.000000
404979.000000
405764.000000
406564.000000
407362.000000
408094.000000
408834.000000
409630.000000
410437.000000
411177.000000
411922.000000
412701.000000
413539.000000
414383.000000
415143.000000
415923.000000
416734.000000
417534.000000
418273.000000
419023.000000
419804.000000
420611.000000
421386.000000
422118.000000
422867.000000
423629.000000
424407.000000
425147.000000
425860.000000
426594.000000
427356.000000
428144.000000
428934.000000
429681.000000
430464.000000
431273.000000
432069.000000
432826.000000
433614.000000
434424.000000
435228.000000
435980.000000
436758.000000
437558.000000
438323.000000
439054.000000
439816.000000
440603.000000
441411.000000
442151.000000
442918.000000
443722.000000
444555.000000
445313.000000
446070.000000
446857.000000
447653.000000
448389.000000
449125.000000
449894.000000
450683.000000
451430.000000
452179.000000
452957.000000
453747.000000
454492.000000
455235.000000
456014.000000
456815.000000
457573.000000
458315.000000
459093.000000
459923.000000
460754.000000
461526.000000
462297.000000
463089.000000
463900.000000
464675.000000
465407.000000
466160.000000
466935.000000
467744.000000
468496.000000
469262.000000
470053.000000
470865.000000
471653.000000
472415.000000
473210.000000
474075.000000
474990.000000
475813.000000
476661.000000
477555.000000
478473.000000
479272.000000
480078.000000
480898.000000
481830.000000
482830.000000
483673.000000
484582.000000
485391.000000
486161.000000
486964.000000
487774.000000
488549.000000
489367.000000
490204.000000
491082.000000
491845.000000
492623.000000
493420.000000
494255.000000
495041.000000
495830.000000
496687.000000
497692.000000
498605.000000
499435.000000
500327.000000
501267.000000
502236.000000
503086.000000
503878.000000
504688.000000
505511.000000
506340.000000
507118.000000
507952.000000
508903.000000
509914.000000
510789.000000
511665.000000
512603.000000
513553.000000
514411.000000
515251.000000
516148.000000
517073.000000
517977.000000
518798.000000
519659.000000
520594.000000
521565.000000
522437.000000
523300.000000
524212.000000
525170.000000
526071.000000
526905.000000
527789.000000
528729.000000
529648.000000
530467.000000
531310.000000
532201.000000
533128.000000
533968.000000
534835.000000
535743.000000
536658.000000
537503.000000
538325.000000
539187.000000
540093.000000
540911.000000
541699.000000
542537.000000
543440.000000
544364.000000
545198.000000
546076.000000
546989.000000
547912.000000
548734.000000
549532.000000
550336.000000
551159.000000
551935.000000
552685.000000
553473.000000
554326.000000
555202.000000
555995.000000
556836.000000
557741.000000
558688.000000
559515.000000
560367.000000
561234.000000
562083.000000
562856.000000
563664.000000
564526.000000
565419.000000
566270.000000
567078.000000
567933.000000
568817.000000
569690.000000
570490.000000
571303.000000
572159.000000
573036.000000
573836.000000
574666.000000
575545.000000
576462.000000
577271.000000
578097.000000
578920.000000
579732.000000
580518.000000
581350.000000
582368.000000
583459.000000
584439.000000
585375.000000
586318.000000
587264.000000
588081.000000
588913.000000
589775.000000
590666.000000
591492.000000
592349.000000
593305.000000
594334.000000
595248.000000
596067.000000
596897.000000
597751.000000
598627.000000
599423.000000
600279.000000
601213.000000
602206.000000
603069.000000
603994.000000
604922.000000
605796.000000
606600.000000
607437.000000
608295.000000
609214.000000
610056.000000
610936.000000
611861.000000
612807.000000
613674.000000
614479.000000
615311.000000
616157.000000
617009.000000
617813.000000
618659.000000
619597.000000
620590.000000
621550.000000
622386.000000
623245.000000
624095.000000
624937.000000
625710.000000
626551.000000
627572.000000
628674.000000
629625.000000
630710.000000
631772.000000
632742.000000
633587.000000
634461.000000
635341.000000
636232.000000
637022.000000
637858.000000
638718.000000
639598.000000
640383.000000
641187.000000
642011.000000
642860.000000
643657.000000
644437.000000
645309.000000
646304.000000
647270.000000
648091.000000
648905.000000
649739.000000
650582.000000
651403.000000
652233.000000
653060.000000
653944.000000
654747.000000
655563.000000
656440.000000
657419.000000
658286.000000
