ECG (ms)
750.000000
1741.000000
2717.000000
3690.000000
4634.000000
5606.000000
6577.000000
7531.000000
8524.000000
9511.000000
10462.000000
11401.000000
12417.000000
13504.000000
14596.000000
15668.000000
16742.000000
17791.000000
18804.000000
19842.000000
20865.000000
21875.000000
22895.000000
23912.000000
24904.000000
25928.000000
26976.000000
27978.000000
28973.000000
29984.000000
30950.000000
31914.000000
32904.000000
33909.000000
34870.000000
35866.000000
36933.000000
37970.000000
38966.000000
39982.000000
41007.000000
42020.000000
43012.000000
44001.000000
45021.000000
46107.000000
47172.000000
48207.000000
49288.000000
50385.000000
51473.000000
52525.000000
53573.000000
54619.000000
55661.000000
56659.000000
57690.000000
58752.000000
59797.000000
60806.000000
61831.000000
62887.000000
63980.000000
65063.000000
66124.000000
67159.000000
68192.000000
69228.000000
70265.000000
71280.000000
72252.000000
73212.000000
74246.000000
75351.000000
76406.000000
77452.000000
78525.000000
79627.000000
80703.000000
81716.000000
82718.000000
83742.000000
84771.000000
85747.000000
86719.000000
87704.000000
88735.000000
89774.000000
90788.000000
91847.000000
92918.000000
93975.000000
94969.000000
95985.000000
97004.000000
97984.000000
98922.000000
99896.000000
100935.000000
102004.000000
103022.000000
104060.000000
105139.000000
106201.000000
107252.000000
108327.000000
109420.000000
110477.000000
111501.000000
112568.000000
113674.000000
114749.000000
115874.000000
117010.000000
118121.000000
119182.000000
120274.000000
121389.000000
122461.000000
123494.000000
124530.000000
125600.000000
126664.000000
127662.000000
128642.000000
129661.000000
130705.000000
131738.000000
132733.000000
133713.000000
134728.000000
135760.000000
136763.000000
137725.000000
138723.000000
139740.000000
140726.000000
141674.000000
142663.000000
143695.000000
144682.000000
145647.000000
146658.000000
147677.000000
148673.000000
149639.000000
150628.000000
151656.000000
152645.000000
153590.000000
154569.000000
155595.000000
156566.000000
157571.000000
158600.000000
159631.000000
160587.000000
161496.000000
162416.000000
163399.000000
164375.000000
165323.000000
166322.000000
167381.000000
168446.000000
169475.000000
170533.000000
171585.000000
172599.000000
173573.000000
174589.000000
175618.000000
176607.000000
177630.000000
178664.000000
179669.000000
180701.000000
181748.000000
182790.000000
183797.000000
184818.000000
185890.000000
186961.000000
187969.000000
188979.000000
189985.000000
190951.000000
191875.000000
192855.000000
193876.000000
194898.000000
195885.000000
196857.000000
197827.000000
198840.000000
199865.000000
200878.000000
201863.000000
202846.000000
203852.000000
204882.000000
205913.000000
206948.000000
207951.000000
208994.000000
210078.000000
211153.000000
212193.000000
213251.000000
214312.000000
215366.000000
216376.000000
217411.000000
218478.000000
219556.000000
220580.000000
221621.000000
222678.000000
223729.000000
224708.000000
225677.000000
226674.000000
227705.000000
228700.000000
229636.000000
230593.000000
231608.000000
232681.000000
233690.000000
234658.000000
235644.000000
236668.000000
237673.000000
238616.000000
239558.000000
240542.000000
241541.000000
242481.000000
243396.000000
244325.000000
245283.000000
246257.000000
247199.000000
248174.000000
249139.000000
250096.000000
251016.000000
251933.000000
252902.000000
253915.000000
254903.000000
255884.000000
256945.000000
258021.000000
259040.000000
260064.000000
261098.000000
262085.000000
263033.000000
264014.000000
265034.000000
266035.000000
266998.000000
267994.000000
269020.000000
270054.000000
271037.000000
272027.000000
273050.000000
274026.000000
274963.000000
275915.000000
276898.000000
277897.000000
278859.000000
279812.000000
280799.000000
281758.000000
282648.000000
283573.000000
284550.000000
285502.000000
286449.000000
287457.000000
288476.000000
289482.000000
290454.000000
291467.000000
292494.000000
293482.000000
294441.000000
295453.000000
296457.000000
297397.000000
298310.000000
299248.000000
300240.000000
301270.000000
302269.000000
303260.000000
304305.000000
305351.000000
306365.000000
307398.000000
308471.000000
309514.000000
310522.000000
311552.000000
312595.000000
313605.000000
314606.000000
315642.000000
316672.000000
317649.000000
318660.000000
319698.000000
320709.000000
321673.000000
322666.000000
323679.000000
324645.000000
325590.000000
326569.000000
327591.000000
328586.000000
329539.000000
330503.000000
331515.000000
332538.000000
333509.000000
334493.000000
335501.000000
336504.000000
337456.000000
338390.000000
339348.000000
340292.000000
341190.000000
342081.000000
343030.000000
344007.000000
344949.000000
345873.000000
346851.000000
347824.000000
348738.000000
349623.000000
350527.000000
351488.000000
352430.000000
353352.000000
354331.000000
355329.000000
356302.000000
357211.000000
358137.000000
359102.000000
360057.000000
361001.000000
361992.000000
363020.000000
364015.000000
364995.000000
366006.000000
367022.000000
367970.000000
368933.000000
369937.000000
370951.000000
371937.000000
372936.000000
373969.000000
374999.000000
375957.000000
376910.000000
377863.000000
378752.000000
379621.000000
380553.000000
381565.000000
382562.000000
383545.000000
384535.000000
385550.000000
386581.000000
387571.000000
388492.000000
389437.000000
390425.000000
391436.000000
392428.000000
393433.000000
394468.000000
395480.000000
396473.000000
397496.000000
398540.000000
399543.000000
400569.000000
401594.000000
402558.000000
403556.000000
404599.000000
405626.000000
406641.000000
407704.000000
408773.000000
409800.000000
410829.000000
411848.000000
412812.000000
413777.000000
414742.000000
415643.000000
416509.000000
417311.000000
418066.000000
418891.000000
419722.000000
420637.000000
421609.000000
422598.000000
423532.000000
424497.000000
425492.000000
426460.000000
427380.000000
428332.000000
429314.000000
430261.000000
431222.000000
432234.000000
433210.000000
434163.000000
435137.000000
436127.000000
437072.000000
438023.000000
439021.000000
440006.000000
440955.000000
441922.000000
442919.000000
443865.000000
444769.000000
445697.000000
446685.000000
447659.000000
448591.000000
449552.000000
450520.000000
451473.000000
452381.000000
453317.000000
454271.000000
455206.000000
456090.000000
457018.000000
457987.000000
458925.000000
459862.000000
460829.000000
461774.000000
462640.000000
463506.000000
464409.000000
465329.000000
466209.000000
467116.000000
468066.000000
468974.000000
469870.000000
470783.000000
471705.000000
472612.000000
473490.000000
474404.000000
475385.000000
476344.000000
477270.000000
478275.000000
479296.000000
480283.000000
481213.000000
482180.000000
483153.000000
484112.000000
485084.000000
486085.000000
487061.000000
488031.000000
489038.000000
490040.000000
491006.000000
492000.000000
493001.000000
493954.000000
494951.000000
495946.000000
496886.000000
497867.000000
498869.000000
499862.000000
500895.000000
501983.000000
503028.000000
504073.000000
505089.000000
506062.000000
507050.000000
508002.000000
508922.000000
509902.000000
510927.000000
511957.000000
512952.000000
513964.000000
514954.000000
515922.000000
516894.000000
517904.000000
518917.000000
519873.000000
520835.000000
521823.000000
522789.000000
523714.000000
524679.000000
525695.000000
526708.000000
527669.000000
528607.000000
529570.000000
530575.000000
531598.000000
532586.000000
533520.000000
534424.000000
535343.000000
536321.000000
537294.000000
538250.000000
539265.000000
540318.000000
541351.000000
542319.000000
543300.000000
544307.000000
545294.000000
546228.000000
547195.000000
548197.000000
549193.000000
550183.000000
551205.000000
552198.000000
553131.000000
554041.000000
554988.000000
556024.000000
557057.000000
558051.000000
559049.000000
560063.000000
561043.000000
561981.000000
562881.000000
563796.000000
564777.000000
565774.000000
566727.000000
567682.000000
568697.000000
569719.000000
570710.000000
571710.000000
572726.000000
573731.000000
574690.000000
575613.000000
576540.000000
577470.000000
578413.000000
579300.000000
580209.000000
581172.000000
582150.000000
583079.000000
583992.000000
584941.000000
585910.000000
586864.000000
587794.000000
588764.000000
589735.000000
590663.000000
591546.000000
592473.000000
593454.000000
594447.000000
595436.000000
596478.000000
597526.000000
598520.000000
599539.000000
600596.000000
601622.000000
602604.000000
603595.000000
604606.000000
605568.000000
606495.000000
607448.000000
608437.000000
609394.000000
610347.000000
611324.000000
612290.000000
613208.000000
614116.000000
615046.000000
616003.000000
616915.000000
617804.000000
618748.000000
619730.000000
620665.000000
621591.000000
622550.000000
623536.000000
624507.000000
625482.000000
626485.000000
627480.000000
628455.000000
629464.000000
630465.000000
631432.000000
632401.000000
633378.000000
634346.000000
635290.000000
636240.000000
637256.000000
638299.000000
639295.000000
640322.000000
641371.000000
642365.000000
643317.000000
644298.000000
645280.000000
646210.000000
647076.000000
647957.000000
648971.000000
650079.000000
651130.000000
652191.000000
653299.000000
654429.000000
655528.000000
656582.000000
657594.000000
658590.000000
659580.000000
660587.000000
661593.000000
662594.000000
663550.000000
664474.000000
665389.000000
666327.000000
667315.000000
668334.000000
669365.000000
670324.000000
671278.000000
672219.000000
673163.000000
674143.000000
675162.000000
676177.000000
677203.000000
678199.000000
679137.000000
680033.000000
680920.000000
681851.000000
682808.000000
683780.000000
684728.000000
685646.000000
686543.000000
687417.000000
688310.000000
689264.000000
690253.000000
691239.000000
692172.000000
693134.000000
694111.000000
695093.000000
696042.000000
696963.000000
697877.000000
698825.000000
699802.000000
700791.000000
701749.000000
702659.000000
703522.000000
704377.000000
705259.000000
706205.000000
707177.000000
708104.000000
709021.000000
709981.000000
710956.000000
711906.000000
712806.000000
713699.000000
714611.000000
715562.000000
716495.000000
717405.000000
718294.000000
719217.000000
720185.000000
721155.000000
722079.000000
722997.000000
723969.000000
724965.000000
725934.000000
726875.000000
727813.000000
728741.000000
729721.000000
730713.000000
731642.000000
732533.000000
733418.000000
734348.000000
735351.000000
736370.000000
737341.000000
738299.000000
739282.000000
740256.000000
741213.000000
742129.000000
743042.000000
744031.000000
745091.000000
746123.000000
747118.000000
748088.000000
749096.000000
750111.000000
751089.000000
752005.000000
752892.000000
753802.000000
754783.000000
755782.000000
756808.000000
757867.000000
758941.000000
759982.000000
760964.000000
761918.000000
762896.000000
763805.000000
764634.000000
765425.000000
766192.000000
767029.000000
767861.000000
768748.000000
769709.000000
770707.000000
771631.000000
772530.000000
773465.000000
774425.000000
775345.000000
776231.000000
777125.000000
778077.000000
779041.000000
779961.000000
780902.000000
781882.000000
782855.000000
783797.000000
784787.000000
785806.000000
786816.000000
787762.000000
788701.000000
789659.000000
790669.000000
791663.000000
792637.000000
793650.000000
794696.000000
795720.000000
796706.000000
797714.000000
798754.000000
799800.000000
800807.000000
801810.000000
802852.000000
803864.000000
804817.000000
805791.000000
806808.000000
807811.000000
808785.000000
809767.000000
810779.000000
811776.000000
812724.000000
813681.000000
814654.000000
815648.000000
816606.000000
817538.000000
818515.000000
819536.000000
820513.000000
821442.000000
822384.000000
823363.000000
824352.000000
825293.000000
826212.000000
827159.000000
828144.000000
829120.000000
830077.000000
831069.000000
832093.000000
833098.000000
834059.000000
835015.000000
836000.000000
836988.000000
837936.000000
838835.000000
839743.000000
840700.000000
841684.000000
842619.000000
843520.000000
844456.000000
845412.000000
846355.000000
847250.000000
848169.000000
849104.000000
849938.000000
850808.000000
851732.000000
852667.000000
853562.000000
854486.000000
855476.000000
856428.000000
857315.000000
858182.000000
859021.000000
859833.000000
860660.000000
861535.000000
862467.000000
863371.000000
864236.000000
865065.000000
865846.000000
866667.000000
867548.000000
868413.000000
869283.000000
870161.000000
871054.000000
871909.000000
872771.000000
873677.000000
874593.000000
875500.000000
876362.000000
877242.000000
878164.000000
879098.000000
880028.000000
881027.000000
882056.000000
883031.000000
884032.000000
885032.000000
885995.000000
886921.000000
887856.000000
888794.000000
889703.000000
890573.000000
891466.000000
892422.000000
893454.000000
894452.000000
895417.000000
896411.000000
897428.000000
898432.000000
899396.000000
900370.000000
901346.000000
902296.000000
903209.000000
904117.000000
905057.000000
905994.000000
906890.000000
907796.000000
908744.000000
909702.000000
910642.000000
911601.000000
912595.000000
913557.000000
914467.000000
915391.000000
916345.000000
917323.000000
918247.000000
919145.000000
920067.000000
921020.000000
921959.000000
922831.000000
923702.000000
924583.000000
925502.000000
926418.000000
927304.000000
928163.000000
929047.000000
929990.000000
930937.000000
931864.000000
932785.000000
933727.000000
934682.000000
935585.000000
936442.000000
937308.000000
938188.000000
939088.000000
939959.000000
940808.000000
941672.000000
942570.000000
943489.000000
944390.000000
945261.000000
946156.000000
947083.000000
948038.000000
948938.000000
949825.000000
950726.000000
951661.000000
952537.000000
953388.000000
954257.000000
955177.000000
956133.000000
957059.000000
957955.000000
958855.000000
959802.000000
960746.000000
961642.000000
962540.000000
963468.000000
964410.000000
965326.000000
966230.000000
967176.000000
968122.000000
969033.000000
969917.000000
970818.000000
971725.000000
972598.000000
973456.000000
974352.000000
975278.000000
976183.000000
977041.000000
977903.000000
978813.000000
979786.000000
980732.000000
981649.000000
982618.000000
983627.000000
984598.000000
985519.000000
986487.000000
987524.000000
988548.000000
989511.000000
990505.000000
991499.000000
992468.000000
993399.000000
994367.000000
995387.000000
996388.000000
997374.000000
998397.000000
999422.000000
1000396.000000
1001387.000000
1002384.000000
1003346.000000
1004270.000000
1005206.000000
1006160.000000
1007106.000000
1008019.000000
1008926.000000
1009858.000000
1010799.000000
1011744.000000
1012653.000000
1013600.000000
1014594.000000
1015610.000000
1016591.000000
1017556.000000
1018538.000000
1019539.000000
1020494.000000
1021385.000000
1022252.000000
1023143.000000
1024079.000000
1024997.000000
1025902.000000
1026822.000000
1027787.000000
1028777.000000
1029729.000000
1030638.000000
1031552.000000
1032486.000000
1033427.000000
1034335.000000
1035207.000000
1036083.000000
1036992.000000
1037917.000000
1038790.000000
1039632.000000
1040489.000000
1041371.000000
1042294.000000
1043188.000000
1044057.000000
1044936.000000
1045858.000000
1046818.000000
1047745.000000
1048637.000000
1049522.000000
1050445.000000
1051413.000000
1052406.000000
1053359.000000
1054314.000000
1055299.000000
1056309.000000
1057303.000000
1058249.000000
1059186.000000
1060163.000000
1061186.000000
1062162.000000
1063080.000000
1064040.000000
1065013.000000
1065981.000000
1066916.000000
1067876.000000
1068815.000000
1069706.000000
1070586.000000
1071498.000000
1072459.000000
1073418.000000
1074343.000000
1075288.000000
1076245.000000
1077170.000000
1078078.000000
1078977.000000
1079932.000000
1080920.000000
1081874.000000
1082787.000000
1083744.000000
1084719.000000
1085680.000000
1086584.000000
1087493.000000
1088434.000000
1089415.000000
1090380.000000
1091299.000000
1092243.000000
1093208.000000
1094156.000000
1095062.000000
1095973.000000
1096938.000000
1097907.000000
1098821.000000
1099707.000000
1100607.000000
1101539.000000
1102456.000000
1103348.000000
1104227.000000
1105147.000000
1106104.000000
1107013.000000
1107910.000000
1108819.000000
1109756.000000
1110691.000000
1111586.000000
1112486.000000
1113440.000000
1114429.000000
1115368.000000
1116304.000000
1117264.000000
1118263.000000
1119198.000000
1120080.000000
1121001.000000
1121960.000000
1122920.000000
1123830.000000
1124706.000000
1125546.000000
1126412.000000
1127384.000000
1128406.000000
1129472.000000
1130531.000000
1131476.000000
1132359.000000
1133267.000000
1134158.000000
1135050.000000
1135955.000000
1136871.000000
1137773.000000
1138633.000000
1139512.000000
1140429.000000
1141378.000000
1142299.000000
1143257.000000
1144249.000000
1145255.000000
1146216.000000
1147213.000000
1148250.000000
1149262.000000
1150260.000000
1151275.000000
1152273.000000
1153230.000000
1154196.000000
1155168.000000
1156105.000000
1157081.000000
1158081.000000
1159037.000000
1160015.000000
1160984.000000
1161954.000000
1162869.000000
1163851.000000
1164832.000000
1165774.000000
1166758.000000
1167785.000000
1168841.000000
1169860.000000
1170865.000000
1171894.000000
1172868.000000
1173845.000000
1174837.000000
1175777.000000
1176771.000000
1177794.000000
1178792.000000
1179796.000000
1180821.000000
1181801.000000
1182746.000000
1183734.000000
1184777.000000
1185778.000000
1186797.000000
1187852.000000
1188886.000000
1189912.000000
1190933.000000
1191956.000000
1192933.000000
1193939.000000
1194957.000000
1195907.000000
1196877.000000
1197844.000000
1198785.000000
1199744.000000
1200738.000000
1201742.000000
1202684.000000
1203634.000000
1204627.000000
1205580.000000
1206479.000000
1207380.000000
1208307.000000
1209260.000000
1210177.000000
1211069.000000
1212011.000000
1212992.000000
1213947.000000
1214885.000000
1215838.000000
1216802.000000
1217743.000000
1218633.000000
1219551.000000
1220507.000000
1221483.000000
1222426.000000
1223337.000000
1224250.000000
1225180.000000
1226126.000000
1227006.000000
1227890.000000
1228828.000000
1229785.000000
1230711.000000
1231654.000000
1232625.000000
1233601.000000
1234497.000000
1235375.000000
1236280.000000
1237211.000000
1238160.000000
1239067.000000
1239980.000000
1240924.000000
1241869.000000
1242764.000000
1243649.000000
1244572.000000
1245552.000000
1246545.000000
1247492.000000
1248475.000000
1249472.000000
1250424.000000
1251398.000000
1252400.000000
1253385.000000
1254308.000000
1255225.000000
1256151.000000
1257043.000000
1257940.000000
1258889.000000
1259903.000000
1260918.000000
1261909.000000
1262932.000000
1263952.000000
1264923.000000
1265908.000000
1266914.000000
1267869.000000
1268811.000000
1269781.000000
1270755.000000
1271694.000000
1272621.000000
1273588.000000
1274605.000000
1275634.000000
1276595.000000
1277547.000000
1278542.000000
1279563.000000
1280554.000000
1281469.000000
1282396.000000
1283383.000000
1284425.000000
1285448.000000
1286468.000000
1287498.000000
1288518.000000
1289489.000000
1290480.000000
1291481.000000
1292417.000000
1293340.000000
1294303.000000
1295324.000000
1296352.000000
1297422.000000
1298515.000000
1299570.000000
1300593.000000
1301643.000000
1302671.000000
1303624.000000
1304586.000000
1305570.000000
1306558.000000
1307522.000000
1308528.000000
1309530.000000
1310500.000000
1311471.000000
1312459.000000
1313436.000000
1314366.000000
1315340.000000
1316335.000000
1317316.000000
1318279.000000
1319300.000000
1320352.000000
1321346.000000
1322323.000000
1323303.000000
1324315.000000
1325267.000000
1326208.000000
1327205.000000
1328258.000000
1329306.000000
1330347.000000
1331427.000000
1332506.000000
1333529.000000
1334552.000000
1335557.000000
1336488.000000
1337390.000000
1338319.000000
1339344.000000
1340360.000000
1341323.000000
1342381.000000
1343475.000000
1344499.000000
1345516.000000
1346517.000000
1347436.000000
1348416.000000
1349420.000000
1350394.000000
1351356.000000
1352340.000000
1353301.000000
1354223.000000
1355099.000000
1355938.000000
1356799.000000
1357691.000000
1358613.000000
1359550.000000
1360446.000000
1361338.000000
1362259.000000
1363115.000000
1363923.000000
1364700.000000
1365472.000000
1366363.000000
1367330.000000
1368290.000000
1369249.000000
1370243.000000
1371250.000000
1372209.000000
1373153.000000
1374122.000000
1375116.000000
1376078.000000
1377056.000000
1378092.000000
1379122.000000
1380111.000000
1381115.000000
1382151.000000
1383212.000000
1384253.000000
1385233.000000
1386244.000000
1387267.000000
1388294.000000
1389265.000000
1390226.000000
1391235.000000
1392298.000000
1393328.000000
1394319.000000
1395322.000000
1396340.000000
1397349.000000
1398321.000000
1399298.000000
1400329.000000
1401377.000000
1402362.000000
1403351.000000
1404378.000000
1405419.000000
1406440.000000
1407424.000000
1408437.000000
1409495.000000
1410567.000000
1411578.000000
1412590.000000
1413620.000000
1414649.000000
1415628.000000
1416634.000000
1417695.000000
1418726.000000
1419692.000000
1420622.000000
1421614.000000
1422656.000000
1423716.000000
1424743.000000
1425815.000000
1426896.000000
1427935.000000
1428933.000000
1429925.000000
1430925.000000
1431918.000000
1432854.000000
1433760.000000
1434695.000000
1435700.000000
1436757.000000
1437809.000000
1438834.000000
1439822.000000
1440823.000000
1441824.000000
1442843.000000
1443801.000000
1444734.000000
1445691.000000
1446659.000000
1447691.000000
1448654.000000
1449617.000000
1450617.000000
1451649.000000
1452646.000000
1453632.000000
1454619.000000
1455592.000000
1456477.000000
1457330.000000
1458198.000000
1459065.000000
1460049.000000
1461093.000000
1462194.000000
1463327.000000
1464444.000000
1465522.000000
1466555.000000
1467616.000000
1468685.000000
1469747.000000
1470790.000000
1471774.000000
1472744.000000
1473744.000000
1474746.000000
1475726.000000
1476662.000000
1477639.000000
1478655.000000
1479674.000000
1480668.000000
1481694.000000
1482755.000000
1483784.000000
1484784.000000
1485804.000000
1486863.000000
1487925.000000
1488930.000000
1489937.000000
1490951.000000
1491972.000000
1492939.000000
1493936.000000
1494956.000000
1495950.000000
1496916.000000
1497888.000000
1498866.000000
1499869.000000
1500807.000000
1501740.000000
1502712.000000
1503735.000000
1504732.000000
1505748.000000
1506770.000000
1507788.000000
1508762.000000
1509768.000000
1510761.000000
1511707.000000
1512627.000000
1513614.000000
1514619.000000
1515613.000000
1516569.000000
1517517.000000
1518512.000000
1519511.000000
1520483.000000
1521435.000000
1522403.000000
1523364.000000
1524313.000000
1525219.000000
1526136.000000
1527083.000000
1528048.000000
1528974.000000
1529882.000000
1530832.000000
1531804.000000
1532763.000000
1533682.000000
1534589.000000
1535537.000000
1536500.000000
1537419.000000
1538299.000000
1539180.000000
1540089.000000
1541033.000000
1541947.000000
1542829.000000
1543733.000000
1544688.000000
1545642.000000
1546551.000000
1547458.000000
1548392.000000
1549345.000000
1550274.000000
1551185.000000
1552135.000000
1553104.000000
1554024.000000
1554935.000000
1555870.000000
1556810.000000
1557707.000000
1558610.000000
1559543.000000
1560474.000000
1561366.000000
1562265.000000
1563202.000000
1564170.000000
1565123.000000
1566034.000000
1566974.000000
1567940.000000
1568864.000000
1569744.000000
1570613.000000
1571510.000000
1572442.000000
1573351.000000
1574292.000000
1575290.000000
1576319.000000
1577280.000000
1578266.000000
1579272.000000
1580283.000000
1581224.000000
1582198.000000
1583169.000000
1584103.000000
1585032.000000
1586020.000000
1587050.000000
1588063.000000
1589061.000000
1590087.000000
1591119.000000
1592151.000000
1593147.000000
1594090.000000
1594999.000000
1595926.000000
1596947.000000
1598031.000000
1599136.000000
1600220.000000
1601285.000000
1602381.000000
1603439.000000
1604471.000000
1605521.000000
1606596.000000
1607662.000000
1608687.000000
1609670.000000
1610628.000000
1611576.000000
1612545.000000
1613546.000000
1614565.000000
1615550.000000
1616544.000000
1617526.000000
1618550.000000
1619623.000000
1620731.000000
1621841.000000
1622920.000000
1624019.000000
1625116.000000
1626184.000000
1627190.000000
1628152.000000
1629117.000000
1630145.000000
1631234.000000
1632341.000000
1633391.000000
1634414.000000
1635453.000000
1636528.000000
1637618.000000
1638675.000000
1639705.000000
1640759.000000
1641840.000000
1642920.000000
1643944.000000
1644975.000000
1646019.000000
1647084.000000
1648081.000000
1649002.000000
1649896.000000
1650823.000000
1651808.000000
1652783.000000
1653726.000000
1654681.000000
1655685.000000
1656744.000000
1657762.000000
1658746.000000
1659770.000000
1660815.000000
1661843.000000
1662816.000000
1663793.000000
1664830.000000
1665882.000000
1666911.000000
1667960.000000
1669009.000000
1670039.000000
1671010.000000
1671999.000000
1673000.000000
1673994.000000
1674958.000000
1675954.000000
1676980.000000
1677991.000000
1678989.000000
1680012.000000
1681058.000000
1682103.000000
1683086.000000
1684072.000000
1685101.000000
1686137.000000
1687118.000000
1688093.000000
1689098.000000
1690127.000000
1691129.000000
1692074.000000
1692992.000000
1693952.000000
1694974.000000
1695970.000000
1696929.000000
1697926.000000
1698963.000000
1699996.000000
1700969.000000
1701898.000000
1702852.000000
1703819.000000
1704783.000000
1705700.000000
1706616.000000
1707571.000000
1708576.000000
1709624.000000
1710648.000000
1711620.000000
1712628.000000
1713626.000000
1714572.000000
1715468.000000
1716353.000000
1717275.000000
1718260.000000
1719239.000000
1720165.000000
1721069.000000
1721951.000000
1722795.000000
1723609.000000
1724482.000000
1725366.000000
1726281.000000
1727255.000000
1728262.000000
1729262.000000
1730228.000000
1731191.000000
1732174.000000
1733160.000000
1734098.000000
1735013.000000
1735957.000000
1736929.000000
1737857.000000
1738758.000000
1739675.000000
1740672.000000
1741749.000000
1742801.000000
1743788.000000
1744752.000000
1745753.000000
1746778.000000
1747770.000000
1748723.000000
1749691.000000
1750693.000000
1751709.000000
1752712.000000
1753654.000000
1754569.000000
1755521.000000
1756508.000000
1757510.000000
1758462.000000
1759400.000000
1760371.000000
1761371.000000
1762383.000000
1763349.000000
1764290.000000
1765257.000000
1766248.000000
1767259.000000
1768223.000000
1769144.000000
1770097.000000
1771074.000000
1772086.000000
1773040.000000
1774001.000000
1775008.000000
1776024.000000
1777005.000000
1777973.000000
1778984.000000
1780055.000000
1781083.000000
1782045.000000
1783012.000000
1784005.000000
1785018.000000
1785985.000000
1786952.000000
1787982.000000
1789046.000000
1790051.000000
1791044.000000
1792090.000000
1793144.000000
1794151.000000
1795160.000000
1796197.000000
1797205.000000
1798148.000000
1799087.000000
1800038.000000
1800989.000000
1801888.000000
1802790.000000
1803731.000000
1804741.000000
1805743.000000
1806709.000000
1807702.000000
1808714.000000
1809692.000000
1810646.000000
1811621.000000
1812611.000000
1813566.000000
1814519.000000
1815496.000000
1816489.000000
1817427.000000
1818351.000000
1819286.000000
1820224.000000
1821126.000000
1822029.000000
1823028.000000
1824064.000000
1825047.000000
1826002.000000
1826948.000000
1827916.000000
1828892.000000
1829841.000000
1830788.000000
1831784.000000
1832855.000000
1833887.000000
1834893.000000
1835945.000000
1836989.000000
1837986.000000
1838967.000000
1839973.000000
1840993.000000
1841955.000000
1842935.000000
1843968.000000
1845007.000000
1845991.000000
1846958.000000
1847970.000000
1849007.000000
1850039.000000
1851012.000000
1851983.000000
1852997.000000
1854059.000000
1855072.000000
1856117.000000
1857188.000000
1858236.000000
1859215.000000
1860208.000000
1861224.000000
1862186.000000
1863129.000000
1864057.000000
1864892.000000
1865690.000000
1866460.000000
1867241.000000
1867982.000000
1868885.000000
1869895.000000
1870882.000000
1871875.000000
1872906.000000
1873958.000000
1875012.000000
1876008.000000
1877006.000000
1877989.000000
1878952.000000
1879887.000000
1880869.000000
1881916.000000
1882988.000000
1884028.000000
1885027.000000
