ECG (ms)
86.000000
826.000000
1577.000000
2322.000000
3065.000000
3804.000000
4535.000000
5271.000000
6008.000000
6738.000000
7465.000000
8193.000000
8939.000000
9710.000000
10496.000000
11273.000000
12028.000000
12770.000000
13501.000000
14236.000000
14983.000000
15739.000000
16505.000000
17266.000000
18010.000000
18749.000000
19481.000000
20213.000000
20946.000000
21685.000000
22426.000000
23161.000000
23903.000000
24639.000000
25389.000000
26155.000000
26930.000000
27729.000000
28505.000000
29260.000000
30018.000000
30772.000000
31531.000000
32288.000000
33034.000000
33778.000000
34538.000000
35321.000000
36124.000000
36918.000000
37697.000000
38461.000000
39216.000000
39972.000000
40727.000000
41487.000000
42251.000000
43013.000000
43761.000000
44506.000000
45241.000000
45972.000000
46701.000000
47440.000000
48193.000000
48948.000000
49690.000000
50429.000000
51167.000000
51905.000000
52658.000000
53425.000000
54192.000000
54949.000000
55685.000000
56404.000000
57113.000000
57822.000000
58535.000000
59263.000000
60002.000000
60759.000000
61506.000000
62252.000000
62989.000000
63738.000000
64487.000000
65242.000000
66002.000000
66742.000000
67467.000000
68177.000000
68876.000000
69569.000000
70268.000000
70992.000000
71751.000000
72537.000000
73326.000000
74098.000000
74860.000000
75623.000000
76392.000000
77178.000000
77982.000000
78778.000000
79562.000000
80317.000000
81057.000000
81785.000000
82514.000000
83260.000000
84026.000000
84804.000000
85562.000000
86302.000000
87029.000000
87745.000000
88468.000000
89211.000000
89971.000000
90742.000000
91505.000000
92250.000000
92987.000000
93716.000000
94442.000000
95175.000000
95921.000000
96678.000000
97441.000000
98197.000000
98938.000000
99668.000000
100388.000000
101112.000000
101850.000000
102615.000000
103403.000000
104188.000000
104944.000000
105685.000000
106422.000000
107155.000000
107898.000000
108657.000000
109422.000000
110192.000000
110942.000000
111678.000000
112402.000000
113118.000000
113824.000000
114549.000000
115291.000000
116057.000000
116842.000000
117617.000000
118380.000000
119140.000000
119913.000000
120707.000000
121509.000000
122320.000000
123128.000000
123904.000000
124666.000000
125418.000000
126175.000000
126942.000000
127729.000000
128528.000000
129319.000000
130081.000000
130830.000000
131573.000000
132325.000000
133096.000000
133896.000000
134712.000000
135505.000000
136281.000000
137048.000000
137810.000000
138576.000000
139350.000000
140141.000000
140936.000000
141728.000000
142501.000000
143252.000000
143991.000000
144718.000000
145454.000000
146215.000000
147027.000000
147883.000000
148718.000000
149514.000000
150292.000000
151061.000000
151824.000000
152596.000000
153388.000000
154194.000000
155004.000000
155792.000000
156570.000000
157347.000000
158122.000000
158908.000000
159704.000000
160492.000000
161267.000000
162038.000000
162814.000000
163610.000000
164424.000000
165244.000000
166058.000000
166850.000000
167621.000000
168395.000000
169173.000000
169963.000000
170734.000000
171501.000000
172258.000000
173024.000000
173815.000000
174620.000000
175428.000000
176223.000000
176998.000000
177782.000000
178571.000000
179367.000000
180155.000000
180927.000000
181694.000000
182481.000000
183295.000000
184102.000000
184888.000000
185671.000000
186465.000000
187271.000000
188087.000000
188881.000000
189662.000000
190455.000000
191262.000000
192104.000000
192903.000000
193679.000000
194459.000000
195254.000000
196062.000000
196871.000000
197648.000000
198414.000000
199181.000000
199966.000000
200770.000000
201597.000000
202400.000000
203180.000000
203953.000000
204731.000000
205526.000000
206340.000000
207106.000000
207834.000000
208571.000000
209345.000000
210127.000000
210908.000000
211680.000000
212452.000000
213243.000000
214047.000000
214869.000000
215690.000000
216491.000000
217268.000000
218032.000000
218784.000000
219542.000000
220313.000000
221114.000000
221933.000000
222733.000000
223510.000000
224270.000000
225022.000000
225783.000000
226558.000000
227343.000000
228140.000000
228925.000000
229692.000000
230444.000000
231189.000000
231937.000000
232699.000000
233481.000000
234283.000000
235079.000000
235859.000000
236633.000000
237412.000000
238204.000000
239003.000000
239804.000000
240581.000000
241342.000000
242112.000000
242892.000000
243683.000000
244492.000000
245278.000000
246046.000000
246803.000000
247568.000000
248349.000000
249165.000000
249974.000000
250755.000000
251513.000000
252266.000000
253026.000000
253807.000000
254607.000000
255389.000000
256161.000000
256919.000000
257687.000000
258476.000000
259289.000000
260102.000000
260892.000000
261655.000000
262408.000000
263169.000000
263952.000000
264756.000000
265562.000000
266334.000000
267092.000000
267841.000000
268595.000000
269367.000000
270163.000000
270960.000000
271736.000000
272495.000000
273241.000000
273989.000000
274753.000000
275544.000000
276346.000000
277141.000000
277912.000000
278666.000000
279412.000000
280162.000000
280934.000000
281726.000000
282532.000000
283314.000000
284076.000000
284828.000000
285586.000000
286355.000000
287139.000000
287926.000000
288688.000000
289451.000000
290212.000000
290997.000000
291811.000000
292630.000000
293419.000000
294194.000000
294978.000000
295781.000000
296601.000000
297414.000000
298207.000000
298993.000000
299792.000000
300604.000000
301404.000000
302184.000000
302969.000000
303775.000000
304599.000000
305402.000000
306189.000000
306991.000000
307802.000000
308626.000000
309424.000000
310202.000000
310968.000000
311737.000000
312535.000000
313383.000000
314250.000000
315091.000000
315901.000000
316706.000000
317531.000000
318384.000000
319253.000000
320115.000000
320945.000000
321751.000000
322565.000000
323400.000000
324236.000000
325091.000000
325962.000000
326788.000000
327597.000000
328413.000000
329216.000000
330036.000000
330880.000000
331713.000000
332524.000000
333339.000000
334172.000000
335017.000000
335863.000000
336691.000000
337491.000000
338290.000000
339103.000000
339932.000000
340775.000000
341594.000000
342382.000000
343172.000000
343983.000000
344818.000000
345664.000000
346505.000000
347315.000000
348103.000000
348876.000000
349655.000000
350453.000000
351292.000000
352157.000000
353001.000000
353810.000000
354604.000000
355416.000000
356242.000000
357072.000000
357870.000000
358649.000000
359427.000000
360228.000000
361072.000000
361951.000000
362785.000000
363589.000000
364400.000000
365230.000000
366074.000000
366914.000000
367716.000000
368496.000000
369287.000000
370106.000000
370970.000000
371837.000000
372670.000000
373490.000000
374349.000000
375239.000000
376141.000000
377006.000000
377826.000000
378619.000000
379411.000000
380216.000000
381038.000000
381849.000000
382665.000000
383492.000000
384372.000000
385316.000000
386245.000000
387124.000000
387992.000000
388878.000000
389775.000000
390673.000000
391553.000000
392395.000000
393229.000000
394077.000000
394933.000000
395794.000000
396665.000000
397524.000000
398346.000000
399154.000000
399962.000000
400789.000000
401627.000000
402472.000000
403308.000000
404128.000000
404927.000000
405728.000000
406533.000000
407347.000000
408156.000000
408949.000000
409724.000000
410505.000000
411297.000000
412109.000000
412930.000000
413732.000000
414504.000000
415262.000000
416031.000000
416814.000000
417605.000000
418407.000000
419185.000000
419956.000000
420736.000000
421534.000000
422360.000000
423184.000000
423978.000000
424766.000000
425565.000000
426381.000000
427193.000000
427980.000000
428750.000000
429499.000000
430260.000000
431047.000000
431861.000000
432700.000000
433513.000000
434304.000000
435084.000000
435879.000000
436695.000000
437530.000000
438351.000000
439139.000000
439922.000000
440716.000000
441533.000000
442364.000000
443181.000000
443970.000000
444735.000000
445511.000000
446298.000000
447107.000000
447915.000000
448702.000000
449465.000000
450223.000000
450993.000000
451787.000000
452612.000000
453419.000000
454194.000000
454956.000000
455733.000000
456538.000000
457355.000000
458138.000000
458900.000000
459656.000000
460436.000000
461239.000000
462061.000000
462861.000000
463630.000000
464399.000000
465185.000000
465990.000000
466811.000000
467611.000000
468404.000000
469216.000000
470046.000000
470870.000000
471671.000000
472452.000000
473235.000000
474030.000000
474848.000000
475684.000000
476499.000000
477328.000000
478160.000000
479005.000000
479841.000000
480669.000000
481470.000000
482292.000000
483132.000000
483992.000000
484832.000000
485662.000000
486506.000000
487362.000000
488220.000000
489066.000000
489881.000000
490690.000000
491507.000000
492341.000000
493193.000000
494019.000000
494813.000000
495599.000000
496400.000000
497214.000000
498045.000000
498842.000000
499620.000000
500414.000000
501239.000000
502083.000000
502903.000000
503701.000000
504489.000000
505289.000000
506100.000000
506917.000000
507714.000000
508498.000000
509298.000000
510112.000000
510942.000000
511758.000000
512552.000000
513346.000000
514153.000000
514988.000000
515826.000000
516639.000000
517427.000000
518216.000000
519017.000000
519834.000000
520678.000000
521499.000000
522299.000000
523129.000000
523989.000000
524868.000000
525708.000000
526510.000000
527318.000000
528159.000000
529003.000000
529847.000000
530659.000000
531460.000000
532278.000000
533125.000000
533977.000000
534800.000000
535613.000000
536457.000000
537340.000000
538236.000000
539111.000000
539946.000000
540782.000000
541626.000000
542473.000000
543304.000000
544119.000000
544923.000000
545739.000000
546584.000000
547448.000000
548277.000000
549091.000000
549919.000000
550771.000000
551670.000000
552566.000000
553415.000000
554230.000000
555035.000000
555853.000000
556717.000000
557581.000000
558417.000000
559239.000000
560075.000000
560954.000000
561851.000000
562700.000000
563522.000000
564337.000000
565173.000000
566013.000000
566835.000000
567643.000000
568443.000000
569277.000000
570187.000000
571086.000000
571943.000000
572777.000000
573626.000000
574484.000000
575361.000000
576241.000000
577089.000000
577914.000000
578752.000000
579608.000000
580473.000000
581337.000000
582161.000000
582963.000000
583769.000000
584595.000000
585444.000000
586317.000000
587154.000000
587968.000000
588792.000000
589649.000000
590512.000000
591364.000000
592188.000000
592977.000000
593757.000000
594554.000000
595382.000000
596238.000000
597075.000000
597892.000000
598721.000000
599586.000000
600464.000000
601311.000000
602134.000000
602939.000000
603773.000000
604624.000000
605471.000000
606294.000000
607144.000000
608024.000000
608920.000000
609814.000000
610655.000000
611473.000000
612301.000000
613162.000000
614029.000000
614874.000000
615699.000000
616550.000000
617454.000000
618392.000000
619314.000000
620173.000000
620993.000000
621819.000000
622676.000000
623557.000000
624449.000000
625305.000000
626138.000000
627000.000000
627893.000000
628811.000000
629694.000000
630531.000000
631341.000000
632141.000000
632968.000000
633839.000000
634779.000000
635675.000000
636548.000000
637405.000000
638291.000000
639209.000000
640111.000000
640971.000000
641800.000000
642611.000000
643433.000000
644288.000000
645159.000000
646019.000000
646844.000000
647668.000000
648546.000000
649459.000000
650396.000000
651289.000000
652127.000000
652933.000000
653744.000000
654563.000000
655430.000000
656327.000000
657208.000000
658064.000000
658952.000000
659907.000000
660952.000000
661962.000000
662888.000000
663756.000000
664601.000000
665483.000000
666417.000000
667370.000000
668271.000000
669127.000000
669986.000000
670874.000000
671800.000000
672749.000000
673678.000000
674600.000000
675479.000000
676352.000000
677263.000000
678184.000000
679109.000000
680005.000000
680867.000000
681722.000000
682581.000000
683453.000000
684283.000000
685100.000000
685908.000000
686757.000000
687667.000000
688617.000000
689512.000000
690358.000000
691200.000000
692041.000000
692894.000000
693746.000000
694586.000000
695433.000000
696363.000000
697335.000000
698257.000000
699121.000000
700007.000000
700927.000000
701833.000000
702703.000000
703546.000000
704419.000000
705337.000000
706316.000000
707332.000000
708246.000000
709104.000000
709968.000000
710862.000000
711767.000000
712641.000000
713489.000000
714348.000000
715245.000000
716165.000000
717168.000000
718062.000000
718916.000000
719787.000000
720686.000000
721584.000000
722435.000000
723257.000000
724104.000000
725020.000000
725983.000000
726965.000000
727860.000000
728729.000000
729628.000000
730604.000000
731533.000000
732402.000000
733235.000000
734079.000000
734964.000000
735869.000000
736744.000000
737580.000000
738437.000000
739361.000000
740321.000000
741251.000000
742126.000000
743006.000000
743897.000000
744794.000000
745667.000000
746525.000000
747425.000000
748418.000000
749361.000000
750247.000000
751093.000000
751951.000000
752834.000000
753770.000000
754672.000000
755525.000000
756345.000000
757125.000000
757883.000000
758659.000000
759503.000000
760423.000000
761323.000000
762159.000000
762970.000000
763817.000000
764704.000000
765563.000000
766382.000000
767206.000000
768052.000000
768915.000000
769756.000000
770577.000000
771415.000000
772283.000000
773178.000000
774039.000000
774862.000000
775692.000000
776548.000000
777420.000000
778267.000000
779088.000000
779896.000000
780721.000000
781580.000000
782428.000000
783246.000000
784089.000000
784989.000000
785867.000000
786712.000000
787532.000000
788368.000000
789215.000000
790059.000000
790880.000000
791693.000000
792527.000000
793371.000000
794186.000000
794973.000000
795781.000000
796621.000000
797483.000000
798311.000000
799128.000000
799975.000000
800870.000000
801760.000000
802603.000000
803468.000000
804347.000000
805242.000000
806106.000000
806980.000000
807890.000000
808829.000000
809763.000000
810648.000000
811516.000000
812398.000000
813339.000000
814359.000000
815279.000000
816135.000000
817009.000000
817931.000000
818877.000000
819787.000000
820657.000000
821558.000000
822472.000000
823417.000000
824300.000000
825155.000000
826032.000000
826947.000000
827863.000000
828721.000000
829609.000000
830545.000000
831534.000000
832450.000000
833331.000000
834243.000000
835182.000000
836127.000000
836983.000000
837788.000000
838594.000000
839436.000000
840362.000000
841232.000000
842177.000000
843229.000000
844285.000000
845255.000000
846222.000000
847204.000000
848152.000000
849060.000000
849994.000000
850974.000000
851980.000000
852936.000000
853805.000000
854639.000000
855505.000000
856450.000000
857405.000000
858378.000000
859451.000000
860534.000000
861579.000000
862522.000000
863451.000000
864402.000000
865377.000000
866327.000000
867261.000000
868250.000000
869249.000000
870218.000000
871164.000000
872122.000000
873050.000000
873933.000000
874789.000000
875681.000000
876678.000000
877727.000000
878669.000000
879539.000000
880405.000000
881290.000000
882191.000000
883059.000000
883901.000000
884746.000000
885617.000000
886555.000000
887515.000000
888424.000000
889286.000000
890144.000000
891033.000000
891941.000000
892812.000000
893654.000000
894502.000000
895383.000000
896295.000000
897237.000000
898101.000000
898918.000000
899724.000000
