ECG (ms)
337.000000
1126.000000
1938.000000
2762.000000
3554.000000
4359.000000
5166.000000
5974.000000
6748.000000
7545.000000
8345.000000
9134.000000
9917.000000
10710.000000
11512.000000
12286.000000
13099.000000
13902.000000
14718.000000
15535.000000
16332.000000
17128.000000
17924.000000
18717.000000
19489.000000
20285.000000
21082.000000
21865.000000
22640.000000
23431.000000
24218.000000
24977.000000
25736.000000
26516.000000
27293.000000
28045.000000
28815.000000
29606.000000
30412.000000
31193.000000
31964.000000
32757.000000
33576.000000
34362.000000
35144.000000
35946.000000
36759.000000
37530.000000
38300.000000
39083.000000
39860.000000
40584.000000
41297.000000
42011.000000
42761.000000
43529.000000
44337.000000
45127.000000
45938.000000
46750.000000
47526.000000
48293.000000
49073.000000
49836.000000
50589.000000
51362.000000
52140.000000
52898.000000
53661.000000
54440.000000
55222.000000
55979.000000
56775.000000
57583.000000
58377.000000
59141.000000
59941.000000
60752.000000
61518.000000
62309.000000
63126.000000
63945.000000
64743.000000
65550.000000
66372.000000
67193.000000
67999.000000
68819.000000
69641.000000
70420.000000
71187.000000
71970.000000
72753.000000
73500.000000
74268.000000
75045.000000
75794.000000
76574.000000
77366.000000
78127.000000
78910.000000
79715.000000
80490.000000
81252.000000
82037.000000
82827.000000
83579.000000
84355.000000
85148.000000
85916.000000
86699.000000
87497.000000
88275.000000
89035.000000
89830.000000
90631.000000
91380.000000
92152.000000
92937.000000
93705.000000
94460.000000
95221.000000
95983.000000
96735.000000
97499.000000
98298.000000
99074.000000
99850.000000
100634.000000
101416.000000
102163.000000
102937.000000
103711.000000
104466.000000
105218.000000
105985.000000
106754.000000
107505.000000
108269.000000
109054.000000
109803.000000
110559.000000
111322.000000
112117.000000
112861.000000
113621.000000
114398.000000
115166.000000
115898.000000
116647.000000
117400.000000
118150.000000
118882.000000
119628.000000
120378.000000
121117.000000
121865.000000
122620.000000
123380.000000
124127.000000
124873.000000
125626.000000
126369.000000
127124.000000
127894.000000
128689.000000
129460.000000
130249.000000
131050.000000
131809.000000
132551.000000
133287.000000
134016.000000
134745.000000
135497.000000
136298.000000
137105.000000
137926.000000
138744.000000
139511.000000
140293.000000
141085.000000
141831.000000
142600.000000
143385.000000
144138.000000
144907.000000
145708.000000
146527.000000
147302.000000
148089.000000
148887.000000
149649.000000
150401.000000
151187.000000
152013.000000
152846.000000
153683.000000
154495.000000
155321.000000
156149.000000
156961.000000
157780.000000
158603.000000
159394.000000
160193.000000
160996.000000
161801.000000
162573.000000
163357.000000
164152.000000
164968.000000
165748.000000
166511.000000
167283.000000
168095.000000
168889.000000
169674.000000
170478.000000
171284.000000
172039.000000
172814.000000
173612.000000
174429.000000
175217.000000
176004.000000
176812.000000
177631.000000
178424.000000
179221.000000
180020.000000
180804.000000
181577.000000
182375.000000
183172.000000
183935.000000
184699.000000
185493.000000
186300.000000
187079.000000
187846.000000
188655.000000
189481.000000
190278.000000
191063.000000
191859.000000
192669.000000
193440.000000
194203.000000
195000.000000
195802.000000
196573.000000
197339.000000
198043.000000
198765.000000
199499.000000
200221.000000
200967.000000
201732.000000
202519.000000
203275.000000
204051.000000
204845.000000
205591.000000
206343.000000
207123.000000
207927.000000
208695.000000
209455.000000
210235.000000
211026.000000
211793.000000
212545.000000
213305.000000
214088.000000
214842.000000
215597.000000
216366.000000
217143.000000
217891.000000
218660.000000
219458.000000
220212.000000
220962.000000
221731.000000
222498.000000
223244.000000
224009.000000
224808.000000
225588.000000
226378.000000
227161.000000
227910.000000
228661.000000
229432.000000
230234.000000
230995.000000
231788.000000
232603.000000
233386.000000
234172.000000
234959.000000
235722.000000
236467.000000
237228.000000
238006.000000
238758.000000
239539.000000
240325.000000
241116.000000
241891.000000
242697.000000
243507.000000
244269.000000
245046.000000
245834.000000
246618.000000
247375.000000
248153.000000
248980.000000
249795.000000
250598.000000
251432.000000
252265.000000
253074.000000
253891.000000
254723.000000
255555.000000
256357.000000
257160.000000
257978.000000
258803.000000
259584.000000
260397.000000
261222.000000
262043.000000
262834.000000
263655.000000
264472.000000
265281.000000
266041.000000
266829.000000
267610.000000
268364.000000
269113.000000
269870.000000
270641.000000
271394.000000
272155.000000
272927.000000
273725.000000
274478.000000
275254.000000
276051.000000
276829.000000
277576.000000
278339.000000
279126.000000
279896.000000
280664.000000
281449.000000
282255.000000
283007.000000
283767.000000
284530.000000
285271.000000
286014.000000
286770.000000
287541.000000
288288.000000
289049.000000
289819.000000
290569.000000
291319.000000
292081.000000
292857.000000
293604.000000
294375.000000
295143.000000
295900.000000
296646.000000
297395.000000
298143.000000
298874.000000
299610.000000
300355.000000
301105.000000
301847.000000
302605.000000
303377.000000
304136.000000
304886.000000
305651.000000
306422.000000
307176.000000
307952.000000
308747.000000
309516.000000
310289.000000
311073.000000
311879.000000
312628.000000
313393.000000
314160.000000
314913.000000
315664.000000
316422.000000
317186.000000
317930.000000
318691.000000
319473.000000
320228.000000
320989.000000
321757.000000
322506.000000
323250.000000
323995.000000
324745.000000
325483.000000
326229.000000
326988.000000
327732.000000
328473.000000
329218.000000
329973.000000
330706.000000
331437.000000
332172.000000
332922.000000
333660.000000
334402.000000
335144.000000
335879.000000
336602.000000
337345.000000
338105.000000
338842.000000
339584.000000
340344.000000
341090.000000
341817.000000
342558.000000
343319.000000
344073.000000
344821.000000
345596.000000
346408.000000
347175.000000
347931.000000
348692.000000
349446.000000
350180.000000
350932.000000
351721.000000
352494.000000
353264.000000
354061.000000
354882.000000
355659.000000
356457.000000
357253.000000
358007.000000
358790.000000
359577.000000
360327.000000
361086.000000
361861.000000
362638.000000
363397.000000
364188.000000
364986.000000
365742.000000
366520.000000
367308.000000
368078.000000
368812.000000
369567.000000
370338.000000
371090.000000
371834.000000
372593.000000
373367.000000
374130.000000
374874.000000
375626.000000
376386.000000
377127.000000
377862.000000
378604.000000
379342.000000
380068.000000
380803.000000
381561.000000
382309.000000
383065.000000
383842.000000
384604.000000
385364.000000
386145.000000
386930.000000
387674.000000
388422.000000
389181.000000
389912.000000
390654.000000
391419.000000
392174.000000
392921.000000
393690.000000
394480.000000
395229.000000
395990.000000
396761.000000
397518.000000
398263.000000
399012.000000
399773.000000
400507.000000
401254.000000
402009.000000
402755.000000
403497.000000
404260.000000
405023.000000
405762.000000
406513.000000
407275.000000
408034.000000
408800.000000
409592.000000
410410.000000
411195.000000
411968.000000
412764.000000
413559.000000
414313.000000
415097.000000
415888.000000
416670.000000
417425.000000
418200.000000
418987.000000
419721.000000
420477.000000
421240.000000
421990.000000
422712.000000
423462.000000
424256.000000
425038.000000
425829.000000
426650.000000
427469.000000
428255.000000
429065.000000
429881.000000
430675.000000
431457.000000
432256.000000
433059.000000
433822.000000
434618.000000
435455.000000
436286.000000
437087.000000
437907.000000
438722.000000
439506.000000
440308.000000
441132.000000
441955.000000
442740.000000
443550.000000
444364.000000
445158.000000
445941.000000
446746.000000
447551.000000
448329.000000
449112.000000
449914.000000
450714.000000
451490.000000
452290.000000
453092.000000
453867.000000
454660.000000
455479.000000
456295.000000
457098.000000
457913.000000
458732.000000
459512.000000
460302.000000
461093.000000
461847.000000
462592.000000
463354.000000
464134.000000
464883.000000
465649.000000
466437.000000
467192.000000
467926.000000
468663.000000
469407.000000
470130.000000
470879.000000
471680.000000
472459.000000
473269.000000
474096.000000
474881.000000
475675.000000
476487.000000
477266.000000
478021.000000
478810.000000
479587.000000
480323.000000
481067.000000
481814.000000
482576.000000
483328.000000
484096.000000
484881.000000
485632.000000
486383.000000
487144.000000
487928.000000
488669.000000
489421.000000
490171.000000
490906.000000
491645.000000
492394.000000
493147.000000
493891.000000
494651.000000
495440.000000
496211.000000
496948.000000
497700.000000
498455.000000
499190.000000
499927.000000
500661.000000
501402.000000
502130.000000
502869.000000
503635.000000
504428.000000
505183.000000
505935.000000
506695.000000
507448.000000
508173.000000
508902.000000
509637.000000
510387.000000
511133.000000
511902.000000
512710.000000
513505.000000
514267.000000
515061.000000
515850.000000
516600.000000
517364.000000
518149.000000
518940.000000
519730.000000
520543.000000
521359.000000
522146.000000
522932.000000
523745.000000
524557.000000
525327.000000
526107.000000
526921.000000
527745.000000
528544.000000
529342.000000
530147.000000
530942.000000
531712.000000
532506.000000
533314.000000
534105.000000
534891.000000
535714.000000
536537.000000
537323.000000
538139.000000
538954.000000
539760.000000
540540.000000
541344.000000
542138.000000
542900.000000
543677.000000
544462.000000
545210.000000
545966.000000
546735.000000
547536.000000
548307.000000
549113.000000
549945.000000
550756.000000
551566.000000
552396.000000
553211.000000
553978.000000
554773.000000
555566.000000
556329.000000
557105.000000
557899.000000
558659.000000
559421.000000
560202.000000
560976.000000
561723.000000
562491.000000
563281.000000
564031.000000
564799.000000
565574.000000
566307.000000
567055.000000
567807.000000
568565.000000
569306.000000
570063.000000
570844.000000
571621.000000
572383.000000
573155.000000
573938.000000
574705.000000
575451.000000
576217.000000
577012.000000
577765.000000
578520.000000
579297.000000
580068.000000
580819.000000
581576.000000
582345.000000
583127.000000
583856.000000
584600.000000
585351.000000
586091.000000
586820.000000
587566.000000
588340.000000
589086.000000
589844.000000
590627.000000
591402.000000
592161.000000
592941.000000
593731.000000
594476.000000
595237.000000
596019.000000
596784.000000
597538.000000
598322.000000
599121.000000
599881.000000
600658.000000
601450.000000
602213.000000
602971.000000
603748.000000
604536.000000
605294.000000
606062.000000
606851.000000
607629.000000
608391.000000
609156.000000
609927.000000
610688.000000
611424.000000
612169.000000
612919.000000
613656.000000
614397.000000
615161.000000
615952.000000
616718.000000
617471.000000
618224.000000
618987.000000
619740.000000
620501.000000
621285.000000
622121.000000
622903.000000
623683.000000
624493.000000
625311.000000
626085.000000
626871.000000
627669.000000
628488.000000
629269.000000
630065.000000
630870.000000
631666.000000
632422.000000
633198.000000
634000.000000
634775.000000
635553.000000
636363.000000
637206.000000
638003.000000
638801.000000
639612.000000
640428.000000
641196.000000
641982.000000
642784.000000
643543.000000
644301.000000
645084.000000
645890.000000
646650.000000
647415.000000
648209.000000
648985.000000
649753.000000
650548.000000
651348.000000
652111.000000
652893.000000
653692.000000
654498.000000
655257.000000
656035.000000
656830.000000
657614.000000
658379.000000
659185.000000
660018.000000
660827.000000
661642.000000
662478.000000
663310.000000
664100.000000
664913.000000
665745.000000
666581.000000
667405.000000
668208.000000
669023.000000
669860.000000
670703.000000
671520.000000
672351.000000
673168.000000
673951.000000
674748.000000
675558.000000
676319.000000
677097.000000
677906.000000
678707.000000
679500.000000
680339.000000
681185.000000
681975.000000
682770.000000
683578.000000
684369.000000
685145.000000
685954.000000
686767.000000
687547.000000
688334.000000
689144.000000
689964.000000
690744.000000
691541.000000
692344.000000
693110.000000
693883.000000
694683.000000
695492.000000
696261.000000
697061.000000
697858.000000
698657.000000
699433.000000
700245.000000
701062.000000
701845.000000
702615.000000
703416.000000
704240.000000
705044.000000
705861.000000
706687.000000
707490.000000
708282.000000
709083.000000
709861.000000
710622.000000
711406.000000
712221.000000
713022.000000
713823.000000
714637.000000
715455.000000
716225.000000
716999.000000
717791.000000
718562.000000
719345.000000
720165.000000
720985.000000
721769.000000
722602.000000
723445.000000
724242.000000
725048.000000
725863.000000
726680.000000
727462.000000
728266.000000
729072.000000
729884.000000
730672.000000
731479.000000
732285.000000
733041.000000
733803.000000
734562.000000
735308.000000
736043.000000
736789.000000
737550.000000
738308.000000
739087.000000
739908.000000
740696.000000
741469.000000
742271.000000
743062.000000
743828.000000
744623.000000
745427.000000
746198.000000
746982.000000
747779.000000
748560.000000
749329.000000
750124.000000
750913.000000
751663.000000
752428.000000
753210.000000
753956.000000
754701.000000
755458.000000
756247.000000
757012.000000
757783.000000
758585.000000
759364.000000
760114.000000
760868.000000
761631.000000
762396.000000
763140.000000
763898.000000
764678.000000
765471.000000
766231.000000
767009.000000
767808.000000
768572.000000
769344.000000
770137.000000
770922.000000
771668.000000
772413.000000
773164.000000
773908.000000
774652.000000
775409.000000
776182.000000
776945.000000
777701.000000
778461.000000
779220.000000
779959.000000
780701.000000
781454.000000
782232.000000
782990.000000
783752.000000
784528.000000
785276.000000
786020.000000
786776.000000
787538.000000
788286.000000
789043.000000
789818.000000
790577.000000
791336.000000
792113.000000
792865.000000
793594.000000
794349.000000
795116.000000
795874.000000
796636.000000
797445.000000
798290.000000
799120.000000
799927.000000
800753.000000
801578.000000
802370.000000
803150.000000
803957.000000
804769.000000
805542.000000
806347.000000
807165.000000
807986.000000
808784.000000
809606.000000
810427.000000
811204.000000
811995.000000
812809.000000
813586.000000
814378.000000
815184.000000
815966.000000
816735.000000
817523.000000
818317.000000
819084.000000
819887.000000
820696.000000
821479.000000
822268.000000
823067.000000
823866.000000
824631.000000
825406.000000
826204.000000
826968.000000
827741.000000
828537.000000
829317.000000
830077.000000
830853.000000
831642.000000
832400.000000
833172.000000
833963.000000
834717.000000
835489.000000
836287.000000
837089.000000
837858.000000
838647.000000
839460.000000
840231.000000
841008.000000
841812.000000
842595.000000
843360.000000
844142.000000
844942.000000
845705.000000
846485.000000
847276.000000
848081.000000
848845.000000
849621.000000
850405.000000
851157.000000
851916.000000
852688.000000
853490.000000
854267.000000
855064.000000
855866.000000
856667.000000
857433.000000
858203.000000
858965.000000
859682.000000
860380.000000
861069.000000
861776.000000
862529.000000
863295.000000
864049.000000
864829.000000
865616.000000
866387.000000
867146.000000
867918.000000
868708.000000
869472.000000
870231.000000
870996.000000
871768.000000
872519.000000
873279.000000
874046.000000
874798.000000
875554.000000
876331.000000
877133.000000
877909.000000
878672.000000
879447.000000
880243.000000
881008.000000
881766.000000
882531.000000
883307.000000
884057.000000
884816.000000
885577.000000
886331.000000
887082.000000
887845.000000
888639.000000
889378.000000
890127.000000
890882.000000
891637.000000
892361.000000
893112.000000
893871.000000
894656.000000
895439.000000
896267.000000
897090.000000
897888.000000
898666.000000
899465.000000
900275.000000
901071.000000
901836.000000
902633.000000
903445.000000
904270.000000
905072.000000
905896.000000
906726.000000
907548.000000
908348.000000
909167.000000
909993.000000
910774.000000
911570.000000
912392.000000
913199.000000
913971.000000
914772.000000
915589.000000
916358.000000
917164.000000
917978.000000
918760.000000
919551.000000
920382.000000
921212.000000
922009.000000
922816.000000
923639.000000
924463.000000
925252.000000
926068.000000
926889.000000
927669.000000
928449.000000
929256.000000
930072.000000
930857.000000
931670.000000
932503.000000
933315.000000
934117.000000
934926.000000
935741.000000
936515.000000
937284.000000
938069.000000
938850.000000
939609.000000
940377.000000
941152.000000
941915.000000
942683.000000
943489.000000
944319.000000
945118.000000
945936.000000
946770.000000
947584.000000
948381.000000
949174.000000
949979.000000
950763.000000
951515.000000
952274.000000
953064.000000
953872.000000
954664.000000
955467.000000
956268.000000
957062.000000
957836.000000
958637.000000
959448.000000
960226.000000
961001.000000
961782.000000
962563.000000
963317.000000
964077.000000
964837.000000
965592.000000
966352.000000
967129.000000
967917.000000
968676.000000
969437.000000
970215.000000
970990.000000
971752.000000
972527.000000
973318.000000
974084.000000
974843.000000
975610.000000
976374.000000
977105.000000
977863.000000
978634.000000
979394.000000
980147.000000
980918.000000
981708.000000
982475.000000
983228.000000
983987.000000
984751.000000
985484.000000
986239.000000
987007.000000
987768.000000
988521.000000
989288.000000
990074.000000
990836.000000
991605.000000
992378.000000
993121.000000
993870.000000
994638.000000
995422.000000
996193.000000
996954.000000
997725.000000
998510.000000
999267.000000
1000020.000000
1000783.000000
1001575.000000
1002364.000000
1003144.000000
1003964.000000
1004791.000000
1005608.000000
1006427.000000
1007259.000000
1008097.000000
1008908.000000
1009716.000000
1010533.000000
1011359.000000
1012179.000000
1012980.000000
1013789.000000
1014609.000000
1015397.000000
1016175.000000
1016964.000000
1017786.000000
1018598.000000
1019383.000000
1020189.000000
1020992.000000
1021766.000000
1022540.000000
1023350.000000
1024173.000000
1024978.000000
1025778.000000
1026619.000000
1027452.000000
1028257.000000
1029078.000000
1029902.000000
1030696.000000
1031473.000000
1032275.000000
1033108.000000
1033916.000000
1034740.000000
1035583.000000
1036443.000000
1037250.000000
1038078.000000
1038916.000000
1039705.000000
1040510.000000
1041330.000000
1042145.000000
1042954.000000
1043791.000000
1044634.000000
1045447.000000
1046260.000000
1047091.000000
1047920.000000
1048733.000000
1049561.000000
1050395.000000
1051182.000000
1051968.000000
1052783.000000
1053618.000000
1054426.000000
1055230.000000
1056040.000000
1056850.000000
1057608.000000
1058384.000000
1059153.000000
1059910.000000
1060670.000000
1061441.000000
1062257.000000
1063039.000000
1063818.000000
1064635.000000
1065460.000000
1066250.000000
1067033.000000
1067855.000000
1068681.000000
1069469.000000
1070282.000000
1071104.000000
1071910.000000
1072683.000000
1073473.000000
1074293.000000
1075091.000000
1075886.000000
1076711.000000
1077537.000000
1078309.000000
1079098.000000
1079899.000000
1080664.000000
1081422.000000
1082196.000000
1083000.000000
1083777.000000
1084547.000000
1085355.000000
1086202.000000
1086995.000000
1087787.000000
1088593.000000
1089396.000000
1090134.000000
1090914.000000
1091687.000000
1092499.000000
1093289.000000
1094095.000000
1094933.000000
1095762.000000
1096578.000000
1097407.000000
1098240.000000
1099026.000000
1099822.000000
1100633.000000
1101403.000000
1102188.000000
1102994.000000
1103813.000000
1104601.000000
1105422.000000
1106237.000000
1107008.000000
1107796.000000
1108611.000000
1109412.000000
1110180.000000
1110960.000000
1111752.000000
1112522.000000
1113259.000000
1113984.000000
1114728.000000
1115531.000000
1116397.000000
1117266.000000
1118091.000000
1118884.000000
1119697.000000
1120504.000000
1121281.000000
1122054.000000
1122836.000000
1123640.000000
1124410.000000
1125173.000000
1125957.000000
1126754.000000
1127504.000000
1128277.000000
1129072.000000
1129843.000000
1130583.000000
1131357.000000
1132119.000000
1132865.000000
1133622.000000
1134394.000000
1135167.000000
1135927.000000
1136697.000000
1137481.000000
1138249.000000
1139032.000000
1139842.000000
1140613.000000
1141394.000000
1142190.000000
1142954.000000
1143693.000000
1144470.000000
1145257.000000
1146031.000000
1146805.000000
1147595.000000
1148415.000000
1149198.000000
1149970.000000
1150761.000000
1151574.000000
1152341.000000
1153117.000000
1153902.000000
1154652.000000
1155379.000000
1156147.000000
1156913.000000
1157662.000000
1158417.000000
1159183.000000
1159941.000000
1160694.000000
1161461.000000
1162232.000000
1162968.000000
1163708.000000
1164461.000000
1165205.000000
1165941.000000
1166707.000000
1167512.000000
1168300.000000
1169064.000000
1169838.000000
1170604.000000
1171354.000000
1172110.000000
1172876.000000
1173626.000000
1174372.000000
1175133.000000
1175909.000000
1176656.000000
1177410.000000
1178165.000000
1178933.000000
1179659.000000
1180409.000000
1181153.000000
1181876.000000
1182606.000000
1183358.000000
1184125.000000
1184866.000000
1185612.000000
1186380.000000
1187179.000000
1187941.000000
1188731.000000
1189534.000000
1190329.000000
1191090.000000
1191875.000000
1192687.000000
1193458.000000
1194243.000000
1195043.000000
1195841.000000
1196617.000000
1197415.000000
1198211.000000
1198996.000000
1199774.000000
1200569.000000
1201380.000000
1202164.000000
1202941.000000
1203744.000000
1204546.000000
1205311.000000
1206067.000000
1206822.000000
1207583.000000
1208329.000000
1209062.000000
1209835.000000
1210632.000000
1211390.000000
1212167.000000
1212968.000000
1213746.000000
1214552.000000
1215387.000000
1216237.000000
1217056.000000
1217882.000000
1218715.000000
1219540.000000
1220326.000000
1221134.000000
1221939.000000
1222721.000000
