ECG (ms)
427.000000
1425.000000
2436.000000
3397.000000
4290.000000
5241.000000
6298.000000
7314.000000
8318.000000
9294.000000
10258.000000
11158.000000
11981.000000
12781.000000
13635.000000
14758.000000
15982.000000
17118.000000
18229.000000
19297.000000
20365.000000
21406.000000
22322.000000
23194.000000
24010.000000
24778.000000
25613.000000
26606.000000
27543.000000
28451.000000
29308.000000
30143.000000
31082.000000
32198.000000
33248.000000
34273.000000
35279.000000
36295.000000
37283.000000
38210.000000
39198.000000
40198.000000
41200.000000
42201.000000
43144.000000
43995.000000
44828.000000
45783.000000
46826.000000
47850.000000
48886.000000
49905.000000
50870.000000
51826.000000
52817.000000
53757.000000
54716.000000
55621.000000
56589.000000
57635.000000
58667.000000
59732.000000
60710.000000
61611.000000
62488.000000
63491.000000
64512.000000
65517.000000
66506.000000
67460.000000
68330.000000
69157.000000
70014.000000
71143.000000
72234.000000
73320.000000
74374.000000
75395.000000
76343.000000
77220.000000
78083.000000
79094.000000
80240.000000
81334.000000
82387.000000
83376.000000
84290.000000
85174.000000
86110.000000
87116.000000
88103.000000
89106.000000
90085.000000
91056.000000
92125.000000
93194.000000
94244.000000
95205.000000
96053.000000
96857.000000
97660.000000
98626.000000
99807.000000
100900.000000
101980.000000
103010.000000
104028.000000
105043.000000
106047.000000
107046.000000
108023.000000
109085.000000
110163.000000
111183.000000
112194.000000
113144.000000
114097.000000
114999.000000
115876.000000
116790.000000
117814.000000
118865.000000
119897.000000
120892.000000
121809.000000
122704.000000
123739.000000
124784.000000
125822.000000
126826.000000
127818.000000
128754.000000
129703.000000
130716.000000
131731.000000
132737.000000
133690.000000
134580.000000
135527.000000
136519.000000
137517.000000
138520.000000
139442.000000
140318.000000
141183.000000
142197.000000
143247.000000
144259.000000
145240.000000
146206.000000
147162.000000
148124.000000
149060.000000
149945.000000
150771.000000
151564.000000
152408.000000
153610.000000
154693.000000
155731.000000
156751.000000
157791.000000
158767.000000
159771.000000
160802.000000
161806.000000
162813.000000
163759.000000
164682.000000
165668.000000
166675.000000
167673.000000
168650.000000
169566.000000
170427.000000
171250.000000
172156.000000
173207.000000
174237.000000
175256.000000
176212.000000
177155.000000
178197.000000
179243.000000
180265.000000
181214.000000
182166.000000
183079.000000
183977.000000
184848.000000
185757.000000
186756.000000
187829.000000
188844.000000
189736.000000
190543.000000
191344.000000
192200.000000
193421.000000
194489.000000
195553.000000
196592.000000
197606.000000
198606.000000
199529.000000
200562.000000
201610.000000
202612.000000
203615.000000
204567.000000
205463.000000
206354.000000
207323.000000
208357.000000
209387.000000
210413.000000
211415.000000
212378.000000
213355.000000
214375.000000
215420.000000
216402.000000
217335.000000
218315.000000
219351.000000
220388.000000
221349.000000
222341.000000
223381.000000
224413.000000
225373.000000
226279.000000
227355.000000
228367.000000
229317.000000
230233.000000
231246.000000
232294.000000
233307.000000
234249.000000
235112.000000
235965.000000
236972.000000
238053.000000
239089.000000
240089.000000
241038.000000
241972.000000
243009.000000
244093.000000
245150.000000
246127.000000
247083.000000
248125.000000
249171.000000
250208.000000
251149.000000
252053.000000
253004.000000
254008.000000
255022.000000
256006.000000
256888.000000
257723.000000
258655.000000
259769.000000
260818.000000
261811.000000
262819.000000
263762.000000
264683.000000
265647.000000
266671.000000
267693.000000
268699.000000
269647.000000
270659.000000
271714.000000
272772.000000
273780.000000
274712.000000
275696.000000
276769.000000
277817.000000
278808.000000
279754.000000
280787.000000
281850.000000
282886.000000
283842.000000
284790.000000
285789.000000
286790.000000
287752.000000
288663.000000
289617.000000
290724.000000
291785.000000
292818.000000
293785.000000
294783.000000
295859.000000
296917.000000
297903.000000
298736.000000
299550.000000
300397.000000
301738.000000
302880.000000
303973.000000
305061.000000
306162.000000
307215.000000
308247.000000
309310.000000
310366.000000
311400.000000
312406.000000
313357.000000
314384.000000
315407.000000
316396.000000
317373.000000
318312.000000
319245.000000
320245.000000
321268.000000
322251.000000
323214.000000
324126.000000
325001.000000
325917.000000
326963.000000
327992.000000
328996.000000
329977.000000
330912.000000
331891.000000
332954.000000
333974.000000
334982.000000
335928.000000
336893.000000
337903.000000
338895.000000
339855.000000
340753.000000
341590.000000
342438.000000
343445.000000
344492.000000
345546.000000
346593.000000
347627.000000
348576.000000
349542.000000
350626.000000
351696.000000
352723.000000
353681.000000
354614.000000
355609.000000
356615.000000
357578.000000
358487.000000
359371.000000
360331.000000
361319.000000
362313.000000
363244.000000
364155.000000
365166.000000
366174.000000
367173.000000
368095.000000
368928.000000
369730.000000
370574.000000
371866.000000
372984.000000
373977.000000
374905.000000
375738.000000
376530.000000
377340.000000
378265.000000
379169.000000
380083.000000
381064.000000
382094.000000
383144.000000
384158.000000
385107.000000
386086.000000
387086.000000
388089.000000
389085.000000
390014.000000
390975.000000
391984.000000
393010.000000
394011.000000
394949.000000
395861.000000
396861.000000
397866.000000
398859.000000
399765.000000
400638.000000
401562.000000
402563.000000
403547.000000
404482.000000
405405.000000
406393.000000
407389.000000
408389.000000
409344.000000
410323.000000
411347.000000
412335.000000
413309.000000
414232.000000
415204.000000
416239.000000
417266.000000
418223.000000
419170.000000
420205.000000
421276.000000
422285.000000
423193.000000
424078.000000
425147.000000
426242.000000
427273.000000
428220.000000
429084.000000
430042.000000
431103.000000
432146.000000
433200.000000
434172.000000
435180.000000
436259.000000
437336.000000
438346.000000
439294.000000
440305.000000
441346.000000
442351.000000
443299.000000
444278.000000
445271.000000
446256.000000
447188.000000
448089.000000
449070.000000
450104.000000
451112.000000
452052.000000
453016.000000
454031.000000
455012.000000
455941.000000
456750.000000
457548.000000
458344.000000
459673.000000
460767.000000
461820.000000
462853.000000
463899.000000
464931.000000
465959.000000
466910.000000
467899.000000
468955.000000
469996.000000
471037.000000
472075.000000
473069.000000
474086.000000
475103.000000
476129.000000
477150.000000
478205.000000
479232.000000
480181.000000
481206.000000
482260.000000
483319.000000
484319.000000
485248.000000
486223.000000
487251.000000
488270.000000
489226.000000
490169.000000
491155.000000
492183.000000
493182.000000
494118.000000
495075.000000
496080.000000
497073.000000
498017.000000
498896.000000
499849.000000
500828.000000
501808.000000
502721.000000
503606.000000
504565.000000
505576.000000
506570.000000
507499.000000
508449.000000
509507.000000
510571.000000
511571.000000
512499.000000
513499.000000
514515.000000
515493.000000
516426.000000
517420.000000
518435.000000
519440.000000
520356.000000
521234.000000
522167.000000
523178.000000
524181.000000
525101.000000
526045.000000
527043.000000
528030.000000
528981.000000
529897.000000
530823.000000
531824.000000
532834.000000
533826.000000
534756.000000
535693.000000
536690.000000
537708.000000
538677.000000
539603.000000
540642.000000
541700.000000
542718.000000
543668.000000
544695.000000
545765.000000
546810.000000
547763.000000
548740.000000
549759.000000
550789.000000
551752.000000
552683.000000
553748.000000
554836.000000
555837.000000
556820.000000
557864.000000
558899.000000
559891.000000
560831.000000
561846.000000
562882.000000
563899.000000
564832.000000
565808.000000
566902.000000
567967.000000
568935.000000
569890.000000
570925.000000
571991.000000
573038.000000
573983.000000
574964.000000
576012.000000
577040.000000
577974.000000
578802.000000
579658.000000
580837.000000
581968.000000
583059.000000
584118.000000
585103.000000
586107.000000
587159.000000
588230.000000
589251.000000
590209.000000
591228.000000
592292.000000
593360.000000
594395.000000
595355.000000
596336.000000
597393.000000
598421.000000
599408.000000
600306.000000
601234.000000
602287.000000
603333.000000
604352.000000
605333.000000
606211.000000
607036.000000
607826.000000
608590.000000
609416.000000
610314.000000
611111.000000
611877.000000
612668.000000
613921.000000
614985.000000
616021.000000
617047.000000
618043.000000
618996.000000
619911.000000
620877.000000
621923.000000
622919.000000
623844.000000
624793.000000
625822.000000
626849.000000
627880.000000
628831.000000
629806.000000
630789.000000
631776.000000
632736.000000
633653.000000
634614.000000
635611.000000
636616.000000
637577.000000
638475.000000
639441.000000
640449.000000
641415.000000
642323.000000
643180.000000
644082.000000
645076.000000
646081.000000
647072.000000
648018.000000
648889.000000
649855.000000
650892.000000
651932.000000
652886.000000
653808.000000
654825.000000
655840.000000
656843.000000
657798.000000
658731.000000
659743.000000
660785.000000
661747.000000
662676.000000
663733.000000
664755.000000
665743.000000
666675.000000
667593.000000
668600.000000
669614.000000
670602.000000
671558.000000
672521.000000
673493.000000
674490.000000
675471.000000
676398.000000
677378.000000
678390.000000
679386.000000
680344.000000
681189.000000
681994.000000
682811.000000
684116.000000
685223.000000
686253.000000
687248.000000
688187.000000
689121.000000
690103.000000
691117.000000
692111.000000
693048.000000
694008.000000
695013.000000
696008.000000
696982.000000
697904.000000
698876.000000
699864.000000
700842.000000
701835.000000
702796.000000
703773.000000
704785.000000
705788.000000
706785.000000
707737.000000
708724.000000
709736.000000
710752.000000
711721.000000
712660.000000
713694.000000
714744.000000
715771.000000
716694.000000
717587.000000
718530.000000
719534.000000
720495.000000
721317.000000
722167.000000
723577.000000
724756.000000
725823.000000
726749.000000
727701.000000
728749.000000
729757.000000
730720.000000
731664.000000
732765.000000
733848.000000
734881.000000
735863.000000
736926.000000
737998.000000
739045.000000
740066.000000
741018.000000
742043.000000
743101.000000
744183.000000
745236.000000
746209.000000
747249.000000
748345.000000
749387.000000
750388.000000
751336.000000
752357.000000
753412.000000
754445.000000
755466.000000
756471.000000
757405.000000
758219.000000
759028.000000
759935.000000
761173.000000
762281.000000
763223.000000
764055.000000
764860.000000
765764.000000
766783.000000
767750.000000
768740.000000
769812.000000
770891.000000
771940.000000
772974.000000
773922.000000
774920.000000
775959.000000
777021.000000
778036.000000
779020.000000
780030.000000
781054.000000
782072.000000
783080.000000
784013.000000
784917.000000
785936.000000
786959.000000
788000.000000
789021.000000
789989.000000
790962.000000
791974.000000
792978.000000
793949.000000
794840.000000
795785.000000
796755.000000
797708.000000
798604.000000
799520.000000
800484.000000
801488.000000
802413.000000
803321.000000
804326.000000
805341.000000
806331.000000
807249.000000
808230.000000
809238.000000
810233.000000
811178.000000
812166.000000
813220.000000
814238.000000
815160.000000
816016.000000
816975.000000
817997.000000
818977.000000
819909.000000
820826.000000
821827.000000
822837.000000
823828.000000
824760.000000
825648.000000
826591.000000
827552.000000
828528.000000
829435.000000
830276.000000
831151.000000
832075.000000
833029.000000
833955.000000
834842.000000
835759.000000
836721.000000
837704.000000
838695.000000
839624.000000
840605.000000
841624.000000
842618.000000
843567.000000
844444.000000
845335.000000
846250.000000
847204.000000
848116.000000
849000.000000
849973.000000
850977.000000
851964.000000
852906.000000
853809.000000
854772.000000
855795.000000
856753.000000
857669.000000
858669.000000
859703.000000
860725.000000
861661.000000
862575.000000
863558.000000
864556.000000
865511.000000
866402.000000
867319.000000
868267.000000
869228.000000
870130.000000
871028.000000
872036.000000
873100.000000
874088.000000
874995.000000
876025.000000
877062.000000
878078.000000
879016.000000
879958.000000
880956.000000
881969.000000
882920.000000
883839.000000
884844.000000
885872.000000
886864.000000
887787.000000
888742.000000
889750.000000
890733.000000
891655.000000
892539.000000
893535.000000
894615.000000
895653.000000
896595.000000
897567.000000
898570.000000
899544.000000
900470.000000
901405.000000
902398.000000
903370.000000
904271.000000
905071.000000
905889.000000
907072.000000
908156.000000
909198.000000
910194.000000
911195.000000
912171.000000
913212.000000
914271.000000
915250.000000
916131.000000
916937.000000
917717.000000
918516.000000
919347.000000
920142.000000
