ECG (ms)
592.000000
1358.000000
2138.000000
2926.000000
3706.000000
4474.000000
5219.000000
5941.000000
6674.000000
7477.000000
8241.000000
9002.000000
9757.000000
10505.000000
11239.000000
11980.000000
12724.000000
13473.000000
14235.000000
14986.000000
15732.000000
16471.000000
17207.000000
17934.000000
18662.000000
19394.000000
20120.000000
20819.000000
21526.000000
22302.000000
23048.000000
23793.000000
24534.000000
25281.000000
26022.000000
26766.000000
27508.000000
28250.000000
28988.000000
29713.000000
30438.000000
31165.000000
31896.000000
32639.000000
33386.000000
34128.000000
34882.000000
35641.000000
36407.000000
37178.000000
37950.000000
38709.000000
39471.000000
40227.000000
40978.000000
41729.000000
42478.000000
43224.000000
43970.000000
44712.000000
45455.000000
46195.000000
46932.000000
47674.000000
48417.000000
49152.000000
49863.000000
50592.000000
51335.000000
52116.000000
52880.000000
53642.000000
54398.000000
55153.000000
55896.000000
56633.000000
57362.000000
58090.000000
58829.000000
59574.000000
60318.000000
61067.000000
61822.000000
62582.000000
63342.000000
64097.000000
64826.000000
65536.000000
66289.000000
67063.000000
67804.000000
68531.000000
69237.000000
69927.000000
70610.000000
71296.000000
71992.000000
72698.000000
73421.000000
74150.000000
74889.000000
75637.000000
76387.000000
77131.000000
77872.000000
78615.000000
79351.000000
80068.000000
80773.000000
81476.000000
82175.000000
82949.000000
83692.000000
84430.000000
85165.000000
85898.000000
86634.000000
87371.000000
88113.000000
88853.000000
89593.000000
90337.000000
91080.000000
91828.000000
92580.000000
93329.000000
94073.000000
94814.000000
95551.000000
96294.000000
97034.000000
97779.000000
98528.000000
99278.000000
100026.000000
100769.000000
101518.000000
102263.000000
103018.000000
103776.000000
104528.000000
105280.000000
106029.000000
106766.000000
107500.000000
108230.000000
108945.000000
109632.000000
110359.000000
111124.000000
111868.000000
112616.000000
113370.000000
114131.000000
114893.000000
115654.000000
116412.000000
117162.000000
117911.000000
118655.000000
119397.000000
120136.000000
120875.000000
121606.000000
122334.000000
123050.000000
123755.000000
124473.000000
125210.000000
125981.000000
126729.000000
127475.000000
128218.000000
128959.000000
129698.000000
130434.000000
131172.000000
131912.000000
132647.000000
133389.000000
134130.000000
134874.000000
135608.000000
136336.000000
137067.000000
137774.000000
138475.000000
139196.000000
139956.000000
140679.000000
141409.000000
142134.000000
142855.000000
143572.000000
144285.000000
145027.000000
145786.000000
146547.000000
147300.000000
148060.000000
148821.000000
149575.000000
150311.000000
151031.000000
151725.000000
152445.000000
153208.000000
153927.000000
154651.000000
155385.000000
156140.000000
156916.000000
157686.000000
158463.000000
159247.000000
160034.000000
160823.000000
161609.000000
162391.000000
163168.000000
163927.000000
164661.000000
165389.000000
166133.000000
166928.000000
167696.000000
168461.000000
169226.000000
169990.000000
170746.000000
171502.000000
172255.000000
173005.000000
173742.000000
174479.000000
175215.000000
175953.000000
176693.000000
177435.000000
178167.000000
178897.000000
179609.000000
180318.000000
181064.000000
181831.000000
182585.000000
183334.000000
184080.000000
184823.000000
185562.000000
186301.000000
187039.000000
187774.000000
188493.000000
189210.000000
189919.000000
190625.000000
191333.000000
192053.000000
192784.000000
193529.000000
194277.000000
195025.000000
195778.000000
196536.000000
197295.000000
198056.000000
198813.000000
199567.000000
200314.000000
201060.000000
201800.000000
202536.000000
203263.000000
203984.000000
204701.000000
205419.000000
206121.000000
206840.000000
207610.000000
208357.000000
209099.000000
209843.000000
210581.000000
211316.000000
212047.000000
212781.000000
213509.000000
214241.000000
214974.000000
215710.000000
216448.000000
217187.000000
217937.000000
218689.000000
219443.000000
220193.000000
220948.000000
221696.000000
222443.000000
223185.000000
223924.000000
224665.000000
225405.000000
226149.000000
226899.000000
227650.000000
228400.000000
229150.000000
229899.000000
230650.000000
231395.000000
232114.000000
232811.000000
233525.000000
234297.000000
235019.000000
235733.000000
236448.000000
237162.000000
237874.000000
238590.000000
239309.000000
240026.000000
240742.000000
241463.000000
242187.000000
242914.000000
243649.000000
244387.000000
245125.000000
245865.000000
246600.000000
247331.000000
248062.000000
248802.000000
249562.000000
250318.000000
251062.000000
251795.000000
252524.000000
253239.000000
254048.000000
254820.000000
255583.000000
256342.000000
257087.000000
257824.000000
258557.000000
259287.000000
260017.000000
260744.000000
261473.000000
262354.000000
262944.000000
263687.000000
264432.000000
265176.000000
265904.000000
266633.000000
267369.000000
268110.000000
268815.000000
269522.000000
270241.000000
271009.000000
271742.000000
272475.000000
273212.000000
273948.000000
274694.000000
275443.000000
276181.000000
276920.000000
277663.000000
278408.000000
279166.000000
279918.000000
280670.000000
281422.000000
282173.000000
282926.000000
283670.000000
284388.000000
285097.000000
285810.000000
286548.000000
287330.000000
288089.000000
288847.000000
289602.000000
290351.000000
291099.000000
291849.000000
292598.000000
293353.000000
294110.000000
294868.000000
295629.000000
296384.000000
297137.000000
297892.000000
298648.000000
299408.000000
300171.000000
300928.000000
301682.000000
302433.000000
303181.000000
303930.000000
304676.000000
305421.000000
306165.000000
306911.000000
307657.000000
308404.000000
309149.000000
309893.000000
310632.000000
311349.000000
312065.000000
312778.000000
313500.000000
314277.000000
315027.000000
315780.000000
316534.000000
317287.000000
318036.000000
318786.000000
319533.000000
320262.000000
320984.000000
321698.000000
322395.000000
323089.000000
323781.000000
324479.000000
325192.000000
325913.000000
326634.000000
327362.000000
328092.000000
328821.000000
329553.000000
330286.000000
331018.000000
331758.000000
332501.000000
333260.000000
334018.000000
334773.000000
335530.000000
336291.000000
337050.000000
337812.000000
338570.000000
339329.000000
340088.000000
340849.000000
341617.000000
342381.000000
343150.000000
343913.000000
344676.000000
345440.000000
346202.000000
346958.000000
347718.000000
348473.000000
349222.000000
349961.000000
350694.000000
351423.000000
352157.000000
352892.000000
353633.000000
354364.000000
355092.000000
355828.000000
356577.000000
357375.000000
358157.000000
358926.000000
359685.000000
360438.000000
361181.000000
361906.000000
362623.000000
363341.000000
364060.000000
364789.000000
365518.000000
366258.000000
367000.000000
367744.000000
368488.000000
369239.000000
369992.000000
370738.000000
371477.000000
372205.000000
372940.000000
373659.000000
374385.000000
375160.000000
375928.000000
376688.000000
377449.000000
378209.000000
378963.000000
379714.000000
380460.000000
381201.000000
381930.000000
382653.000000
383367.000000
384078.000000
384788.000000
385503.000000
386228.000000
386969.000000
387719.000000
388472.000000
389218.000000
389966.000000
390713.000000
391463.000000
392208.000000
392955.000000
393698.000000
394428.000000
395149.000000
395871.000000
396596.000000
397336.000000
398117.000000
398881.000000
399641.000000
400399.000000
401157.000000
401908.000000
402665.000000
403417.000000
404171.000000
404920.000000
405668.000000
406413.000000
407156.000000
407898.000000
408630.000000
409349.000000
410067.000000
410769.000000
411473.000000
412187.000000
412966.000000
413724.000000
414482.000000
415244.000000
416006.000000
416771.000000
417541.000000
418310.000000
419079.000000
419845.000000
420606.000000
421364.000000
422113.000000
422863.000000
423605.000000
424347.000000
425092.000000
425838.000000
426588.000000
427329.000000
428048.000000
428783.000000
429534.000000
430322.000000
431084.000000
431839.000000
432591.000000
433331.000000
434060.000000
434784.000000
435512.000000
436251.000000
436997.000000
437755.000000
438517.000000
439275.000000
440028.000000
440788.000000
441540.000000
442293.000000
443036.000000
443757.000000
444469.000000
445196.000000
445994.000000
446748.000000
447493.000000
448217.000000
448932.000000
449643.000000
450358.000000
451080.000000
451805.000000
452547.000000
453300.000000
454062.000000
454831.000000
455600.000000
456371.000000
457148.000000
457921.000000
458686.000000
459447.000000
460181.000000
460884.000000
461580.000000
462284.000000
463028.000000
463739.000000
464449.000000
465172.000000
465902.000000
466656.000000
467428.000000
468194.000000
468972.000000
469757.000000
470545.000000
471330.000000
472113.000000
472887.000000
473649.000000
474389.000000
475115.000000
475809.000000
476536.000000
477270.000000
477983.000000
478706.000000
479422.000000
480158.000000
480886.000000
481624.000000
482364.000000
483106.000000
483852.000000
484608.000000
485359.000000
486115.000000
486874.000000
487639.000000
488407.000000
489170.000000
489935.000000
490697.000000
491442.000000
492175.000000
492899.000000
493705.000000
494476.000000
495241.000000
495994.000000
496747.000000
497479.000000
498214.000000
498957.000000
499712.000000
500484.000000
501255.000000
502030.000000
502800.000000
503567.000000
504315.000000
505043.000000
505768.000000
506494.000000
507301.000000
508077.000000
508846.000000
509615.000000
510379.000000
511139.000000
511898.000000
512658.000000
513412.000000
514168.000000
514927.000000
515690.000000
516446.000000
517203.000000
517957.000000
518701.000000
519425.000000
520144.000000
520876.000000
521661.000000
522421.000000
523183.000000
523944.000000
524704.000000
525455.000000
526204.000000
526967.000000
527729.000000
528494.000000
529262.000000
530034.000000
530806.000000
531580.000000
532342.000000
533094.000000
533829.000000
534552.000000
535273.000000
536035.000000
536818.000000
537576.000000
538338.000000
539095.000000
539855.000000
540608.000000
541350.000000
542081.000000
542809.000000
543545.000000
544292.000000
545047.000000
545807.000000
546573.000000
547342.000000
548116.000000
548889.000000
549640.000000
550380.000000
551113.000000
551854.000000
552656.000000
553421.000000
554184.000000
554944.000000
555704.000000
556466.000000
557230.000000
557994.000000
558758.000000
559520.000000
560280.000000
561035.000000
561789.000000
562542.000000
563297.000000
564057.000000
564816.000000
565562.000000
566297.000000
567024.000000
567760.000000
568552.000000
569315.000000
570068.000000
570814.000000
571557.000000
572289.000000
573010.000000
573721.000000
574426.000000
575124.000000
575826.000000
576528.000000
577233.000000
577946.000000
578681.000000
579428.000000
580176.000000
580921.000000
581659.000000
582400.000000
583141.000000
583874.000000
584603.000000
585329.000000
586053.000000
586778.000000
587494.000000
588218.000000
588942.000000
589672.000000
590405.000000
591140.000000
591885.000000
592650.000000
593412.000000
594181.000000
594952.000000
595723.000000
596491.000000
597256.000000
598017.000000
598771.000000
599524.000000
600272.000000
601018.000000
601755.000000
602489.000000
603225.000000
603965.000000
604707.000000
605454.000000
606198.000000
606937.000000
607673.000000
608418.000000
609173.000000
609934.000000
610687.000000
611442.000000
612194.000000
612938.000000
613665.000000
614383.000000
615101.000000
615820.000000
616537.000000
617252.000000
617964.000000
618681.000000
619404.000000
620131.000000
620858.000000
621581.000000
622297.000000
623012.000000
623719.000000
624424.000000
625125.000000
625827.000000
626531.000000
627246.000000
627962.000000
628682.000000
629402.000000
630117.000000
630830.000000
631545.000000
632262.000000
632990.000000
633740.000000
634488.000000
635243.000000
635989.000000
636729.000000
637461.000000
638192.000000
638923.000000
639651.000000
640375.000000
641092.000000
641813.000000
642533.000000
643262.000000
643998.000000
644743.000000
645494.000000
646243.000000
646987.000000
647722.000000
648461.000000
649181.000000
649900.000000
650613.000000
651322.000000
652018.000000
652711.000000
653408.000000
654107.000000
654812.000000
655525.000000
656245.000000
656970.000000
657704.000000
658447.000000
659188.000000
659936.000000
660678.000000
661419.000000
662156.000000
662896.000000
663624.000000
664341.000000
665047.000000
665767.000000
666532.000000
667281.000000
668023.000000
668753.000000
669483.000000
670211.000000
670947.000000
671683.000000
672422.000000
673171.000000
673934.000000
674687.000000
675440.000000
676194.000000
676953.000000
677718.000000
678469.000000
679204.000000
679933.000000
680659.000000
681388.000000
682181.000000
682928.000000
683655.000000
684374.000000
685101.000000
685830.000000
686568.000000
687307.000000
688052.000000
688796.000000
689534.000000
690268.000000
690995.000000
691720.000000
692457.000000
693213.000000
693999.000000
694780.000000
695571.000000
696366.000000
697141.000000
697902.000000
698648.000000
699399.000000
700215.000000
701013.000000
701791.000000
702569.000000
703341.000000
704102.000000
704863.000000
705620.000000
706376.000000
707134.000000
707891.000000
708647.000000
709403.000000
710158.000000
710912.000000
711648.000000
712380.000000
713103.000000
713827.000000
714551.000000
715291.000000
716082.000000
716867.000000
717647.000000
718427.000000
719209.000000
719992.000000
720772.000000
721549.000000
722323.000000
723095.000000
723866.000000
724640.000000
725407.000000
726172.000000
726936.000000
727698.000000
728441.000000
729175.000000
729911.000000
730629.000000
731349.000000
732134.000000
732889.000000
733635.000000
734379.000000
735123.000000
735882.000000
736640.000000
737401.000000
738166.000000
738932.000000
739699.000000
740467.000000
741235.000000
741981.000000
742715.000000
743443.000000
744166.000000
744955.000000
745720.000000
746472.000000
747222.000000
747974.000000
748730.000000
749481.000000
750236.000000
750987.000000
751742.000000
752501.000000
753258.000000
754018.000000
754769.000000
755520.000000
756269.000000
757007.000000
757732.000000
758445.000000
759159.000000
759876.000000
760659.000000
761420.000000
762170.000000
762927.000000
763681.000000
764439.000000
765196.000000
765950.000000
766703.000000
767457.000000
768213.000000
768971.000000
769728.000000
770486.000000
771244.000000
772001.000000
772760.000000
773524.000000
774290.000000
775041.000000
775795.000000
776548.000000
777301.000000
778058.000000
778809.000000
779559.000000
780306.000000
781050.000000
781791.000000
782529.000000
783268.000000
784008.000000
784745.000000
785478.000000
786215.000000
786956.000000
787697.000000
788438.000000
789180.000000
789924.000000
790668.000000
791415.000000
792167.000000
792921.000000
793680.000000
794443.000000
795205.000000
795968.000000
796726.000000
797480.000000
798229.000000
798975.000000
799712.000000
800439.000000
801166.000000
801884.000000
802600.000000
803312.000000
804030.000000
804742.000000
805440.000000
806165.000000
806927.000000
807666.000000
808408.000000
809145.000000
809868.000000
810591.000000
811317.000000
812047.000000
812779.000000
813511.000000
814249.000000
814985.000000
815720.000000
816453.000000
817185.000000
817913.000000
818639.000000
819368.000000
820091.000000
820810.000000
821526.000000
822243.000000
822961.000000
823684.000000
824413.000000
825149.000000
825883.000000
826620.000000
827353.000000
828087.000000
828821.000000
829550.000000
830274.000000
831002.000000
831727.000000
832446.000000
833165.000000
833891.000000
834626.000000
835375.000000
836138.000000
836896.000000
837653.000000
838411.000000
839153.000000
839877.000000
840593.000000
841302.000000
842029.000000
842831.000000
843601.000000
844357.000000
845096.000000
845819.000000
846537.000000
847254.000000
847953.000000
848656.000000
849358.000000
850074.000000
850802.000000
851552.000000
852321.000000
853084.000000
853846.000000
854608.000000
855374.000000
856141.000000
856906.000000
857667.000000
858417.000000
859162.000000
859894.000000
860629.000000
861363.000000
862100.000000
862899.000000
863687.000000
864463.000000
865243.000000
866022.000000
866799.000000
867579.000000
868352.000000
869130.000000
869911.000000
870696.000000
871490.000000
872283.000000
873082.000000
873864.000000
874627.000000
875356.000000
876096.000000
876916.000000
877691.000000
878460.000000
879222.000000
879980.000000
880739.000000
881495.000000
882255.000000
883009.000000
883762.000000
884515.000000
885269.000000
886028.000000
886794.000000
887566.000000
888342.000000
889111.000000
889882.000000
890636.000000
891379.000000
892111.000000
892848.000000
893583.000000
894380.000000
895149.000000
895904.000000
896655.000000
897400.000000
898146.000000
898903.000000
899664.000000
