ECG (ms)
421.000000
1178.000000
1895.000000
2619.000000
3383.000000
4201.000000
5033.000000
5888.000000
6740.000000
7583.000000
8407.000000
9246.000000
10088.000000
10927.000000
11795.000000
12673.000000
13510.000000
14382.000000
15234.000000
16107.000000
17003.000000
17900.000000
18770.000000
19674.000000
20581.000000
21501.000000
22386.000000
23240.000000
24082.000000
24945.000000
25823.000000
26716.000000
27597.000000
28464.000000
29334.000000
30209.000000
31086.000000
31980.000000
32890.000000
33756.000000
34598.000000
35406.000000
36218.000000
37085.000000
37989.000000
38856.000000
39659.000000
40439.000000
41178.000000
41929.000000
42721.000000
43530.000000
44451.000000
45392.000000
46291.000000
47134.000000
47963.000000
48767.000000
49539.000000
50295.000000
51072.000000
51819.000000
52539.000000
53220.000000
53937.000000
54697.000000
55479.000000
56258.000000
57029.000000
57790.000000
58547.000000
59315.000000
60071.000000
60839.000000
61600.000000
62402.000000
63204.000000
64001.000000
64771.000000
65558.000000
66336.000000
67137.000000
67898.000000
68646.000000
69388.000000
70117.000000
70846.000000
71563.000000
72306.000000
73084.000000
73916.000000
74776.000000
75605.000000
76434.000000
77234.000000
78050.000000
78871.000000
79686.000000
80498.000000
81316.000000
82169.000000
83020.000000
83849.000000
84659.000000
85456.000000
86292.000000
87129.000000
87934.000000
88741.000000
89536.000000
90333.000000
91096.000000
91849.000000
92587.000000
93314.000000
94104.000000
94975.000000
95887.000000
96786.000000
97653.000000
98508.000000
99332.000000
100112.000000
100867.000000
101620.000000
102388.000000
103199.000000
104003.000000
104789.000000
105567.000000
106335.000000
107096.000000
107856.000000
108605.000000
109353.000000
110127.000000
110910.000000
111679.000000
112436.000000
113180.000000
113908.000000
114650.000000
115409.000000
116192.000000
117056.000000
117865.000000
118659.000000
119469.000000
120268.000000
121043.000000
121803.000000
122563.000000
123335.000000
124121.000000
124923.000000
125737.000000
126542.000000
127353.000000
128185.000000
128988.000000
129767.000000
130553.000000
131359.000000
132196.000000
133010.000000
133814.000000
134597.000000
135369.000000
136154.000000
136951.000000
137803.000000
138696.000000
139587.000000
140484.000000
141363.000000
142218.000000
143056.000000
143894.000000
144720.000000
145584.000000
146435.000000
147297.000000
148155.000000
148985.000000
149792.000000
150595.000000
151407.000000
152221.000000
153028.000000
153831.000000
154663.000000
155498.000000
156306.000000
157097.000000
157865.000000
158667.000000
159461.000000
160256.000000
161098.000000
161979.000000
162822.000000
163659.000000
164454.000000
165279.000000
166063.000000
166790.000000
167486.000000
168148.000000
168805.000000
170261.000000
170948.000000
171668.000000
172427.000000
173186.000000
174022.000000
174905.000000
175787.000000
176688.000000
177601.000000
178505.000000
179396.000000
180261.000000
181102.000000
181884.000000
182645.000000
183385.000000
184176.000000
184980.000000
185816.000000
186672.000000
187516.000000
188358.000000
189230.000000
190087.000000
190922.000000
191744.000000
192545.000000
193318.000000
194086.000000
194900.000000
195743.000000
196595.000000
197436.000000
198269.000000
199061.000000
199833.000000
200591.000000
201373.000000
202268.000000
203191.000000
204126.000000
205042.000000
205903.000000
206741.000000
207585.000000
208399.000000
209203.000000
210025.000000
210839.000000
211636.000000
212426.000000
213184.000000
213925.000000
214667.000000
215413.000000
216179.000000
216964.000000
217726.000000
218482.000000
219225.000000
219958.000000
220694.000000
221447.000000
222249.000000
223077.000000
223897.000000
224704.000000
225537.000000
226351.000000
227136.000000
227916.000000
228695.000000
229484.000000
230255.000000
231019.000000
231780.000000
232540.000000
233303.000000
234087.000000
234861.000000
235629.000000
236410.000000
237185.000000
237960.000000
238736.000000
239545.000000
240371.000000
241183.000000
242022.000000
242873.000000
243753.000000
244606.000000
245430.000000
246246.000000
247026.000000
247787.000000
248566.000000
249367.000000
250185.000000
250989.000000
251806.000000
252632.000000
253481.000000
254325.000000
255182.000000
256059.000000
256910.000000
257736.000000
258547.000000
259350.000000
260121.000000
260885.000000
261664.000000
262453.000000
263270.000000
264087.000000
264865.000000
265659.000000
266451.000000
267241.000000
268048.000000
268844.000000
269647.000000
270436.000000
271212.000000
271989.000000
272760.000000
273514.000000
274276.000000
275037.000000
275780.000000
276534.000000
277309.000000
278145.000000
278969.000000
279754.000000
280550.000000
281335.000000
282093.000000
282873.000000
283622.000000
284341.000000
285042.000000
285720.000000
286396.000000
287107.000000
287843.000000
288632.000000
289476.000000
290308.000000
291164.000000
292040.000000
292940.000000
293791.000000
294631.000000
295494.000000
296332.000000
297177.000000
298016.000000
298859.000000
299678.000000
300453.000000
301251.000000
302046.000000
302834.000000
303661.000000
304480.000000
305286.000000
306128.000000
306973.000000
307835.000000
308698.000000
309580.000000
310407.000000
311214.000000
312002.000000
312781.000000
313592.000000
314418.000000
315270.000000
316136.000000
316976.000000
317817.000000
318663.000000
319489.000000
320312.000000
321133.000000
321957.000000
322746.000000
323523.000000
324338.000000
325168.000000
326005.000000
326824.000000
327619.000000
328381.000000
329130.000000
329874.000000
330614.000000
331381.000000
332200.000000
333052.000000
333811.000000
334556.000000
335284.000000
336037.000000
336824.000000
337615.000000
338383.000000
339155.000000
339938.000000
340729.000000
341516.000000
342299.000000
343101.000000
343898.000000
344707.000000
345504.000000
346331.000000
347207.000000
348120.000000
349032.000000
349950.000000
350858.000000
351747.000000
352610.000000
353477.000000
354323.000000
355159.000000
355966.000000
356775.000000
357596.000000
358413.000000
359219.000000
360069.000000
360935.000000
361784.000000
362626.000000
363505.000000
364364.000000
365223.000000
366071.000000
366941.000000
367811.000000
368686.000000
369558.000000
370437.000000
371304.000000
372131.000000
372953.000000
373754.000000
374565.000000
375392.000000
376256.000000
377178.000000
378057.000000
378893.000000
379744.000000
380612.000000
381453.000000
382264.000000
383078.000000
383899.000000
384725.000000
385540.000000
386315.000000
387121.000000
387996.000000
388858.000000
389723.000000
390622.000000
391499.000000
392343.000000
393186.000000
394014.000000
394870.000000
395712.000000
396574.000000
397434.000000
398251.000000
399060.000000
399828.000000
400635.000000
401464.000000
402318.000000
403225.000000
404135.000000
405012.000000
405850.000000
406637.000000
407400.000000
408174.000000
408976.000000
409816.000000
410655.000000
411486.000000
412299.000000
413092.000000
413863.000000
414636.000000
415419.000000
416218.000000
417012.000000
417858.000000
418734.000000
419607.000000
420427.000000
421254.000000
422056.000000
422836.000000
423607.000000
424395.000000
425187.000000
425982.000000
426777.000000
427552.000000
428370.000000
429268.000000
430177.000000
431047.000000
431921.000000
432775.000000
433627.000000
434476.000000
435310.000000
436157.000000
437011.000000
437874.000000
438706.000000
439546.000000
440390.000000
441231.000000
442058.000000
442896.000000
443777.000000
444647.000000
445517.000000
446392.000000
447256.000000
448072.000000
448855.000000
449631.000000
450462.000000
451351.000000
452223.000000
453098.000000
453966.000000
454805.000000
455664.000000
456475.000000
457281.000000
458151.000000
459023.000000
459880.000000
460657.000000
461398.000000
462108.000000
462835.000000
463593.000000
464360.000000
465182.000000
466030.000000
466884.000000
467721.000000
468543.000000
469364.000000
470192.000000
470989.000000
471743.000000
472476.000000
473241.000000
474120.000000
475062.000000
475999.000000
476929.000000
477844.000000
478697.000000
479506.000000
480272.000000
481052.000000
481828.000000
482639.000000
483498.000000
484408.000000
485323.000000
486188.000000
487033.000000
487872.000000
488713.000000
489556.000000
490421.000000
491292.000000
492136.000000
492952.000000
493778.000000
494636.000000
495498.000000
496344.000000
497197.000000
498026.000000
498843.000000
499628.000000
500413.000000
501196.000000
502026.000000
502908.000000
503794.000000
504720.000000
505616.000000
506482.000000
507313.000000
508166.000000
509004.000000
509831.000000
510697.000000
511539.000000
512373.000000
513180.000000
513969.000000
514734.000000
515519.000000
516285.000000
517045.000000
517820.000000
518607.000000
519408.000000
520193.000000
520969.000000
521750.000000
522527.000000
523381.000000
524267.000000
525139.000000
526005.000000
526861.000000
527685.000000
528505.000000
529287.000000
530040.000000
530850.000000
531652.000000
532470.000000
533312.000000
534165.000000
535022.000000
535880.000000
536702.000000
537575.000000
538424.000000
539258.000000
540070.000000
540905.000000
541754.000000
542605.000000
543432.000000
544255.000000
545096.000000
545927.000000
546784.000000
547632.000000
548479.000000
549296.000000
550089.000000
550859.000000
551658.000000
552459.000000
553278.000000
554124.000000
554965.000000
555786.000000
556598.000000
557385.000000
558151.000000
558938.000000
559743.000000
560630.000000
561507.000000
562360.000000
563191.000000
563998.000000
564787.000000
565559.000000
566354.000000
567147.000000
567971.000000
568801.000000
569648.000000
570528.000000
571385.000000
572220.000000
573023.000000
573793.000000
574555.000000
575353.000000
576210.000000
577063.000000
577933.000000
578799.000000
579640.000000
580438.000000
581208.000000
581983.000000
582754.000000
583537.000000
584345.000000
585190.000000
586053.000000
586928.000000
587770.000000
588640.000000
589531.000000
590434.000000
591319.000000
592210.000000
593063.000000
593896.000000
594722.000000
595515.000000
596320.000000
597142.000000
597977.000000
598850.000000
599696.000000
600544.000000
601360.000000
602142.000000
602903.000000
603668.000000
604548.000000
605467.000000
606368.000000
607278.000000
608169.000000
609026.000000
609845.000000
610647.000000
611448.000000
612268.000000
613104.000000
613959.000000
614842.000000
615704.000000
616571.000000
617397.000000
618205.000000
619027.000000
619868.000000
620684.000000
621516.000000
622346.000000
623197.000000
624016.000000
624817.000000
625640.000000
626485.000000
627332.000000
628213.000000
629095.000000
629967.000000
630825.000000
631658.000000
632473.000000
633248.000000
634029.000000
634862.000000
635703.000000
636468.000000
637193.000000
637941.000000
638721.000000
639535.000000
640369.000000
641173.000000
641943.000000
642738.000000
643552.000000
644368.000000
645191.000000
646036.000000
646892.000000
647726.000000
648538.000000
649328.000000
650147.000000
650951.000000
651806.000000
652671.000000
653554.000000
654487.000000
655399.000000
656268.000000
657163.000000
658053.000000
658924.000000
659765.000000
660595.000000
661414.000000
662223.000000
663010.000000
663800.000000
664572.000000
665416.000000
666295.000000
667183.000000
668116.000000
669016.000000
669911.000000
670771.000000
671593.000000
672435.000000
673295.000000
674162.000000
675015.000000
675857.000000
676695.000000
677528.000000
678365.000000
679223.000000
680079.000000
680930.000000
681761.000000
682610.000000
683458.000000
684354.000000
685259.000000
686144.000000
687051.000000
687981.000000
688863.000000
689727.000000
690552.000000
691363.000000
692205.000000
693068.000000
693934.000000
694816.000000
695720.000000
696620.000000
697489.000000
698309.000000
699148.000000
699998.000000
700838.000000
701676.000000
702518.000000
703379.000000
704277.000000
705133.000000
705926.000000
706696.000000
707601.000000
708604.000000
709584.000000
710516.000000
711428.000000
712340.000000
713242.000000
714135.000000
714987.000000
715837.000000
716693.000000
717560.000000
718468.000000
719385.000000
720293.000000
721198.000000
722144.000000
723077.000000
723988.000000
724870.000000
725727.000000
726612.000000
727521.000000
728439.000000
729373.000000
730293.000000
731197.000000
732075.000000
732934.000000
733807.000000
734664.000000
735536.000000
736391.000000
737244.000000
738105.000000
738954.000000
739773.000000
740617.000000
741477.000000
742331.000000
743177.000000
744031.000000
744884.000000
745737.000000
746591.000000
747416.000000
748244.000000
749070.000000
749913.000000
750804.000000
751688.000000
752583.000000
753463.000000
754329.000000
755185.000000
756018.000000
756835.000000
757669.000000
758499.000000
759362.000000
760291.000000
761240.000000
762180.000000
763118.000000
763968.000000
764822.000000
765655.000000
766542.000000
767516.000000
768503.000000
769442.000000
770341.000000
771265.000000
772181.000000
773068.000000
773950.000000
774811.000000
775657.000000
776459.000000
777247.000000
778060.000000
778856.000000
779688.000000
780559.000000
781471.000000
782353.000000
783213.000000
784069.000000
784910.000000
785718.000000
786519.000000
787349.000000
788222.000000
789118.000000
790031.000000
790921.000000
791818.000000
792673.000000
793506.000000
794338.000000
795189.000000
796058.000000
796954.000000
797902.000000
798858.000000
799776.000000
800639.000000
801494.000000
802309.000000
803112.000000
803948.000000
804811.000000
805762.000000
806691.000000
807578.000000
808475.000000
809399.000000
810313.000000
811203.000000
812061.000000
812906.000000
813718.000000
814499.000000
815268.000000
816107.000000
816922.000000
817684.000000
818415.000000
819144.000000
819914.000000
820711.000000
821504.000000
822326.000000
823194.000000
824027.000000
824854.000000
825676.000000
826460.000000
827240.000000
828023.000000
828886.000000
829783.000000
830611.000000
831372.000000
832148.000000
832958.000000
833810.000000
834759.000000
835698.000000
836638.000000
837573.000000
838472.000000
839324.000000
840211.000000
841090.000000
841969.000000
842877.000000
843798.000000
844717.000000
845617.000000
846485.000000
847373.000000
848233.000000
849088.000000
849960.000000
850809.000000
851642.000000
852492.000000
853345.000000
854179.000000
855007.000000
855886.000000
856770.000000
857639.000000
858548.000000
859442.000000
860311.000000
861165.000000
862005.000000
862828.000000
863678.000000
864546.000000
865419.000000
866312.000000
867194.000000
868068.000000
868960.000000
869816.000000
870696.000000
871542.000000
872369.000000
873191.000000
874050.000000
874926.000000
875777.000000
876675.000000
877587.000000
878488.000000
879366.000000
880245.000000
881119.000000
881960.000000
882777.000000
883630.000000
884472.000000
885319.000000
886204.000000
887091.000000
887918.000000
888721.000000
889542.000000
890398.000000
891310.000000
892234.000000
893158.000000
894068.000000
894964.000000
895816.000000
896683.000000
897561.000000
898438.000000
