ECG (ms)
577.000000
1290.000000
1989.000000
2745.000000
3525.000000
4247.000000
4946.000000
5698.000000
6440.000000
7196.000000
7934.000000
8650.000000
9343.000000
10104.000000
10909.000000
11694.000000
12469.000000
13213.000000
13945.000000
14730.000000
15481.000000
16280.000000
17077.000000
17826.000000
18551.000000
19329.000000
20164.000000
21002.000000
21857.000000
22704.000000
23496.000000
24284.000000
25105.000000
25960.000000
26759.000000
27515.000000
28292.000000
29240.000000
30198.000000
31066.000000
31847.000000
32622.000000
33432.000000
34261.000000
35107.000000
35881.000000
36684.000000
37539.000000
38453.000000
39348.000000
40151.000000
40923.000000
41783.000000
42640.000000
43468.000000
44289.000000
45073.000000
45859.000000
46736.000000
47640.000000
48503.000000
49335.000000
50114.000000
50899.000000
51729.000000
52597.000000
53462.000000
54309.000000
55118.000000
55906.000000
56757.000000
57651.000000
58496.000000
59338.000000
60129.000000
60897.000000
61719.000000
62630.000000
63537.000000
64424.000000
65280.000000
66097.000000
66953.000000
67816.000000
68677.000000
69526.000000
70350.000000
71139.000000
71922.000000
72767.000000
73683.000000
74603.000000
75476.000000
76331.000000
77150.000000
77943.000000
78745.000000
79633.000000
80559.000000
81432.000000
82282.000000
83073.000000
83829.000000
84581.000000
85405.000000
86273.000000
87116.000000
87926.000000
88732.000000
89565.000000
90403.000000
91203.000000
91946.000000
92710.000000
93536.000000
94391.000000
95243.000000
96053.000000
96859.000000
97735.000000
98611.000000
99441.000000
100249.000000
101060.000000
101929.000000
102761.000000
103570.000000
104368.000000
105236.000000
106135.000000
106968.000000
107786.000000
108650.000000
109611.000000
110478.000000
111275.000000
112035.000000
112834.000000
113721.000000
114641.000000
115531.000000
116366.000000
117184.000000
118065.000000
118951.000000
119829.000000
120679.000000
121492.000000
122286.000000
123142.000000
124019.000000
124836.000000
125626.000000
126465.000000
127346.000000
128220.000000
129091.000000
129897.000000
130696.000000
131587.000000
132445.000000
133326.000000
134162.000000
134952.000000
135806.000000
136734.000000
137620.000000
138426.000000
139263.000000
140105.000000
140971.000000
141762.000000
142538.000000
143425.000000
144405.000000
145336.000000
146181.000000
147111.000000
148049.000000
148933.000000
149732.000000
150571.000000
151496.000000
152371.000000
153252.000000
154122.000000
154940.000000
155727.000000
156583.000000
157518.000000
158417.000000
159264.000000
160094.000000
160900.000000
161686.000000
162467.000000
163348.000000
164223.000000
165080.000000
165939.000000
166760.000000
167581.000000
168452.000000
169355.000000
170181.000000
171002.000000
171916.000000
172853.000000
173720.000000
174594.000000
175488.000000
176388.000000
177209.000000
178020.000000
178866.000000
179720.000000
180542.000000
181385.000000
182287.000000
183212.000000
184094.000000
184935.000000
185837.000000
186728.000000
187574.000000
188378.000000
189157.000000
189992.000000
190898.000000
191762.000000
192595.000000
193485.000000
194409.000000
195310.000000
196161.000000
197009.000000
197853.000000
198644.000000
199444.000000
200311.000000
201175.000000
202026.000000
202854.000000
203744.000000
204600.000000
205432.000000
206194.000000
206977.000000
207821.000000
208666.000000
209504.000000
210306.000000
211129.000000
212080.000000
212959.000000
213780.000000
214616.000000
215420.000000
216194.000000
216990.000000
217793.000000
218604.000000
219367.000000
220127.000000
220962.000000
221810.000000
222611.000000
223383.000000
224148.000000
224934.000000
225758.000000
226634.000000
227438.000000
228221.000000
229029.000000
229927.000000
230816.000000
231626.000000
232411.000000
233225.000000
234056.000000
234846.000000
235607.000000
236425.000000
237322.000000
238271.000000
239132.000000
239984.000000
240814.000000
241627.000000
242388.000000
243182.000000
244115.000000
245037.000000
245912.000000
246746.000000
247536.000000
248329.000000
249179.000000
250111.000000
250969.000000
251780.000000
252627.000000
253497.000000
254344.000000
255159.000000
256040.000000
256931.000000
257745.000000
258539.000000
259377.000000
260242.000000
261110.000000
261896.000000
262689.000000
263484.000000
264328.000000
265220.000000
266076.000000
267034.000000
268011.000000
268882.000000
269829.000000
270817.000000
271667.000000
272474.000000
273363.000000
274312.000000
275164.000000
276086.000000
277033.000000
277887.000000
278747.000000
279636.000000
280488.000000
281323.000000
282210.000000
283087.000000
283906.000000
284827.000000
285795.000000
286706.000000
287521.000000
288393.000000
289245.000000
290108.000000
290937.000000
291771.000000
292684.000000
293629.000000
294538.000000
295401.000000
296337.000000
297290.000000
298144.000000
298966.000000
299825.000000
300709.000000
301558.000000
302409.000000
303244.000000
304031.000000
304872.000000
305751.000000
306646.000000
307519.000000
308328.000000
309128.000000
309995.000000
310896.000000
311749.000000
312536.000000
313323.000000
314213.000000
315082.000000
315909.000000
316712.000000
317511.000000
318382.000000
319248.000000
320087.000000
320921.000000
321749.000000
322550.000000
323342.000000
324179.000000
325025.000000
325913.000000
326763.000000
327566.000000
328366.000000
329212.000000
330102.000000
330984.000000
331860.000000
332701.000000
333528.000000
334403.000000
335282.000000
336156.000000
336999.000000
337802.000000
338655.000000
339578.000000
340447.000000
341282.000000
342142.000000
343095.000000
344005.000000
344890.000000
345717.000000
346530.000000
347430.000000
348305.000000
349100.000000
349877.000000
350711.000000
351639.000000
352502.000000
353312.000000
354181.000000
355042.000000
355882.000000
356665.000000
357435.000000
358265.000000
359128.000000
359996.000000
360851.000000
361652.000000
362470.000000
363343.000000
364205.000000
364993.000000
365807.000000
366642.000000
367469.000000
368246.000000
369037.000000
369897.000000
370740.000000
371581.000000
372367.000000
373160.000000
373984.000000
374875.000000
375754.000000
376567.000000
377365.000000
378216.000000
379070.000000
379942.000000
380745.000000
381557.000000
382455.000000
383384.000000
384233.000000
385048.000000
385892.000000
386750.000000
387600.000000
388426.000000
389264.000000
390087.000000
390881.000000
391766.000000
392717.000000
393637.000000
394535.000000
395386.000000
396212.000000
397084.000000
397959.000000
398847.000000
399681.000000
400492.000000
401343.000000
402239.000000
403147.000000
404065.000000
404928.000000
405749.000000
406612.000000
407504.000000
408425.000000
409358.000000
410249.000000
411138.000000
412023.000000
412855.000000
413729.000000
414645.000000
415573.000000
416459.000000
417302.000000
418179.000000
419103.000000
419976.000000
420844.000000
421686.000000
422483.000000
423302.000000
424283.000000
425267.000000
426218.000000
427139.000000
428052.000000
428890.000000
429683.000000
430504.000000
431453.000000
432390.000000
433309.000000
434179.000000
435028.000000
435949.000000
436858.000000
437716.000000
438522.000000
439295.000000
440093.000000
441090.000000
442084.000000
443013.000000
443879.000000
444785.000000
445765.000000
446673.000000
447511.000000
448337.000000
449236.000000
450185.000000
451044.000000
451910.000000
452865.000000
453823.000000
454751.000000
455626.000000
456535.000000
457471.000000
458374.000000
459268.000000
460214.000000
461165.000000
462062.000000
462924.000000
463847.000000
464783.000000
465667.000000
466582.000000
467569.000000
468503.000000
469358.000000
470171.000000
471016.000000
472051.000000
473018.000000
473857.000000
474750.000000
475640.000000
476559.000000
477432.000000
478245.000000
479073.000000
479967.000000
480902.000000
481813.000000
482656.000000
483506.000000
484360.000000
485219.000000
486068.000000
486900.000000
487700.000000
488559.000000
489474.000000
490356.000000
491229.000000
492069.000000
492914.000000
493821.000000
494750.000000
495580.000000
496448.000000
497337.000000
498190.000000
499026.000000
499879.000000
500772.000000
501631.000000
502459.000000
503279.000000
504145.000000
505031.000000
505900.000000
506763.000000
507732.000000
508692.000000
509599.000000
510475.000000
511345.000000
512160.000000
513017.000000
513928.000000
514845.000000
515732.000000
516627.000000
517555.000000
518478.000000
519365.000000
520188.000000
521059.000000
521995.000000
522889.000000
523742.000000
524619.000000
525552.000000
526494.000000
527397.000000
528261.000000
529175.000000
530131.000000
531031.000000
531879.000000
532769.000000
533718.000000
534655.000000
535538.000000
536492.000000
537467.000000
538363.000000
539263.000000
540185.000000
541095.000000
541935.000000
542840.000000
543808.000000
544713.000000
545567.000000
546491.000000
547414.000000
548338.000000
549239.000000
550145.000000
551030.000000
551901.000000
552800.000000
553663.000000
554488.000000
555448.000000
556435.000000
557361.000000
558271.000000
559149.000000
560034.000000
560910.000000
561726.000000
562567.000000
563410.000000
564236.000000
565099.000000
565932.000000
566753.000000
567628.000000
568533.000000
569453.000000
570338.000000
571204.000000
572028.000000
572884.000000
573826.000000
574671.000000
575530.000000
576570.000000
577577.000000
578557.000000
579498.000000
580424.000000
581285.000000
582134.000000
583058.000000
584034.000000
584967.000000
585839.000000
586799.000000
587764.000000
588672.000000
589551.000000
590512.000000
591465.000000
592327.000000
593187.000000
594119.000000
595053.000000
595986.000000
596950.000000
597891.000000
598751.000000
599607.000000
600544.000000
601526.000000
602465.000000
603335.000000
604237.000000
605228.000000
606195.000000
607152.000000
608012.000000
608864.000000
609786.000000
610690.000000
611529.000000
612429.000000
613392.000000
614329.000000
615221.000000
616109.000000
617037.000000
617980.000000
618834.000000
619657.000000
620563.000000
621530.000000
622458.000000
623341.000000
624311.000000
625275.000000
626218.000000
627114.000000
627965.000000
628903.000000
629890.000000
630818.000000
631661.000000
632581.000000
633552.000000
634558.000000
635543.000000
636494.000000
637377.000000
638273.000000
639247.000000
640184.000000
641041.000000
641968.000000
642930.000000
643863.000000
644716.000000
645638.000000
646583.000000
647441.000000
648277.000000
649242.000000
650222.000000
651142.000000
652022.000000
652931.000000
653867.000000
654736.000000
655557.000000
656451.000000
657358.000000
658251.000000
659141.000000
659975.000000
660820.000000
661779.000000
662735.000000
663633.000000
664476.000000
665354.000000
666287.000000
667211.000000
668029.000000
668872.000000
669761.000000
670676.000000
671585.000000
672446.000000
673270.000000
674157.000000
675128.000000
676079.000000
676908.000000
677757.000000
678700.000000
679644.000000
680488.000000
681394.000000
682340.000000
683263.000000
684145.000000
685105.000000
686062.000000
686902.000000
687757.000000
688662.000000
689628.000000
690478.000000
691390.000000
692347.000000
693288.000000
694178.000000
695106.000000
696131.000000
697051.000000
697961.000000
698857.000000
699708.000000
700605.000000
701722.000000
702642.000000
703512.000000
704545.000000
705533.000000
706426.000000
707312.000000
708268.000000
709249.000000
710155.000000
711005.000000
711928.000000
712869.000000
713777.000000
714634.000000
715543.000000
716569.000000
717568.000000
718507.000000
719372.000000
720246.000000
721189.000000
722144.000000
723075.000000
723953.000000
724915.000000
725901.000000
726843.000000
727713.000000
728588.000000
729556.000000
730549.000000
731534.000000
732437.000000
733296.000000
734188.000000
735141.000000
736105.000000
737033.000000
737880.000000
738718.000000
739613.000000
740565.000000
741537.000000
742473.000000
743346.000000
744193.000000
745086.000000
746024.000000
746928.000000
747781.000000
748620.000000
749529.000000
750449.000000
751353.000000
752248.000000
753096.000000
753927.000000
754801.000000
755697.000000
756590.000000
757419.000000
758254.000000
759154.000000
760091.000000
761016.000000
761857.000000
762706.000000
763603.000000
764558.000000
765440.000000
766292.000000
767230.000000
768190.000000
769136.000000
770052.000000
770906.000000
771736.000000
772624.000000
773572.000000
774475.000000
775315.000000
776161.000000
777077.000000
777985.000000
778839.000000
779691.000000
780703.000000
781631.000000
782453.000000
783295.000000
784173.000000
785045.000000
785937.000000
786790.000000
787645.000000
788571.000000
789526.000000
790431.000000
791298.000000
792255.000000
793198.000000
794092.000000
794921.000000
795755.000000
796640.000000
797643.000000
798595.000000
799494.000000
800429.000000
801404.000000
802407.000000
803361.000000
804231.000000
805118.000000
806113.000000
807074.000000
807957.000000
808825.000000
809751.000000
810708.000000
811580.000000
812471.000000
813378.000000
814261.000000
815162.000000
816064.000000
816931.000000
817767.000000
818686.000000
819639.000000
820545.000000
821393.000000
822209.000000
823144.000000
824136.000000
825056.000000
825954.000000
826804.000000
827618.000000
828504.000000
829477.000000
830418.000000
831292.000000
832120.000000
832970.000000
833886.000000
834872.000000
835815.000000
836719.000000
837600.000000
838476.000000
839463.000000
840455.000000
841376.000000
842227.000000
843113.000000
844016.000000
844934.000000
845856.000000
846764.000000
847650.000000
848514.000000
849452.000000
850417.000000
851359.000000
852226.000000
853145.000000
854158.000000
855105.000000
855962.000000
856876.000000
857828.000000
858780.000000
859715.000000
860593.000000
861430.000000
862363.000000
863322.000000
864215.000000
865114.000000
866088.000000
867040.000000
867952.000000
868806.000000
869658.000000
870575.000000
871517.000000
872453.000000
873328.000000
874253.000000
875225.000000
876200.000000
877115.000000
877996.000000
878988.000000
879919.000000
880755.000000
881605.000000
882545.000000
883539.000000
884485.000000
885371.000000
886343.000000
887339.000000
888238.000000
889189.000000
890215.000000
891150.000000
892015.000000
892953.000000
893930.000000
894816.000000
895714.000000
896658.000000
897585.000000
898517.000000
899408.000000
900253.000000
