ECG (ms)
70.000000
742.000000
1402.000000
2079.000000
2760.000000
3453.000000
4150.000000
4850.000000
5527.000000
6197.000000
6862.000000
7545.000000
8218.000000
8883.000000
9537.000000
10191.000000
10858.000000
11535.000000
12206.000000
12866.000000
13518.000000
14171.000000
14831.000000
15498.000000
16176.000000
16858.000000
17533.000000
18204.000000
18888.000000
19566.000000
20246.000000
20909.000000
21569.000000
22225.000000
22885.000000
23553.000000
24218.000000
24862.000000
25503.000000
26148.000000
26803.000000
27464.000000
28112.000000
28762.000000
29428.000000
30085.000000
30743.000000
31404.000000
32062.000000
32710.000000
33368.000000
34029.000000
34702.000000
35372.000000
36027.000000
36691.000000
37356.000000
38028.000000
38704.000000
39371.000000
40031.000000
40696.000000
41381.000000
42072.000000
42744.000000
43407.000000
44070.000000
44749.000000
45427.000000
46104.000000
46766.000000
47426.000000
48084.000000
48747.000000
49412.000000
50080.000000
50734.000000
51391.000000
52056.000000
52720.000000
53378.000000
54029.000000
54688.000000
55366.000000
56044.000000
56714.000000
57376.000000
58053.000000
58737.000000
59428.000000
60100.000000
60753.000000
61403.000000
62074.000000
62765.000000
63467.000000
64177.000000
64896.000000
65593.000000
66290.000000
66993.000000
67699.000000
68397.000000
69083.000000
69757.000000
70434.000000
71132.000000
71854.000000
72547.000000
73227.000000
73908.000000
74596.000000
75284.000000
75976.000000
76660.000000
77342.000000
78004.000000
78678.000000
79364.000000
80053.000000
80745.000000
81442.000000
82119.000000
82776.000000
83442.000000
84123.000000
84812.000000
85508.000000
86203.000000
86881.000000
87552.000000
88232.000000
88906.000000
89582.000000
90259.000000
90919.000000
91571.000000
92236.000000
92905.000000
93578.000000
94239.000000
94885.000000
95532.000000
96185.000000
96835.000000
97487.000000
98138.000000
98778.000000
99420.000000
100064.000000
100723.000000
101382.000000
102022.000000
102665.000000
103303.000000
103953.000000
104605.000000
105261.000000
105907.000000
106551.000000
107192.000000
107838.000000
108488.000000
109146.000000
109794.000000
110439.000000
111090.000000
111742.000000
112401.000000
113059.000000
113714.000000
114363.000000
115032.000000
115705.000000
116393.000000
117064.000000
117715.000000
118356.000000
119007.000000
119664.000000
120323.000000
120982.000000
121623.000000
122268.000000
122915.000000
123572.000000
124232.000000
124893.000000
125543.000000
126199.000000
126860.000000
127523.000000
128197.000000
128860.000000
129506.000000
130141.000000
130780.000000
131424.000000
132069.000000
132719.000000
133368.000000
134017.000000
134673.000000
135338.000000
136034.000000
136734.000000
137417.000000
138088.000000
138746.000000
139406.000000
140091.000000
140787.000000
141488.000000
142179.000000
142862.000000
143525.000000
144181.000000
144838.000000
145496.000000
146166.000000
146843.000000
147515.000000
148183.000000
148848.000000
149514.000000
150187.000000
150876.000000
151561.000000
152240.000000
152906.000000
153587.000000
154270.000000
154949.000000
155625.000000
156288.000000
156957.000000
157641.000000
158351.000000
159067.000000
159771.000000
160457.000000
161138.000000
161829.000000
162523.000000
163213.000000
163896.000000
164571.000000
165232.000000
165906.000000
166596.000000
167284.000000
167967.000000
168665.000000
169371.000000
170078.000000
170778.000000
171466.000000
172151.000000
172838.000000
173527.000000
174224.000000
174910.000000
175579.000000
176248.000000
176924.000000
177602.000000
178293.000000
178983.000000
179660.000000
180331.000000
181012.000000
181702.000000
182411.000000
183104.000000
183799.000000
184493.000000
185193.000000
185896.000000
186605.000000
187316.000000
188019.000000
188698.000000
189388.000000
190073.000000
190772.000000
191468.000000
192167.000000
192864.000000
193543.000000
194228.000000
194917.000000
195627.000000
196326.000000
197016.000000
197694.000000
198378.000000
199063.000000
199748.000000
200432.000000
201101.000000
201757.000000
202409.000000
203076.000000
203741.000000
204413.000000
205099.000000
205770.000000
206430.000000
207088.000000
207757.000000
208434.000000
209114.000000
209787.000000
210445.000000
211099.000000
211765.000000
212435.000000
213111.000000
213790.000000
214463.000000
215137.000000
215821.000000
216504.000000
217192.000000
217862.000000
218521.000000
219184.000000
219848.000000
220514.000000
221171.000000
221820.000000
222479.000000
223146.000000
223820.000000
224494.000000
225160.000000
225815.000000
226467.000000
227123.000000
227784.000000
228438.000000
229088.000000
229746.000000
230406.000000
231078.000000
231741.000000
232409.000000
233070.000000
233714.000000
234369.000000
235037.000000
235720.000000
236393.000000
237055.000000
237705.000000
238350.000000
239001.000000
239652.000000
240313.000000
240976.000000
241637.000000
242298.000000
242979.000000
243665.000000
244343.000000
245016.000000
245677.000000
246337.000000
247009.000000
247697.000000
248376.000000
249064.000000
249738.000000
250402.000000
251084.000000
251772.000000
252474.000000
253184.000000
253883.000000
254567.000000
255236.000000
255911.000000
256593.000000
257292.000000
257984.000000
258675.000000
259361.000000
260053.000000
260750.000000
261453.000000
262151.000000
262852.000000
263541.000000
264222.000000
264913.000000
265593.000000
266274.000000
266956.000000
267637.000000
268310.000000
268972.000000
269641.000000
270312.000000
270999.000000
271692.000000
272380.000000
273058.000000
273724.000000
274392.000000
275056.000000
275725.000000
276396.000000
277072.000000
277747.000000
278418.000000
279098.000000
279781.000000
280467.000000
281150.000000
281826.000000
282498.000000
283183.000000
283874.000000
284563.000000
285248.000000
285928.000000
286601.000000
287281.000000
287959.000000
288642.000000
289317.000000
289979.000000
290645.000000
291315.000000
291985.000000
292668.000000
293343.000000
294009.000000
294674.000000
295346.000000
296019.000000
296690.000000
297352.000000
298008.000000
298664.000000
299327.000000
299989.000000
300659.000000
301339.000000
302009.000000
302681.000000
303356.000000
304024.000000
304694.000000
305359.000000
306017.000000
306674.000000
307343.000000
308019.000000
308710.000000
309399.000000
310080.000000
310747.000000
311422.000000
312099.000000
312777.000000
313456.000000
314137.000000
314809.000000
315476.000000
316149.000000
316825.000000
317504.000000
318183.000000
318853.000000
319511.000000
320167.000000
320824.000000
321489.000000
322159.000000
322830.000000
323509.000000
324176.000000
324833.000000
325500.000000
326178.000000
326867.000000
327538.000000
328193.000000
328845.000000
329503.000000
330176.000000
330851.000000
331526.000000
332195.000000
332864.000000
333544.000000
334244.000000
334946.000000
335650.000000
336350.000000
337036.000000
337717.000000
338403.000000
339089.000000
339781.000000
340483.000000
341174.000000
341852.000000
342532.000000
343225.000000
343934.000000
344650.000000
345372.000000
346101.000000
346814.000000
347531.000000
348250.000000
348970.000000
349679.000000
350369.000000
351066.000000
351768.000000
352470.000000
353185.000000
353892.000000
354584.000000
355282.000000
355977.000000
356685.000000
357400.000000
358118.000000
358837.000000
359538.000000
360234.000000
360933.000000
361633.000000
362343.000000
363057.000000
363759.000000
364448.000000
365144.000000
365837.000000
366538.000000
367246.000000
367952.000000
368647.000000
369336.000000
370039.000000
370751.000000
371473.000000
372191.000000
372902.000000
373601.000000
374286.000000
374975.000000
375671.000000
376365.000000
377063.000000
377761.000000
378443.000000
379121.000000
379807.000000
380496.000000
381184.000000
381871.000000
382551.000000
383225.000000
383908.000000
384587.000000
385269.000000
385960.000000
386645.000000
387320.000000
387998.000000
388679.000000
389359.000000
390042.000000
390714.000000
391380.000000
392048.000000
392716.000000
393386.000000
394061.000000
394747.000000
395428.000000
396099.000000
396776.000000
397455.000000
398145.000000
398836.000000
399524.000000
400203.000000
400879.000000
401564.000000
402255.000000
402949.000000
403642.000000
404326.000000
405002.000000
405684.000000
406373.000000
407063.000000
407767.000000
408464.000000
409155.000000
409855.000000
410563.000000
411269.000000
411968.000000
412651.000000
413330.000000
414018.000000
414708.000000
415394.000000
416092.000000
416779.000000
417463.000000
418146.000000
418833.000000
419525.000000
420224.000000
420924.000000
421605.000000
422287.000000
422962.000000
423644.000000
424325.000000
424997.000000
425674.000000
426352.000000
427037.000000
427729.000000
428413.000000
429086.000000
429758.000000
430425.000000
431088.000000
431749.000000
432397.000000
433047.000000
433700.000000
434354.000000
435010.000000
435670.000000
436318.000000
436964.000000
437614.000000
438278.000000
438944.000000
439616.000000
440279.000000
440937.000000
441601.000000
442270.000000
442947.000000
443636.000000
444324.000000
444995.000000
445661.000000
446331.000000
447004.000000
447675.000000
448345.000000
449007.000000
449672.000000
450339.000000
451011.000000
451681.000000
452347.000000
453009.000000
453677.000000
454349.000000
455020.000000
455685.000000
456339.000000
456997.000000
457655.000000
458321.000000
458994.000000
459665.000000
460328.000000
461000.000000
461682.000000
462376.000000
463085.000000
463788.000000
464474.000000
465152.000000
465830.000000
466510.000000
467191.000000
467871.000000
468537.000000
469200.000000
469862.000000
470539.000000
471220.000000
471907.000000
472577.000000
473247.000000
473934.000000
474631.000000
475329.000000
476004.000000
476668.000000
477328.000000
477988.000000
478652.000000
479321.000000
479981.000000
480635.000000
481297.000000
481969.000000
482643.000000
483314.000000
483976.000000
484634.000000
485309.000000
485990.000000
486676.000000
487359.000000
488026.000000
488696.000000
489369.000000
490040.000000
490721.000000
491398.000000
492070.000000
492742.000000
493422.000000
494109.000000
494801.000000
495500.000000
496183.000000
496861.000000
497539.000000
498214.000000
498893.000000
499565.000000
500225.000000
500887.000000
501558.000000
502251.000000
502948.000000
503625.000000
504302.000000
504977.000000
505665.000000
506358.000000
507056.000000
507745.000000
508417.000000
509096.000000
509779.000000
510470.000000
511171.000000
511865.000000
512534.000000
513191.000000
513849.000000
514502.000000
515160.000000
515814.000000
516471.000000
517143.000000
517857.000000
518579.000000
519299.000000
519999.000000
520664.000000
521291.000000
521915.000000
522543.000000
523171.000000
523833.000000
524530.000000
525211.000000
525890.000000
526580.000000
527272.000000
527981.000000
528695.000000
529400.000000
530077.000000
530746.000000
531415.000000
532090.000000
532784.000000
533479.000000
534169.000000
534840.000000
535494.000000
536160.000000
536822.000000
537496.000000
538165.000000
538816.000000
539462.000000
540125.000000
540806.000000
541511.000000
542218.000000
542916.000000
543605.000000
544284.000000
544966.000000
545641.000000
546306.000000
546964.000000
547620.000000
548279.000000
548953.000000
549637.000000
550310.000000
550982.000000
551661.000000
552342.000000
553023.000000
553690.000000
554351.000000
555018.000000
555685.000000
556349.000000
557010.000000
557685.000000
558361.000000
559041.000000
559717.000000
560377.000000
561037.000000
561697.000000
562358.000000
563022.000000
563681.000000
564345.000000
565007.000000
565666.000000
566331.000000
566996.000000
567657.000000
568302.000000
568950.000000
569608.000000
570262.000000
570905.000000
571549.000000
572206.000000
572868.000000
573541.000000
574216.000000
574891.000000
575567.000000
576238.000000
576903.000000
577580.000000
578268.000000
578968.000000
579661.000000
580353.000000
581052.000000
581760.000000
582483.000000
583214.000000
583946.000000
584681.000000
585404.000000
586135.000000
586879.000000
587623.000000
588360.000000
589073.000000
589781.000000
590476.000000
591186.000000
591911.000000
592652.000000
593399.000000
594130.000000
594837.000000
595544.000000
596262.000000
596988.000000
597721.000000
598444.000000
599158.000000
599875.000000
600606.000000
601351.000000
602106.000000
602832.000000
603561.000000
604294.000000
605026.000000
605743.000000
606434.000000
607133.000000
607845.000000
608572.000000
609314.000000
610043.000000
610750.000000
611450.000000
612150.000000
612855.000000
613565.000000
614268.000000
614962.000000
615657.000000
616365.000000
617080.000000
617804.000000
618510.000000
619196.000000
619885.000000
620583.000000
621281.000000
621993.000000
622706.000000
623404.000000
624092.000000
624785.000000
625483.000000
626185.000000
626873.000000
627575.000000
628282.000000
628992.000000
629709.000000
630409.000000
631111.000000
631822.000000
632540.000000
633269.000000
634008.000000
634734.000000
635452.000000
636177.000000
636909.000000
637649.000000
638378.000000
639094.000000
639805.000000
640530.000000
641254.000000
641986.000000
642711.000000
643432.000000
644169.000000
644911.000000
645649.000000
646373.000000
647079.000000
647792.000000
648497.000000
649213.000000
649938.000000
650645.000000
651352.000000
652061.000000
652769.000000
653479.000000
654167.000000
654849.000000
655540.000000
656240.000000
656946.000000
657630.000000
658314.000000
659008.000000
659699.000000
660392.000000
661075.000000
661748.000000
662413.000000
663093.000000
663799.000000
664514.000000
665236.000000
665949.000000
666650.000000
667335.000000
668022.000000
668712.000000
669404.000000
670098.000000
670793.000000
671479.000000
672163.000000
672857.000000
673565.000000
674284.000000
674999.000000
675705.000000
676396.000000
677093.000000
677791.000000
678489.000000
679194.000000
679903.000000
680596.000000
681291.000000
682002.000000
682721.000000
683451.000000
684160.000000
684855.000000
685555.000000
686263.000000
686980.000000
687698.000000
688426.000000
689139.000000
689835.000000
690532.000000
691225.000000
691915.000000
692592.000000
693268.000000
693953.000000
694647.000000
695348.000000
696051.000000
696744.000000
697431.000000
698125.000000
698821.000000
699518.000000
700202.000000
700873.000000
701557.000000
702239.000000
702924.000000
703608.000000
704275.000000
704942.000000
705616.000000
706298.000000
706985.000000
707661.000000
708334.000000
709011.000000
709688.000000
710368.000000
711039.000000
711704.000000
712365.000000
713030.000000
713727.000000
714424.000000
715120.000000
715797.000000
716458.000000
717122.000000
717791.000000
718466.000000
719148.000000
719832.000000
720513.000000
721197.000000
721887.000000
722587.000000
723288.000000
723985.000000
724677.000000
725350.000000
726029.000000
726710.000000
727397.000000
728091.000000
728769.000000
729441.000000
730129.000000
730831.000000
731534.000000
732241.000000
732931.000000
733616.000000
734313.000000
735017.000000
735731.000000
736439.000000
737132.000000
737817.000000
738513.000000
739205.000000
739919.000000
740631.000000
741323.000000
742017.000000
742727.000000
743432.000000
744123.000000
744808.000000
745469.000000
746129.000000
746786.000000
747448.000000
748108.000000
748751.000000
749395.000000
750050.000000
750726.000000
751415.000000
752108.000000
752780.000000
753444.000000
754118.000000
754805.000000
755479.000000
756152.000000
756816.000000
757473.000000
758134.000000
758801.000000
759468.000000
760134.000000
760795.000000
761453.000000
762135.000000
762838.000000
763546.000000
764244.000000
764918.000000
765586.000000
766254.000000
766921.000000
767592.000000
768269.000000
768924.000000
769570.000000
770233.000000
770917.000000
771607.000000
772303.000000
772999.000000
773682.000000
774355.000000
775026.000000
775708.000000
776393.000000
777077.000000
777757.000000
778428.000000
779085.000000
779760.000000
780448.000000
781148.000000
781845.000000
782530.000000
783210.000000
783886.000000
784576.000000
785259.000000
785955.000000
786646.000000
787319.000000
787989.000000
788678.000000
789381.000000
790099.000000
790816.000000
791508.000000
792195.000000
792878.000000
793584.000000
794291.000000
794982.000000
795666.000000
796331.000000
796991.000000
797661.000000
798350.000000
799047.000000
799751.000000
800434.000000
801131.000000
801832.000000
802546.000000
803270.000000
803989.000000
804703.000000
805419.000000
806132.000000
806850.000000
807563.000000
808255.000000
808932.000000
809611.000000
810299.000000
810989.000000
811672.000000
812336.000000
812997.000000
813660.000000
814322.000000
814992.000000
815651.000000
816307.000000
816974.000000
817660.000000
818381.000000
819095.000000
819813.000000
820512.000000
821193.000000
821883.000000
822568.000000
823251.000000
823936.000000
824603.000000
825264.000000
825940.000000
826620.000000
827303.000000
827978.000000
828657.000000
829327.000000
829999.000000
830679.000000
831367.000000
832046.000000
832721.000000
833382.000000
834064.000000
834752.000000
835435.000000
836125.000000
836815.000000
837487.000000
838153.000000
838827.000000
839515.000000
840214.000000
840902.000000
841592.000000
842270.000000
842941.000000
843621.000000
844308.000000
844998.000000
845689.000000
846370.000000
847038.000000
847699.000000
848357.000000
849024.000000
849700.000000
850385.000000
851066.000000
851742.000000
852430.000000
853129.000000
853823.000000
854514.000000
855189.000000
855858.000000
856532.000000
857205.000000
857896.000000
858584.000000
859257.000000
859917.000000
860569.000000
861226.000000
861888.000000
862562.000000
863242.000000
863921.000000
864587.000000
865261.000000
865939.000000
866626.000000
867317.000000
867996.000000
868670.000000
869352.000000
870035.000000
870720.000000
871403.000000
872078.000000
872744.000000
873412.000000
874084.000000
874749.000000
875417.000000
876076.000000
876729.000000
877397.000000
878075.000000
878761.000000
879449.000000
880123.000000
880796.000000
881477.000000
882157.000000
882842.000000
883516.000000
884188.000000
884865.000000
885550.000000
886232.000000
886919.000000
887617.000000
888311.000000
888996.000000
889699.000000
890400.000000
891089.000000
891761.000000
892416.000000
893080.000000
893743.000000
894422.000000
895112.000000
895798.000000
896481.000000
897177.000000
897872.000000
898547.000000
899210.000000
899858.000000
900510.000000
901175.000000
901851.000000
902538.000000
903202.000000
903855.000000
904516.000000
905179.000000
905840.000000
906501.000000
907164.000000
907814.000000
908466.000000
909125.000000
909800.000000
910477.000000
911134.000000
911779.000000
912433.000000
913098.000000
913789.000000
914469.000000
915133.000000
915788.000000
916434.000000
917086.000000
917738.000000
918411.000000
919082.000000
919751.000000
920422.000000
921106.000000
921794.000000
922488.000000
923168.000000
923827.000000
924487.000000
925160.000000
925843.000000
926528.000000
927203.000000
927880.000000
928555.000000
929237.000000
929928.000000
930634.000000
931342.000000
932023.000000
932698.000000
933378.000000
934062.000000
934756.000000
935456.000000
936147.000000
936830.000000
937521.000000
938228.000000
938944.000000
939666.000000
940375.000000
941076.000000
941796.000000
942522.000000
943242.000000
943949.000000
944642.000000
945327.000000
946016.000000
946710.000000
947409.000000
948097.000000
948771.000000
949450.000000
950132.000000
950820.000000
951512.000000
952203.000000
952881.000000
953572.000000
954271.000000
954977.000000
955685.000000
956371.000000
957051.000000
957737.000000
958423.000000
959116.000000
959810.000000
960492.000000
961166.000000
961847.000000
962527.000000
963216.000000
963908.000000
964589.000000
965275.000000
965968.000000
966677.000000
967377.000000
968095.000000
968796.000000
969481.000000
970165.000000
970854.000000
971551.000000
972252.000000
972960.000000
973652.000000
974331.000000
975018.000000
975712.000000
976419.000000
977139.000000
977848.000000
978544.000000
979246.000000
979958.000000
980672.000000
981380.000000
982077.000000
982765.000000
983463.000000
984167.000000
984874.000000
985576.000000
986261.000000
986949.000000
987643.000000
988346.000000
989044.000000
989734.000000
990415.000000
991102.000000
991797.000000
992492.000000
993176.000000
993854.000000
994549.000000
995255.000000
995960.000000
996661.000000
997348.000000
998032.000000
998718.000000
999409.000000
1000099.000000
1000790.000000
1001470.000000
1002144.000000
1002824.000000
1003512.000000
1004204.000000
1004889.000000
1005563.000000
1006241.000000
1006929.000000
1007617.000000
1008307.000000
1008983.000000
1009655.000000
1010328.000000
1011003.000000
1011693.000000
1012379.000000
1013054.000000
1013725.000000
1014409.000000
1015095.000000
1015784.000000
1016457.000000
1017125.000000
1017796.000000
1018484.000000
1019181.000000
1019875.000000
1020559.000000
1021220.000000
1021882.000000
1022552.000000
1023223.000000
1023892.000000
1024560.000000
1025227.000000
1025900.000000
1026592.000000
1027285.000000
1027981.000000
1028665.000000
1029334.000000
1030011.000000
1030690.000000
1031377.000000
1032060.000000
1032752.000000
1033439.000000
1034136.000000
1034857.000000
1035562.000000
1036270.000000
1036965.000000
1037656.000000
1038364.000000
1039086.000000
1039819.000000
1040534.000000
1041243.000000
1041954.000000
1042659.000000
1043362.000000
1044056.000000
1044744.000000
1045417.000000
1046104.000000
1046817.000000
1047540.000000
1048266.000000
1048968.000000
1049664.000000
1050360.000000
1051059.000000
1051774.000000
1052486.000000
1053177.000000
1053858.000000
1054537.000000
1055231.000000
1055923.000000
1056622.000000
1057328.000000
1058019.000000
1058710.000000
1059420.000000
1060126.000000
1060836.000000
1061536.000000
1062230.000000
1062922.000000
1063619.000000
1064327.000000
1065040.000000
1065749.000000
1066440.000000
1067133.000000
1067828.000000
1068537.000000
1069251.000000
1069954.000000
1070649.000000
1071349.000000
1072070.000000
1072799.000000
1073532.000000
1074244.000000
1074933.000000
1075624.000000
1076310.000000
1077007.000000
1077706.000000
1078389.000000
1079063.000000
1079742.000000
1080431.000000
1081131.000000
1081825.000000
1082498.000000
1083164.000000
1083840.000000
1084525.000000
1085222.000000
1085920.000000
1086603.000000
1087292.000000
1087986.000000
1088675.000000
1089364.000000
1090048.000000
1090723.000000
1091400.000000
1092084.000000
1092775.000000
1093473.000000
1094153.000000
1094841.000000
1095541.000000
1096255.000000
1096974.000000
1097685.000000
1098384.000000
1099069.000000
1099760.000000
1100457.000000
1101151.000000
1101855.000000
1102568.000000
1103285.000000
1103989.000000
1104695.000000
1105400.000000
1106089.000000
1106765.000000
1107435.000000
1108119.000000
1108819.000000
1109538.000000
1110265.000000
1110988.000000
1111692.000000
1112401.000000
1113114.000000
1113832.000000
1114552.000000
1115276.000000
1115990.000000
1116689.000000
1117396.000000
1118097.000000
1118806.000000
1119513.000000
1120203.000000
1120881.000000
1121571.000000
1122257.000000
1122951.000000
1123647.000000
1124340.000000
1125018.000000
1125712.000000
1126402.000000
1127094.000000
1127790.000000
1128473.000000
1129143.000000
1129822.000000
1130505.000000
1131194.000000
1131884.000000
1132565.000000
1133239.000000
1133918.000000
1134602.000000
1135298.000000
1135986.000000
1136685.000000
1137389.000000
1138099.000000
1138815.000000
1139518.000000
1140207.000000
1140888.000000
1141574.000000
1142264.000000
1142963.000000
1143652.000000
1144331.000000
1145018.000000
1145720.000000
1146411.000000
1147103.000000
1147777.000000
1148446.000000
1149122.000000
1149798.000000
1150474.000000
1151151.000000
1151822.000000
1152486.000000
1153156.000000
1153826.000000
1154500.000000
1155175.000000
1155836.000000
1156500.000000
1157167.000000
1157844.000000
1158525.000000
1159200.000000
1159863.000000
1160534.000000
1161203.000000
1161882.000000
1162563.000000
1163233.000000
1163892.000000
1164554.000000
1165222.000000
1165896.000000
1166575.000000
1167250.000000
1167909.000000
1168555.000000
1169201.000000
1169853.000000
1170514.000000
1171176.000000
1171834.000000
1172476.000000
1173124.000000
1173781.000000
1174444.000000
1175110.000000
1175781.000000
1176440.000000
1177093.000000
1177757.000000
1178443.000000
1179132.000000
1179817.000000
1180501.000000
1181179.000000
1181882.000000
1182596.000000
1183317.000000
1184043.000000
1184746.000000
1185434.000000
1186123.000000
1186830.000000
1187542.000000
1188264.000000
1188984.000000
1189694.000000
1190391.000000
1191098.000000
1191810.000000
1192524.000000
1193234.000000
1193943.000000
1194648.000000
1195365.000000
1196086.000000
1196815.000000
1197544.000000
1198257.000000
1198958.000000
1199664.000000
1200373.000000
