ECG (ms)
160.000000
1220.000000
2217.000000
3245.000000
4304.000000
5322.000000
6237.000000
7109.000000
8047.000000
9146.000000
10189.000000
11269.000000
12421.000000
13547.000000
14589.000000
15571.000000
16616.000000
17696.000000
18772.000000
19756.000000
20779.000000
21843.000000
22879.000000
23871.000000
24895.000000
25837.000000
26819.000000
27857.000000
28835.000000
29738.000000
30600.000000
31515.000000
32568.000000
33693.000000
34773.000000
35766.000000
36797.000000
37863.000000
38934.000000
39938.000000
40976.000000
42082.000000
43146.000000
44131.000000
45121.000000
46130.000000
47119.000000
48126.000000
49229.000000
50316.000000
51343.000000
52446.000000
53525.000000
54535.000000
55602.000000
56661.000000
57636.000000
58665.000000
59728.000000
60693.000000
61688.000000
62715.000000
63703.000000
64631.000000
65677.000000
66750.000000
67737.000000
68778.000000
69844.000000
70791.000000
71784.000000
72829.000000
73790.000000
74767.000000
75811.000000
76835.000000
77794.000000
78836.000000
79887.000000
80858.000000
81863.000000
82868.000000
83850.000000
84744.000000
85630.000000
86611.000000
87515.000000
88514.000000
89613.000000
90648.000000
91634.000000
92687.000000
93764.000000
94749.000000
95685.000000
96666.000000
97677.000000
98689.000000
99650.000000
100695.000000
101783.000000
102828.000000
103811.000000
104817.000000
105855.000000
106819.000000
107818.000000
108825.000000
109777.000000
110771.000000
111796.000000
112741.000000
113757.000000
114804.000000
115762.000000
116760.000000
117769.000000
118677.000000
119599.000000
120559.000000
121541.000000
122471.000000
123394.000000
124409.000000
125454.000000
126390.000000
127342.000000
128328.000000
129275.000000
130191.000000
131180.000000
132196.000000
133145.000000
134202.000000
135268.000000
136245.000000
137254.000000
138276.000000
139208.000000
140161.000000
141208.000000
142180.000000
143105.000000
144101.000000
145109.000000
146069.000000
147097.000000
148184.000000
149216.000000
150176.000000
151200.000000
152208.000000
153142.000000
154144.000000
155188.000000
156143.000000
157156.000000
158214.000000
159167.000000
160169.000000
161188.000000
162129.000000
163175.000000
164228.000000
165212.000000
166283.000000
167339.000000
168309.000000
169322.000000
170322.000000
171236.000000
172233.000000
173258.000000
174197.000000
175180.000000
176217.000000
177169.000000
178151.000000
179158.000000
180152.000000
181087.000000
182106.000000
183182.000000
184137.000000
185108.000000
186157.000000
187199.000000
188151.000000
189179.000000
190232.000000
191240.000000
192283.000000
193377.000000
194392.000000
195453.000000
196566.000000
197586.000000
198677.000000
199795.000000
200816.000000
201887.000000
202952.000000
203914.000000
204934.000000
205958.000000
206918.000000
207937.000000
209051.000000
210056.000000
211120.000000
212175.000000
213135.000000
214149.000000
215196.000000
216184.000000
217267.000000
218395.000000
219404.000000
220460.000000
221508.000000
222458.000000
223475.000000
224541.000000
225501.000000
226496.000000
227531.000000
228543.000000
229490.000000
230510.000000
231547.000000
232497.000000
233490.000000
234496.000000
235416.000000
236376.000000
237456.000000
238470.000000
239436.000000
240480.000000
241519.000000
242467.000000
243495.000000
244555.000000
245551.000000
246581.000000
247645.000000
248636.000000
249656.000000
250723.000000
251717.000000
252741.000000
253759.000000
254691.000000
255672.000000
256702.000000
257713.000000
258688.000000
259731.000000
260785.000000
261754.000000
262759.000000
263747.000000
264680.000000
265672.000000
266712.000000
267736.000000
268690.000000
269728.000000
270776.000000
271791.000000
272878.000000
273980.000000
274992.000000
276040.000000
277116.000000
278134.000000
279211.000000
280280.000000
281288.000000
282386.000000
283469.000000
284460.000000
285492.000000
286518.000000
287493.000000
288494.000000
289560.000000
290593.000000
291558.000000
292587.000000
293626.000000
294576.000000
295534.000000
296515.000000
297484.000000
298397.000000
299417.000000
300505.000000
301526.000000
302604.000000
303676.000000
304655.000000
305642.000000
306671.000000
307714.000000
308683.000000
309723.000000
310788.000000
311759.000000
312838.000000
313921.000000
314897.000000
315922.000000
316949.000000
317935.000000
318967.000000
320075.000000
321069.000000
322112.000000
323196.000000
324186.000000
325249.000000
326305.000000
327293.000000
328330.000000
329383.000000
330389.000000
331297.000000
332233.000000
333255.000000
334282.000000
335230.000000
336257.000000
337323.000000
338355.000000
339298.000000
340288.000000
341356.000000
342410.000000
343368.000000
344402.000000
345477.000000
346508.000000
347478.000000
348513.000000
349578.000000
350542.000000
351524.000000
352553.000000
353565.000000
354531.000000
355581.000000
356638.000000
357617.000000
358680.000000
359756.000000
360746.000000
361785.000000
362827.000000
363789.000000
364832.000000
365932.000000
366930.000000
367981.000000
369070.000000
370036.000000
371063.000000
372115.000000
373069.000000
374119.000000
375214.000000
376246.000000
377244.000000
378357.000000
379478.000000
380515.000000
381620.000000
382702.000000
383689.000000
384736.000000
385811.000000
386806.000000
387872.000000
388960.000000
389983.000000
391075.000000
392146.000000
393101.000000
394136.000000
395181.000000
396129.000000
397161.000000
398232.000000
399217.000000
400290.000000
401406.000000
402404.000000
403429.000000
404443.000000
405383.000000
406377.000000
407429.000000
408465.000000
409394.000000
410391.000000
411428.000000
412414.000000
413339.000000
414359.000000
415391.000000
416338.000000
417359.000000
418402.000000
419355.000000
420317.000000
421301.000000
422292.000000
423231.000000
424265.000000
425339.000000
426334.000000
427385.000000
428433.000000
429369.000000
430383.000000
431453.000000
432429.000000
433493.000000
434642.000000
435697.000000
436728.000000
437802.000000
438851.000000
439832.000000
440871.000000
441946.000000
442912.000000
443869.000000
444890.000000
445932.000000
446909.000000
447964.000000
449090.000000
450128.000000
451186.000000
452290.000000
453334.000000
454308.000000
455349.000000
456398.000000
457355.000000
458360.000000
459461.000000
460476.000000
461404.000000
462390.000000
463383.000000
464300.000000
465286.000000
466336.000000
467309.000000
468339.000000
469382.000000
470330.000000
471313.000000
472316.000000
473269.000000
474262.000000
475342.000000
476393.000000
477398.000000
478439.000000
479476.000000
480428.000000
481427.000000
482452.000000
483397.000000
484432.000000
485498.000000
486444.000000
487441.000000
488455.000000
489405.000000
490378.000000
491407.000000
492478.000000
493451.000000
494501.000000
495601.000000
496640.000000
497588.000000
498588.000000
499564.000000
500475.000000
501448.000000
502494.000000
503469.000000
504532.000000
505725.000000
506844.000000
507902.000000
509027.000000
510138.000000
511124.000000
512106.000000
513213.000000
514315.000000
515321.000000
516399.000000
517534.000000
518602.000000
519587.000000
520651.000000
521763.000000
522784.000000
523871.000000
525012.000000
526059.000000
527171.000000
528307.000000
529330.000000
530394.000000
531464.000000
532443.000000
533504.000000
534620.000000
535609.000000
536694.000000
537812.000000
538806.000000
539866.000000
540948.000000
541942.000000
542982.000000
544083.000000
545131.000000
546149.000000
547214.000000
548246.000000
549214.000000
550302.000000
551405.000000
552404.000000
553470.000000
554526.000000
555511.000000
556557.000000
557650.000000
558689.000000
559670.000000
560740.000000
561813.000000
562808.000000
563856.000000
564953.000000
565963.000000
567014.000000
568083.000000
569075.000000
569996.000000
571011.000000
572064.000000
573049.000000
574103.000000
575210.000000
576226.000000
577271.000000
578341.000000
579327.000000
580324.000000
581392.000000
582397.000000
583352.000000
584366.000000
585405.000000
586365.000000
587394.000000
588470.000000
589436.000000
590441.000000
591459.000000
592408.000000
593352.000000
594395.000000
595444.000000
596422.000000
597513.000000
598643.000000
599682.000000
600773.000000
601834.000000
602808.000000
603868.000000
605033.000000
606121.000000
607179.000000
608320.000000
609448.000000
610453.000000
611512.000000
612590.000000
613637.000000
614585.000000
615597.000000
616661.000000
617662.000000
618726.000000
619839.000000
620873.000000
621853.000000
622903.000000
623951.000000
624902.000000
625914.000000
627004.000000
628062.000000
629094.000000
630229.000000
631309.000000
632317.000000
633395.000000
634467.000000
635479.000000
636549.000000
637637.000000
638639.000000
639679.000000
640742.000000
641732.000000
642754.000000
643860.000000
644934.000000
645940.000000
647012.000000
648108.000000
649137.000000
650261.000000
651393.000000
652428.000000
653562.000000
654695.000000
655750.000000
656839.000000
657926.000000
658938.000000
660091.000000
661252.000000
662344.000000
663415.000000
664539.000000
665634.000000
666630.000000
667714.000000
668830.000000
669886.000000
670903.000000
672016.000000
673143.000000
674177.000000
675253.000000
676377.000000
677402.000000
678487.000000
679592.000000
680666.000000
681654.000000
682742.000000
683850.000000
684873.000000
685958.000000
687087.000000
688119.000000
689215.000000
690293.000000
691375.000000
692386.000000
693463.000000
694569.000000
695574.000000
696604.000000
697746.000000
698811.000000
699788.000000
700874.000000
701982.000000
702974.000000
703991.000000
705079.000000
706091.000000
707145.000000
708279.000000
709336.000000
710371.000000
711465.000000
712530.000000
713520.000000
714639.000000
715744.000000
716738.000000
717815.000000
718950.000000
720000.000000
721083.000000
722179.000000
723174.000000
724174.000000
725270.000000
726335.000000
727347.000000
728461.000000
729547.000000
730553.000000
731620.000000
732680.000000
733648.000000
734655.000000
735730.000000
736728.000000
737688.000000
738708.000000
739773.000000
740758.000000
741800.000000
742899.000000
743895.000000
744956.000000
746029.000000
747013.000000
748026.000000
749068.000000
750090.000000
751039.000000
752052.000000
753085.000000
754050.000000
755089.000000
756199.000000
757243.000000
758237.000000
759281.000000
760333.000000
761296.000000
762318.000000
763357.000000
764338.000000
765365.000000
766434.000000
767451.000000
768404.000000
769430.000000
770482.000000
771440.000000
772431.000000
773476.000000
774490.000000
775434.000000
776465.000000
777539.000000
778533.000000
779599.000000
780668.000000
781633.000000
782641.000000
783683.000000
784674.000000
785581.000000
786561.000000
787578.000000
788559.000000
789624.000000
790759.000000
791790.000000
792869.000000
793958.000000
794941.000000
795982.000000
797063.000000
798136.000000
799125.000000
800203.000000
801331.000000
802362.000000
803473.000000
804574.000000
805636.000000
806609.000000
807605.000000
808713.000000
809737.000000
810830.000000
811980.000000
813038.000000
814144.000000
815275.000000
816290.000000
817346.000000
818469.000000
819536.000000
820511.000000
821614.000000
822735.000000
823757.000000
824836.000000
825907.000000
826903.000000
827934.000000
829011.000000
830030.000000
831016.000000
832091.000000
833133.000000
834083.000000
835062.000000
836136.000000
837181.000000
838156.000000
839166.000000
840203.000000
841197.000000
842250.000000
843366.000000
844416.000000
845450.000000
846554.000000
847596.000000
848550.000000
849570.000000
850594.000000
851549.000000
852518.000000
853557.000000
854516.000000
855412.000000
856360.000000
857378.000000
858307.000000
859295.000000
860348.000000
861305.000000
862284.000000
863328.000000
864310.000000
865292.000000
866350.000000
867375.000000
868318.000000
869336.000000
870380.000000
871344.000000
872375.000000
873401.000000
874344.000000
875329.000000
876317.000000
877264.000000
878182.000000
879211.000000
880270.000000
881248.000000
882290.000000
883356.000000
884337.000000
885307.000000
886352.000000
887382.000000
888314.000000
889314.000000
890357.000000
891300.000000
892304.000000
893341.000000
894296.000000
895289.000000
896345.000000
897336.000000
898264.000000
899258.000000
900273.000000
901206.000000
902180.000000
903195.000000
904136.000000
905095.000000
906097.000000
907079.000000
907979.000000
908942.000000
909961.000000
910906.000000
911878.000000
912886.000000
913830.000000
914751.000000
915757.000000
916815.000000
917770.000000
918783.000000
919877.000000
920929.000000
921910.000000
922972.000000
924079.000000
925175.000000
926160.000000
927190.000000
928260.000000
929303.000000
930262.000000
931316.000000
932440.000000
933468.000000
934526.000000
935629.000000
936739.000000
937751.000000
938811.000000
939936.000000
940988.000000
942044.000000
943146.000000
944200.000000
945207.000000
946303.000000
947408.000000
948454.000000
949419.000000
950458.000000
951535.000000
952525.000000
953533.000000
954577.000000
955587.000000
956525.000000
957528.000000
958554.000000
959495.000000
960469.000000
961510.000000
962511.000000
963473.000000
964514.000000
965624.000000
966623.000000
967694.000000
968785.000000
969779.000000
970701.000000
971676.000000
972680.000000
973632.000000
974667.000000
975753.000000
976752.000000
977770.000000
978847.000000
979909.000000
980889.000000
981958.000000
983039.000000
984048.000000
985096.000000
986155.000000
987117.000000
988107.000000
989126.000000
990115.000000
991051.000000
992080.000000
993130.000000
994076.000000
995093.000000
996130.000000
997076.000000
998081.000000
999151.000000
1000128.000000
1001168.000000
1002225.000000
1003227.000000
1004253.000000
1005325.000000
1006384.000000
1007385.000000
1008475.000000
1009619.000000
1010679.000000
1011807.000000
1012934.000000
1014015.000000
1015009.000000
1016074.000000
1017158.000000
1018248.000000
1019299.000000
1020400.000000
1021464.000000
1022417.000000
1023333.000000
1024415.000000
1025607.000000
1026644.000000
1027742.000000
1028884.000000
1029974.000000
1030955.000000
1032012.000000
1033077.000000
1034065.000000
1035057.000000
1036114.000000
1037155.000000
1038138.000000
1039172.000000
1040252.000000
1041188.000000
1042125.000000
1043105.000000
1044062.000000
1044971.000000
1045931.000000
1046914.000000
1047904.000000
1048823.000000
1049776.000000
1050768.000000
1051772.000000
1052693.000000
1053667.000000
1054650.000000
1055571.000000
1056474.000000
1057433.000000
1058420.000000
1059343.000000
1060327.000000
1061347.000000
1062377.000000
1063316.000000
1064322.000000
1065333.000000
1066320.000000
1067252.000000
1068265.000000
1069310.000000
1070265.000000
1071242.000000
1072234.000000
1073153.000000
1074046.000000
1074991.000000
1075948.000000
1076861.000000
1077861.000000
1078926.000000
1079894.000000
1080943.000000
1082011.000000
1082979.000000
1083974.000000
1084985.000000
1085930.000000
1086814.000000
1087754.000000
1088746.000000
1089663.000000
1090634.000000
1091651.000000
1092606.000000
1093519.000000
1094497.000000
1095456.000000
1096354.000000
1097275.000000
1098248.000000
1099223.000000
1100163.000000
1101088.000000
1101999.000000
1102867.000000
1103781.000000
1104689.000000
1105577.000000
1106457.000000
1107301.000000
1108092.000000
1108881.000000
1109708.000000
1110665.000000
1111543.000000
1112404.000000
1113381.000000
1114426.000000
1115414.000000
1116428.000000
1117485.000000
1118498.000000
1119425.000000
1120406.000000
1121438.000000
1122444.000000
1123384.000000
1124360.000000
1125413.000000
1126443.000000
1127397.000000
1128401.000000
1129417.000000
1130350.000000
1131350.000000
1132408.000000
1133424.000000
1134390.000000
1135404.000000
1136383.000000
1137289.000000
1138256.000000
1139256.000000
1140192.000000
1141190.000000
1142239.000000
1143255.000000
1144207.000000
1145212.000000
1146231.000000
1147182.000000
1148182.000000
1149229.000000
1150246.000000
1151173.000000
1152185.000000
1153191.000000
1154105.000000
1155051.000000
1156026.000000
1156950.000000
1157913.000000
1158910.000000
1159915.000000
1160846.000000
1161842.000000
1162868.000000
1163819.000000
1164787.000000
1165791.000000
1166795.000000
1167734.000000
1168758.000000
1169798.000000
1170766.000000
1171758.000000
1172747.000000
1173670.000000
1174626.000000
1175673.000000
1176653.000000
1177663.000000
1178744.000000
1179752.000000
1180705.000000
1181742.000000
1182748.000000
1183650.000000
1184582.000000
1185554.000000
1186463.000000
1187450.000000
1188513.000000
1189504.000000
1190427.000000
1191417.000000
1192380.000000
1193279.000000
1194248.000000
1195242.000000
1196162.000000
1197117.000000
1198122.000000
1199076.000000
1199996.000000
1200988.000000
1202017.000000
1202967.000000
1203966.000000
1204986.000000
1205941.000000
1206850.000000
1207824.000000
1208836.000000
1209769.000000
1210737.000000
1211742.000000
1212718.000000
1213629.000000
1214615.000000
1215625.000000
1216558.000000
1217537.000000
1218533.000000
1219502.000000
1220417.000000
1221395.000000
1222398.000000
1223326.000000
1224289.000000
1225283.000000
1226225.000000
1227114.000000
1228072.000000
1229045.000000
1229967.000000
1230942.000000
1231972.000000
1232953.000000
1233852.000000
1234816.000000
1235786.000000
1236694.000000
1237609.000000
1238591.000000
1239557.000000
1240477.000000
1241503.000000
1242551.000000
1243529.000000
1244536.000000
1245557.000000
1246539.000000
1247436.000000
1248405.000000
1249393.000000
1250324.000000
1251265.000000
1252259.000000
1253266.000000
1254208.000000
1255213.000000
1256253.000000
1257241.000000
1258176.000000
1259168.000000
1260200.000000
1261184.000000
1262167.000000
1263185.000000
1264189.000000
1265108.000000
1266082.000000
1267082.000000
1268018.000000
1268905.000000
1269850.000000
1270829.000000
1271769.000000
1272755.000000
1273764.000000
1274724.000000
1275604.000000
1276527.000000
1277484.000000
1278412.000000
1279406.000000
1280460.000000
1281457.000000
1282449.000000
1283497.000000
1284519.000000
1285464.000000
1286464.000000
1287459.000000
1288374.000000
1289332.000000
1290304.000000
1291223.000000
1292207.000000
1293248.000000
1294239.000000
1295206.000000
1296258.000000
1297294.000000
1298233.000000
1299200.000000
1300195.000000
1301136.000000
1302145.000000
1303205.000000
1304253.000000
1305221.000000
1306270.000000
1307298.000000
1308222.000000
1309170.000000
1310159.000000
1311141.000000
1312058.000000
1313070.000000
1314107.000000
1315065.000000
1316082.000000
1317113.000000
1318070.000000
1318963.000000
1319902.000000
1320854.000000
1321765.000000
1322733.000000
1323780.000000
1324813.000000
1325781.000000
1326826.000000
1327873.000000
1328823.000000
1329801.000000
1330796.000000
1331723.000000
1332698.000000
1333693.000000
1334703.000000
1335633.000000
1336623.000000
1337680.000000
1338727.000000
1339677.000000
1340667.000000
1341660.000000
1342609.000000
1343499.000000
1344483.000000
1345522.000000
1346491.000000
1347533.000000
1348644.000000
1349668.000000
1350662.000000
1351704.000000
1352684.000000
1353584.000000
1354540.000000
1355541.000000
1356471.000000
1357424.000000
1358419.000000
1359413.000000
1360339.000000
1361362.000000
1362406.000000
1363359.000000
1364334.000000
1365364.000000
1366381.000000
1367320.000000
1368335.000000
1369386.000000
1370416.000000
1371371.000000
1372394.000000
1373412.000000
1374369.000000
1375275.000000
1376253.000000
1377265.000000
1378206.000000
1379196.000000
1380248.000000
1381296.000000
1382242.000000
1383240.000000
1384249.000000
1385215.000000
1386254.000000
1387380.000000
1388484.000000
1389522.000000
1390622.000000
1391740.000000
1392819.000000
1393784.000000
1394821.000000
1395897.000000
1396946.000000
1397920.000000
1399003.000000
1400113.000000
1401150.000000
1402095.000000
1403147.000000
1404270.000000
1405268.000000
1406265.000000
1407314.000000
1408341.000000
1409282.000000
1410281.000000
1411354.000000
1412421.000000
1413394.000000
1414462.000000
1415577.000000
1416656.000000
1417643.000000
1418699.000000
1419782.000000
1420814.000000
1421830.000000
1422904.000000
1423978.000000
1424983.000000
1426053.000000
1427126.000000
1428095.000000
1429040.000000
1430020.000000
1430976.000000
1431903.000000
1432903.000000
1433949.000000
1434955.000000
1435883.000000
1436856.000000
1437867.000000
1438854.000000
1439781.000000
1440773.000000
1441806.000000
1442823.000000
1443784.000000
1444835.000000
1445909.000000
1446966.000000
1447936.000000
1448975.000000
1450057.000000
1451106.000000
1452074.000000
1453063.000000
1454097.000000
1455150.000000
1456112.000000
1457114.000000
1458185.000000
1459270.000000
1460267.000000
1461291.000000
1462376.000000
1463462.000000
1464447.000000
1465374.000000
1466359.000000
1467391.000000
1468429.000000
1469382.000000
1470370.000000
1471383.000000
1472361.000000
1473256.000000
1474107.000000
1474993.000000
1475998.000000
1476942.000000
1477902.000000
1478932.000000
1479897.000000
1480850.000000
1481868.000000
1482886.000000
1483830.000000
1484776.000000
1485737.000000
1486723.000000
1487650.000000
1488571.000000
1489584.000000
1490630.000000
1491594.000000
1492545.000000
1493542.000000
1494548.000000
1495485.000000
1496442.000000
1497458.000000
1498485.000000
1499444.000000
1500473.000000
1501532.000000
1502509.000000
1503534.000000
1504555.000000
1505507.000000
1506497.000000
1507548.000000
1508563.000000
1509631.000000
1510745.000000
1511809.000000
1512845.000000
1513916.000000
1514978.000000
1515939.000000
1516912.000000
1517938.000000
1518964.000000
1519918.000000
1520997.000000
1522071.000000
1523054.000000
1524116.000000
1525198.000000
1526190.000000
1527190.000000
1528233.000000
1529249.000000
1530198.000000
1531230.000000
1532271.000000
1533224.000000
1534248.000000
1535266.000000
1536203.000000
1537176.000000
1538171.000000
1539097.000000
1540071.000000
1541116.000000
1542149.000000
1543132.000000
1544229.000000
1545308.000000
1546277.000000
1547293.000000
1548302.000000
1549233.000000
1550228.000000
1551245.000000
1552223.000000
1553131.000000
1554132.000000
1555157.000000
1556172.000000
1557110.000000
1558107.000000
1559123.000000
1560058.000000
1561007.000000
1562042.000000
1563092.000000
1564048.000000
1565097.000000
1566129.000000
1567074.000000
1568070.000000
1569115.000000
1570064.000000
1571022.000000
1572008.000000
1572976.000000
1573887.000000
1574911.000000
1575980.000000
1577001.000000
1577938.000000
1578922.000000
1579925.000000
1580892.000000
1581847.000000
1582872.000000
1583867.000000
1584791.000000
1585807.000000
1586830.000000
1587782.000000
1588771.000000
1589774.000000
1590704.000000
1591626.000000
1592627.000000
1593646.000000
1594609.000000
1595671.000000
1596749.000000
1597740.000000
1598720.000000
1599738.000000
1600766.000000
1601715.000000
1602719.000000
1603826.000000
1604891.000000
1605865.000000
1606908.000000
1607948.000000
1608886.000000
1609853.000000
1610855.000000
1611767.000000
1612699.000000
1613703.000000
1614727.000000
1615658.000000
1616642.000000
1617701.000000
1618768.000000
1619747.000000
1620758.000000
1621821.000000
1622852.000000
1623801.000000
1624795.000000
1625832.000000
1626836.000000
1627762.000000
1628799.000000
1629862.000000
1630816.000000
1631799.000000
1632817.000000
1633814.000000
1634725.000000
1635699.000000
1636716.000000
1637671.000000
1638622.000000
1639696.000000
1640778.000000
1641774.000000
1642809.000000
1643861.000000
1644827.000000
1645811.000000
1646864.000000
1647910.000000
1648860.000000
1649872.000000
1650922.000000
1651932.000000
1652869.000000
1653851.000000
1654915.000000
1655976.000000
1656936.000000
1657963.000000
1658995.000000
1659939.000000
1660877.000000
1661873.000000
1662900.000000
1663855.000000
1664874.000000
1665924.000000
1666902.000000
1667851.000000
1668882.000000
1669920.000000
1670877.000000
1671869.000000
1672880.000000
1673848.000000
1674761.000000
1675756.000000
1676789.000000
1677745.000000
1678754.000000
1679793.000000
1680729.000000
1681647.000000
1682623.000000
1683602.000000
1684562.000000
1685466.000000
1686457.000000
1687494.000000
1688449.000000
1689433.000000
1690474.000000
1691471.000000
1692409.000000
1693407.000000
1694399.000000
1695304.000000
1696216.000000
1697166.000000
1698115.000000
1699049.000000
1700072.000000
1701149.000000
1702130.000000
1703166.000000
1704185.000000
1705105.000000
1706033.000000
1706992.000000
1707964.000000
1708873.000000
1709875.000000
1710922.000000
1711879.000000
1712885.000000
1713876.000000
1714790.000000
1715759.000000
1716818.000000
1717862.000000
1718836.000000
1719910.000000
1720933.000000
1721854.000000
1722835.000000
1723842.000000
1724776.000000
1725730.000000
1726739.000000
1727710.000000
1728619.000000
1729617.000000
1730618.000000
1731532.000000
1732528.000000
1733546.000000
1734539.000000
1735466.000000
1736494.000000
1737538.000000
1738485.000000
1739437.000000
1740434.000000
1741428.000000
1742353.000000
1743334.000000
1744397.000000
1745463.000000
1746446.000000
1747514.000000
1748593.000000
1749556.000000
1750531.000000
1751541.000000
1752539.000000
1753469.000000
1754488.000000
1755544.000000
1756598.000000
1757562.000000
1758557.000000
1759606.000000
1760633.000000
1761579.000000
1762555.000000
1763545.000000
1764469.000000
1765438.000000
1766476.000000
1767544.000000
1768551.000000
1769630.000000
1770698.000000
1771656.000000
1772580.000000
1773620.000000
1774676.000000
1775635.000000
1776629.000000
1777660.000000
1778650.000000
1779578.000000
1780614.000000
1781717.000000
1782727.000000
1783752.000000
1784832.000000
1785893.000000
1786848.000000
1787885.000000
1788953.000000
1789935.000000
1790954.000000
1792005.000000
1792965.000000
1793915.000000
1794913.000000
1795910.000000
1796853.000000
