ECG (ms)
456.000000
1240.000000
2033.000000
2809.000000
3569.000000
4323.000000
5080.000000
5816.000000
6570.000000
7329.000000
8063.000000
8805.000000
9569.000000
10336.000000
11081.000000
11839.000000
12612.000000
13378.000000
14155.000000
14936.000000
15712.000000
16459.000000
17203.000000
17959.000000
18742.000000
19507.000000
20294.000000
21126.000000
21905.000000
22652.000000
23414.000000
24192.000000
24948.000000
25695.000000
26455.000000
27195.000000
27931.000000
28667.000000
29394.000000
30118.000000
30853.000000
31616.000000
32372.000000
33115.000000
33876.000000
34653.000000
35403.000000
36141.000000
36876.000000
37607.000000
38325.000000
39052.000000
39777.000000
40497.000000
41222.000000
41973.000000
42726.000000
43487.000000
44281.000000
45088.000000
45865.000000
46657.000000
47468.000000
48257.000000
49036.000000
49830.000000
50597.000000
51351.000000
52131.000000
52947.000000
53735.000000
54510.000000
55287.000000
56043.000000
56790.000000
57545.000000
58309.000000
59050.000000
59777.000000
60506.000000
61244.000000
61970.000000
62723.000000
63515.000000
64279.000000
65028.000000
65795.000000
66564.000000
67294.000000
68027.000000
68758.000000
69463.000000
70167.000000
70890.000000
71629.000000
72366.000000
73150.000000
73987.000000
74774.000000
75553.000000
76324.000000
77063.000000
77793.000000
78527.000000
79263.000000
79984.000000
80741.000000
81512.000000
82259.000000
82984.000000
83731.000000
84474.000000
85194.000000
85917.000000
86641.000000
87359.000000
88074.000000
88811.000000
89546.000000
90272.000000
91020.000000
91795.000000
92574.000000
93297.000000
94020.000000
94728.000000
95427.000000
96126.000000
96879.000000
97666.000000
98453.000000
99218.000000
100019.000000
100836.000000
101605.000000
102344.000000
103090.000000
103836.000000
104562.000000
105310.000000
106100.000000
106869.000000
107647.000000
108409.000000
109167.000000
109895.000000
110647.000000
111425.000000
112193.000000
112974.000000
113755.000000
114496.000000
115227.000000
115965.000000
116705.000000
117432.000000
118179.000000
118937.000000
119694.000000
120438.000000
121191.000000
121965.000000
122706.000000
123449.000000
124203.000000
124939.000000
125650.000000
126370.000000
127116.000000
127868.000000
128641.000000
129471.000000
130293.000000
131083.000000
131887.000000
132653.000000
133393.000000
134155.000000
134921.000000
135683.000000
136488.000000
137327.000000
138170.000000
139016.000000
139870.000000
140682.000000
141450.000000
142214.000000
143022.000000
143965.000000
144828.000000
145656.000000
146459.000000
147220.000000
147984.000000
148746.000000
149485.000000
150226.000000
150995.000000
151784.000000
152563.000000
153344.000000
154126.000000
154862.000000
155578.000000
156290.000000
157005.000000
157702.000000
158424.000000
159177.000000
159974.000000
160740.000000
161525.000000
162287.000000
163004.000000
163700.000000
164415.000000
165122.000000
165809.000000
166518.000000
167247.000000
167946.000000
168657.000000
169362.000000
170062.000000
170745.000000
171420.000000
172099.000000
172775.000000
173466.000000
174152.000000
174835.000000
175530.000000
176241.000000
176935.000000
177620.000000
178316.000000
179026.000000
179719.000000
180406.000000
181131.000000
181896.000000
182633.000000
183365.000000
184118.000000
184869.000000
185597.000000
186330.000000
187091.000000
187843.000000
188563.000000
189306.000000
190048.000000
190772.000000
191514.000000
192271.000000
193037.000000
193779.000000
194553.000000
195346.000000
196123.000000
196884.000000
197660.000000
198429.000000
199172.000000
199962.000000
200765.000000
201544.000000
202310.000000
203083.000000
203845.000000
204573.000000
205309.000000
206064.000000
206860.000000
207638.000000
208411.000000
209213.000000
210004.000000
210755.000000
211531.000000
212284.000000
213007.000000
213715.000000
214435.000000
215160.000000
215913.000000
216742.000000
217674.000000
218535.000000
219389.000000
220238.000000
221031.000000
221792.000000
222548.000000
223303.000000
224050.000000
224831.000000
225682.000000
226534.000000
227352.000000
228163.000000
228962.000000
229762.000000
230570.000000
231380.000000
232170.000000
232980.000000
233834.000000
234678.000000
235505.000000
236327.000000
237178.000000
237999.000000
238809.000000
239605.000000
240395.000000
241160.000000
241930.000000
242709.000000
243469.000000
244247.000000
245035.000000
245814.000000
246582.000000
247374.000000
248209.000000
249017.000000
249807.000000
250582.000000
251339.000000
252106.000000
252867.000000
253634.000000
254385.000000
255148.000000
255913.000000
256697.000000
257525.000000
258319.000000
259077.000000
259838.000000
260592.000000
261337.000000
262097.000000
262873.000000
263626.000000
264378.000000
265132.000000
265913.000000
266656.000000
267404.000000
268202.000000
268983.000000
269752.000000
270524.000000
271289.000000
272038.000000
272808.000000
273613.000000
274393.000000
275160.000000
275950.000000
276737.000000
277528.000000
278357.000000
279194.000000
280007.000000
280778.000000
281551.000000
282338.000000
283093.000000
283843.000000
284573.000000
285298.000000
286053.000000
286835.000000
287612.000000
288387.000000
289164.000000
289908.000000
290619.000000
291332.000000
292081.000000
292832.000000
293573.000000
294352.000000
295138.000000
295925.000000
296701.000000
297511.000000
298319.000000
299087.000000
299850.000000
300604.000000
301349.000000
302091.000000
302877.000000
303666.000000
304433.000000
305239.000000
306053.000000
306832.000000
307608.000000
308350.000000
309081.000000
309810.000000
310538.000000
311302.000000
312043.000000
312806.000000
313601.000000
314387.000000
315212.000000
316094.000000
316954.000000
317733.000000
318490.000000
319248.000000
319995.000000
320791.000000
321628.000000
322459.000000
323285.000000
324130.000000
324983.000000
325772.000000
326532.000000
327328.000000
328123.000000
328921.000000
329765.000000
330603.000000
331410.000000
332230.000000
333054.000000
333848.000000
334614.000000
335392.000000
336182.000000
336960.000000
337753.000000
338565.000000
339346.000000
340131.000000
340923.000000
341704.000000
342455.000000
343220.000000
344000.000000
344783.000000
345562.000000
346363.000000
347209.000000
348014.000000
348816.000000
349639.000000
350438.000000
351188.000000
351912.000000
352629.000000
353335.000000
354062.000000
354811.000000
355572.000000
356366.000000
357153.000000
357974.000000
358804.000000
359639.000000
360439.000000
361225.000000
361989.000000
362744.000000
363510.000000
364304.000000
365130.000000
366071.000000
366961.000000
367795.000000
368658.000000
369497.000000
370289.000000
371044.000000
371822.000000
372631.000000
373434.000000
374245.000000
375116.000000
376020.000000
376871.000000
377700.000000
378463.000000
379197.000000
379942.000000
380750.000000
381940.000000
382951.000000
383907.000000
384771.000000
385639.000000
386467.000000
387232.000000
388028.000000
388863.000000
389749.000000
390713.000000
391725.000000
392640.000000
393505.000000
394351.000000
395162.000000
395946.000000
396745.000000
397572.000000
398400.000000
399269.000000
400181.000000
401044.000000
401918.000000
402775.000000
403583.000000
404408.000000
405218.000000
405987.000000
406715.000000
407424.000000
408142.000000
408961.000000
409920.000000
410823.000000
411700.000000
412591.000000
413424.000000
414241.000000
415013.000000
415784.000000
416519.000000
417252.000000
417994.000000
418740.000000
419491.000000
420254.000000
421015.000000
421796.000000
422622.000000
423392.000000
424123.000000
424860.000000
425614.000000
426365.000000
427114.000000
427884.000000
428639.000000
429396.000000
430172.000000
430970.000000
431766.000000
432526.000000
433331.000000
434135.000000
434947.000000
435770.000000
436549.000000
437311.000000
438052.000000
438784.000000
439493.000000
440214.000000
441002.000000
441829.000000
442588.000000
443364.000000
444192.000000
445013.000000
445783.000000
446508.000000
447235.000000
447992.000000
448853.000000
449706.000000
450601.000000
451514.000000
452429.000000
453360.000000
454339.000000
455273.000000
456164.000000
457079.000000
458064.000000
458990.000000
459871.000000
460711.000000
461531.000000
462324.000000
463187.000000
463959.000000
464685.000000
465431.000000
466275.000000
467251.000000
468270.000000
469179.000000
470055.000000
470919.000000
471740.000000
472521.000000
473300.000000
474066.000000
474837.000000
475695.000000
476549.000000
477404.000000
478304.000000
479157.000000
480002.000000
480833.000000
481642.000000
482443.000000
483223.000000
483951.000000
484692.000000
485468.000000
486282.000000
487108.000000
488123.000000
489100.000000
489986.000000
490791.000000
491537.000000
492283.000000
493052.000000
493829.000000
494738.000000
495738.000000
496633.000000
497529.000000
498423.000000
499253.000000
500070.000000
500878.000000
501658.000000
502480.000000
503554.000000
504485.000000
505347.000000
506181.000000
506968.000000
507785.000000
508603.000000
509407.000000
510214.000000
511062.000000
511953.000000
512772.000000
513579.000000
514357.000000
515128.000000
515916.000000
516728.000000
517553.000000
518390.000000
519288.000000
520112.000000
520861.000000
521599.000000
522367.000000
523128.000000
523902.000000
524742.000000
525551.000000
526332.000000
527111.000000
527918.000000
528703.000000
529491.000000
530261.000000
531024.000000
531784.000000
532597.000000
533462.000000
534287.000000
535046.000000
535772.000000
536543.000000
537317.000000
538098.000000
538889.000000
539652.000000
540367.000000
541069.000000
541792.000000
542597.000000
543494.000000
544489.000000
545480.000000
546422.000000
547279.000000
548078.000000
548857.000000
549620.000000
550386.000000
551183.000000
552027.000000
552892.000000
553776.000000
554646.000000
555458.000000
556204.000000
556930.000000
557682.000000
558467.000000
559205.000000
559930.000000
560738.000000
561564.000000
562392.000000
563210.000000
564021.000000
564814.000000
565586.000000
566374.000000
567146.000000
567901.000000
568683.000000
569561.000000
570359.000000
571172.000000
571989.000000
572827.000000
573586.000000
574310.000000
575026.000000
575782.000000
576623.000000
577641.000000
578620.000000
579447.000000
580194.000000
580918.000000
581663.000000
582440.000000
583234.000000
584054.000000
584852.000000
585785.000000
586770.000000
587675.000000
588589.000000
589491.000000
590363.000000
591309.000000
592285.000000
593222.000000
594145.000000
594992.000000
595816.000000
596646.000000
597521.000000
598400.000000
599285.000000
600183.000000
601072.000000
601942.000000
602821.000000
603638.000000
604401.000000
605122.000000
605825.000000
606531.000000
607245.000000
608032.000000
609190.000000
610228.000000
611198.000000
612028.000000
612808.000000
613586.000000
614369.000000
615111.000000
615833.000000
616572.000000
617354.000000
618113.000000
618911.000000
619743.000000
620576.000000
621415.000000
622245.000000
623012.000000
623789.000000
624583.000000
625347.000000
626153.000000
626974.000000
627787.000000
628559.000000
629335.000000
630099.000000
630863.000000
631616.000000
632399.000000
633173.000000
633932.000000
634716.000000
635518.000000
636278.000000
637084.000000
637949.000000
638861.000000
639734.000000
640596.000000
641430.000000
642255.000000
643033.000000
643810.000000
644615.000000
645405.000000
646232.000000
647138.000000
648028.000000
648897.000000
649746.000000
650579.000000
651399.000000
652202.000000
652959.000000
653708.000000
654490.000000
655364.000000
656410.000000
657271.000000
658233.000000
659226.000000
660137.000000
660944.000000
661735.000000
662498.000000
663227.000000
663976.000000
664742.000000
665508.000000
666247.000000
666996.000000
667791.000000
668543.000000
669301.000000
670064.000000
670823.000000
671586.000000
672385.000000
673208.000000
673985.000000
674766.000000
675557.000000
676352.000000
677131.000000
677890.000000
678692.000000
679482.000000
680302.000000
681285.000000
682277.000000
683199.000000
684072.000000
684925.000000
685738.000000
686573.000000
687396.000000
688170.000000
688934.000000
689836.000000
690912.000000
691732.000000
692551.000000
693705.000000
694569.000000
695428.000000
696279.000000
697092.000000
697905.000000
698757.000000
699635.000000
700527.000000
701500.000000
702421.000000
703336.000000
704290.000000
705232.000000
706084.000000
706896.000000
707735.000000
708724.000000
709679.000000
710473.000000
711272.000000
712094.000000
713342.000000
714374.000000
715214.000000
716004.000000
716848.000000
717810.000000
718708.000000
719531.000000
720394.000000
721254.000000
722220.000000
723256.000000
724211.000000
725093.000000
725966.000000
726872.000000
727756.000000
728627.000000
729493.000000
730412.000000
731297.000000
732177.000000
733095.000000
733975.000000
734801.000000
735646.000000
736459.000000
737296.000000
738585.000000
739604.000000
740591.000000
741510.000000
742346.000000
743132.000000
743911.000000
744692.000000
745461.000000
746328.000000
747620.000000
748605.000000
749618.000000
750674.000000
751694.000000
752653.000000
753572.000000
754443.000000
755295.000000
756197.000000
757092.000000
757997.000000
758921.000000
759801.000000
760635.000000
761513.000000
762677.000000
763657.000000
764662.000000
765672.000000
766524.000000
767347.000000
768147.000000
768949.000000
770198.000000
771369.000000
772369.000000
773190.000000
773978.000000
774801.000000
775581.000000
776331.000000
777057.000000
777884.000000
779084.000000
780153.000000
781211.000000
782192.000000
783156.000000
784065.000000
784965.000000
785834.000000
786651.000000
787429.000000
788629.000000
789633.000000
790493.000000
791307.000000
792102.000000
792831.000000
793591.000000
794521.000000
795449.000000
796408.000000
797387.000000
798270.000000
799154.000000
800026.000000
800836.000000
801662.000000
802485.000000
803320.000000
804147.000000
804981.000000
805806.000000
806556.000000
807279.000000
807997.000000
808745.000000
809586.000000
810396.000000
811211.000000
812064.000000
812913.000000
813728.000000
814549.000000
815352.000000
816130.000000
816928.000000
817744.000000
818544.000000
819390.000000
820337.000000
821205.000000
821985.000000
822792.000000
823654.000000
824537.000000
825402.000000
826221.000000
827058.000000
827999.000000
828951.000000
829894.000000
830848.000000
831715.000000
832560.000000
833489.000000
834516.000000
835522.000000
836482.000000
837369.000000
838237.000000
839118.000000
840012.000000
841000.000000
841917.000000
842761.000000
843624.000000
844511.000000
845383.000000
846290.000000
847240.000000
848247.000000
849235.000000
850164.000000
851083.000000
852015.000000
852932.000000
853829.000000
854740.000000
855707.000000
856665.000000
857649.000000
858591.000000
859468.000000
860354.000000
861212.000000
862113.000000
862983.000000
863819.000000
864718.000000
865586.000000
866442.000000
867332.000000
868272.000000
869158.000000
870060.000000
870996.000000
871875.000000
872726.000000
873616.000000
874569.000000
875470.000000
876324.000000
877251.000000
878176.000000
879023.000000
879870.000000
880941.000000
881908.000000
882835.000000
883678.000000
884481.000000
885315.000000
886598.000000
887562.000000
888501.000000
889388.000000
890255.000000
891531.000000
892582.000000
893582.000000
894512.000000
895367.000000
896232.000000
897116.000000
898014.000000
898976.000000
899894.000000
900734.000000
901584.000000
902466.000000
903322.000000
904122.000000
904955.000000
905918.000000
906813.000000
907696.000000
908509.000000
909294.000000
910130.000000
911206.000000
912155.000000
913183.000000
914265.000000
915190.000000
916043.000000
916927.000000
917778.000000
918590.000000
919416.000000
920249.000000
921117.000000
922010.000000
922942.000000
923848.000000
924742.000000
925609.000000
926397.000000
927150.000000
927896.000000
928686.000000
929489.000000
930347.000000
931412.000000
932290.000000
933079.000000
933879.000000
934690.000000
935494.000000
936326.000000
937215.000000
938104.000000
938916.000000
939690.000000
940502.000000
941327.000000
942113.000000
942869.000000
943684.000000
944576.000000
945523.000000
946503.000000
947390.000000
948198.000000
948990.000000
949756.000000
950510.000000
951252.000000
952011.000000
952792.000000
953748.000000
954655.000000
955576.000000
956480.000000
957353.000000
958222.000000
959062.000000
959898.000000
960734.000000
961547.000000
962342.000000
963150.000000
963963.000000
964783.000000
965587.000000
966390.000000
967197.000000
968005.000000
968875.000000
969773.000000
970668.000000
971623.000000
972463.000000
973215.000000
973918.000000
974623.000000
975414.000000
976614.000000
977594.000000
978582.000000
979538.000000
980494.000000
981356.000000
982240.000000
983139.000000
984021.000000
984991.000000
986026.000000
987003.000000
988031.000000
988905.000000
989725.000000
990558.000000
991876.000000
992857.000000
993733.000000
994643.000000
995517.000000
996359.000000
997211.000000
998004.000000
998784.000000
999532.000000
1000380.000000
1001410.000000
1002318.000000
1003228.000000
1004142.000000
1005048.000000
1005964.000000
1006887.000000
1007743.000000
1008559.000000
1009373.000000
1010162.000000
1011043.000000
1011980.000000
1012943.000000
1013857.000000
1014775.000000
1015682.000000
1016540.000000
1017361.000000
1018172.000000
1018998.000000
1019787.000000
1020996.000000
1021887.000000
1022678.000000
1023431.000000
1024268.000000
1025193.000000
1026112.000000
1027099.000000
1028120.000000
1029127.000000
1030159.000000
1031124.000000
1031965.000000
1032796.000000
1033720.000000
1034687.000000
1035623.000000
1036473.000000
1037250.000000
1038020.000000
1038829.000000
1039627.000000
1040567.000000
1041555.000000
1042417.000000
1043259.000000
1044156.000000
1045047.000000
1045977.000000
1046873.000000
1047752.000000
1048571.000000
1049401.000000
1050242.000000
1051102.000000
1051937.000000
1053136.000000
1054081.000000
1054920.000000
1055745.000000
1056584.000000
1057448.000000
1058312.000000
1059209.000000
1060137.000000
1061016.000000
1061859.000000
1062700.000000
1063520.000000
1064382.000000
1065381.000000
1066357.000000
1067187.000000
1068029.000000
1068906.000000
1069874.000000
1070928.000000
1071909.000000
1072864.000000
1073892.000000
1074869.000000
1075808.000000
1076610.000000
1077384.000000
1078202.000000
1079042.000000
1079851.000000
1080671.000000
1081521.000000
1082317.000000
1083089.000000
1084320.000000
1085285.000000
1086258.000000
1087208.000000
1088120.000000
1089030.000000
1089930.000000
1090783.000000
1091672.000000
1092647.000000
1093620.000000
1094547.000000
1095434.000000
1096248.000000
1097007.000000
1097730.000000
1098440.000000
1099148.000000
1099925.000000
1101093.000000
1102189.000000
1103275.000000
1104313.000000
1105282.000000
1106235.000000
1107134.000000
1108009.000000
1108845.000000
1109649.000000
1110523.000000
1111428.000000
1112281.000000
1113101.000000
1113940.000000
1114705.000000
1115428.000000
1116158.000000
1116928.000000
1117835.000000
1118896.000000
1119923.000000
1120832.000000
1121701.000000
1122567.000000
1123402.000000
1124188.000000
1124983.000000
1125794.000000
1126761.000000
1127705.000000
1128603.000000
1129464.000000
1130250.000000
1131053.000000
1131844.000000
1132663.000000
1133478.000000
1134323.000000
1135173.000000
1136034.000000
1136932.000000
1137960.000000
1138844.000000
1139624.000000
1140380.000000
1141142.000000
1141952.000000
1143187.000000
1144353.000000
1145361.000000
1146400.000000
1147407.000000
1148319.000000
1149197.000000
1150096.000000
1150989.000000
1151805.000000
1152541.000000
1153273.000000
1154576.000000
1155585.000000
1156682.000000
1157666.000000
1158690.000000
1159628.000000
1160566.000000
1161462.000000
1162333.000000
1163302.000000
1164379.000000
1165399.000000
1166318.000000
1167162.000000
1168002.000000
1168916.000000
1169791.000000
1170660.000000
1171557.000000
1172517.000000
1173455.000000
1174261.000000
1175012.000000
1175773.000000
1176627.000000
1177837.000000
1178946.000000
1179978.000000
1181011.000000
1181904.000000
1182701.000000
1183483.000000
1184281.000000
1185114.000000
1186373.000000
1187422.000000
1188363.000000
1189258.000000
1190191.000000
1191056.000000
1191928.000000
1192847.000000
1193792.000000
1194734.000000
1195627.000000
1196438.000000
1197228.000000
1198074.000000
1199082.000000
1200072.000000
1201067.000000
1202036.000000
