ECG (ms)
716.000000
1627.000000
2624.000000
3553.000000
4454.000000
5393.000000
6356.000000
7354.000000
8339.000000
9282.000000
10223.000000
11197.000000
12177.000000
13133.000000
14070.000000
15080.000000
16097.000000
17141.000000
18091.000000
19018.000000
19936.000000
20877.000000
21873.000000
22856.000000
23819.000000
24736.000000
25696.000000
26677.000000
27693.000000
28628.000000
29572.000000
30496.000000
31433.000000
32377.000000
33274.000000
34192.000000
35167.000000
36224.000000
37304.000000
38324.000000
39282.000000
40253.000000
41200.000000
42138.000000
43090.000000
44014.000000
44954.000000
45975.000000
47073.000000
48117.000000
49091.000000
50067.000000
51075.000000
52047.000000
52967.000000
53841.000000
54691.000000
55614.000000
56660.000000
57782.000000
58823.000000
59819.000000
60863.000000
61907.000000
62966.000000
63919.000000
64855.000000
65784.000000
66731.000000
67715.000000
68751.000000
69716.000000
70676.000000
71665.000000
72691.000000
73680.000000
74704.000000
75633.000000
76564.000000
77513.000000
78537.000000
79561.000000
80558.000000
81541.000000
82563.000000
83585.000000
84630.000000
85587.000000
86551.000000
87509.000000
88487.000000
89449.000000
90399.000000
91324.000000
92301.000000
93306.000000
94317.000000
95308.000000
96236.000000
97156.000000
98066.000000
99006.000000
99995.000000
100985.000000
102033.000000
103139.000000
104236.000000
105231.000000
106199.000000
107165.000000
108165.000000
109123.000000
110073.000000
110975.000000
111903.000000
112845.000000
113819.000000
114756.000000
115656.000000
116580.000000
117547.000000
118562.000000
119516.000000
120487.000000
121484.000000
122510.000000
123470.000000
124417.000000
125369.000000
126368.000000
127307.000000
128223.000000
129150.000000
130139.000000
131180.000000
132216.000000
133240.000000
134314.000000
135374.000000
136442.000000
137437.000000
138400.000000
139368.000000
140407.000000
141456.000000
142479.000000
143431.000000
144364.000000
145334.000000
146348.000000
147350.000000
148309.000000
149226.000000
150178.000000
151136.000000
152115.000000
153074.000000
154000.000000
154987.000000
156000.000000
157000.000000
157929.000000
158883.000000
159840.000000
160805.000000
161704.000000
162630.000000
163589.000000
164566.000000
165507.000000
166457.000000
167418.000000
168385.000000
169306.000000
170206.000000
171132.000000
172141.000000
173183.000000
174214.000000
175190.000000
176220.000000
177246.000000
178297.000000
179243.000000
180183.000000
181111.000000
182064.000000
183133.000000
184198.000000
185237.000000
186230.000000
187262.000000
188316.000000
189358.000000
190299.000000
191248.000000
192208.000000
193206.000000
194196.000000
195181.000000
196159.000000
197183.000000
198245.000000
199335.000000
200315.000000
201271.000000
202235.000000
203215.000000
204212.000000
205191.000000
206122.000000
207112.000000
208128.000000
209172.000000
210136.000000
211092.000000
212043.000000
213032.000000
214019.000000
215012.000000
215977.000000
217008.000000
218113.000000
219176.000000
220197.000000
221133.000000
222112.000000
223141.000000
224196.000000
225180.000000
226164.000000
227173.000000
228220.000000
229233.000000
230226.000000
231195.000000
232200.000000
233203.000000
234219.000000
235167.000000
236109.000000
237066.000000
238037.000000
239015.000000
239974.000000
240900.000000
241880.000000
242872.000000
243873.000000
244826.000000
245777.000000
246740.000000
247754.000000
248762.000000
249753.000000
250687.000000
251618.000000
252558.000000
253513.000000
254472.000000
255434.000000
256351.000000
257288.000000
258259.000000
259268.000000
260228.000000
261160.000000
262116.000000
263086.000000
264045.000000
264968.000000
265848.000000
266748.000000
267680.000000
268648.000000
269651.000000
270611.000000
271602.000000
272686.000000
273792.000000
274858.000000
275867.000000
276826.000000
277786.000000
278697.000000
279627.000000
280574.000000
281583.000000
282662.000000
283763.000000
284753.000000
285788.000000
286828.000000
287893.000000
288844.000000
289790.000000
290730.000000
291685.000000
292691.000000
293700.000000
294732.000000
295818.000000
296858.000000
297861.000000
298875.000000
299912.000000
300952.000000
301949.000000
302892.000000
303866.000000
304854.000000
305932.000000
306932.000000
307958.000000
309019.000000
310113.000000
311196.000000
312261.000000
313243.000000
314229.000000
315195.000000
316172.000000
317130.000000
318087.000000
319131.000000
320266.000000
321358.000000
322351.000000
323351.000000
324365.000000
325382.000000
326342.000000
327319.000000
328321.000000
329367.000000
330336.000000
331284.000000
332266.000000
333272.000000
334300.000000
335287.000000
336317.000000
337402.000000
338474.000000
339487.000000
340476.000000
341483.000000
342491.000000
343459.000000
344397.000000
345307.000000
346289.000000
347370.000000
348380.000000
349335.000000
350295.000000
351296.000000
352299.000000
353267.000000
354205.000000
355168.000000
356172.000000
357209.000000
358212.000000
359145.000000
360087.000000
361062.000000
362096.000000
363080.000000
364019.000000
364988.000000
365988.000000
367021.000000
368039.000000
369054.000000
370099.000000
371143.000000
372137.000000
373121.000000
374127.000000
375158.000000
376193.000000
377161.000000
378097.000000
379071.000000
380107.000000
381137.000000
382123.000000
383109.000000
384128.000000
385160.000000
386155.000000
387121.000000
388133.000000
389164.000000
390161.000000
391094.000000
392030.000000
392965.000000
393911.000000
394820.000000
395776.000000
396783.000000
397780.000000
398765.000000
399787.000000
400823.000000
401862.000000
402894.000000
403840.000000
404813.000000
405790.000000
406788.000000
407740.000000
408690.000000
409669.000000
410689.000000
411676.000000
412632.000000
413577.000000
414557.000000
415568.000000
416614.000000
417613.000000
418608.000000
419675.000000
420764.000000
421813.000000
422829.000000
423823.000000
424834.000000
425802.000000
426735.000000
427657.000000
428611.000000
429610.000000
430626.000000
431610.000000
432552.000000
433533.000000
434509.000000
435497.000000
436439.000000
437403.000000
438393.000000
439466.000000
440496.000000
441441.000000
442413.000000
443392.000000
444392.000000
445346.000000
446327.000000
447325.000000
448320.000000
449261.000000
450209.000000
451158.000000
452149.000000
453124.000000
454075.000000
455072.000000
456122.000000
457196.000000
458279.000000
459312.000000
460286.000000
461290.000000
462314.000000
463292.000000
464180.000000
465084.000000
466115.000000
467278.000000
468279.000000
469337.000000
470442.000000
471497.000000
472473.000000
473474.000000
474468.000000
475446.000000
476395.000000
477361.000000
478332.000000
479310.000000
480245.000000
481241.000000
482241.000000
483218.000000
484161.000000
485174.000000
486217.000000
487225.000000
488174.000000
489151.000000
490126.000000
491103.000000
492039.000000
492984.000000
493991.000000
495044.000000
496050.000000
497031.000000
498047.000000
499071.000000
500031.000000
500966.000000
501952.000000
502969.000000
503993.000000
504981.000000
505990.000000
507008.000000
507969.000000
508933.000000
509925.000000
510946.000000
511895.000000
512870.000000
513834.000000
514825.000000
515799.000000
516761.000000
517788.000000
518857.000000
519890.000000
520876.000000
521894.000000
522962.000000
524024.000000
525024.000000
526020.000000
527038.000000
528114.000000
529219.000000
530275.000000
531261.000000
532259.000000
533286.000000
534305.000000
535301.000000
536352.000000
537490.000000
538630.000000
539658.000000
540714.000000
541742.000000
542728.000000
543666.000000
544582.000000
545513.000000
546702.000000
547752.000000
548764.000000
549876.000000
551021.000000
552106.000000
553124.000000
554131.000000
555157.000000
556155.000000
557106.000000
558073.000000
559034.000000
560017.000000
560979.000000
561945.000000
562974.000000
564008.000000
564991.000000
565970.000000
566996.000000
568052.000000
569083.000000
570057.000000
571017.000000
571979.000000
572925.000000
573920.000000
574902.000000
576036.000000
577103.000000
578103.000000
579113.000000
580155.000000
581178.000000
582159.000000
583145.000000
584173.000000
585196.000000
586186.000000
587179.000000
588169.000000
589147.000000
590072.000000
590953.000000
591815.000000
592972.000000
594088.000000
595137.000000
596248.000000
597382.000000
598514.000000
599535.000000
600533.000000
601523.000000
602493.000000
603413.000000
604321.000000
605276.000000
606326.000000
607323.000000
608291.000000
609292.000000
610341.000000
611358.000000
612341.000000
613364.000000
614388.000000
615405.000000
616381.000000
617388.000000
618432.000000
619463.000000
620452.000000
621423.000000
622429.000000
623439.000000
624425.000000
625402.000000
626408.000000
627423.000000
628449.000000
629424.000000
630389.000000
631372.000000
632398.000000
633437.000000
634415.000000
635403.000000
636423.000000
637447.000000
638438.000000
639414.000000
640415.000000
641426.000000
642406.000000
643376.000000
644377.000000
645418.000000
646399.000000
647354.000000
648327.000000
649309.000000
650257.000000
651219.000000
652215.000000
653264.000000
654239.000000
655237.000000
656256.000000
657293.000000
658267.000000
659245.000000
660247.000000
661291.000000
662291.000000
663295.000000
664297.000000
665359.000000
666406.000000
667420.000000
668416.000000
669444.000000
670472.000000
671504.000000
672504.000000
673561.000000
674692.000000
675722.000000
676738.000000
677748.000000
678771.000000
679736.000000
680736.000000
681771.000000
682872.000000
683894.000000
684954.000000
686003.000000
687096.000000
688075.000000
689080.000000
690072.000000
691074.000000
692046.000000
693063.000000
694124.000000
695223.000000
696239.000000
697292.000000
698323.000000
699334.000000
700289.000000
701254.000000
702225.000000
703232.000000
704246.000000
705308.000000
706393.000000
707460.000000
708478.000000
709515.000000
710537.000000
711514.000000
712480.000000
713459.000000
714480.000000
715499.000000
716468.000000
717459.000000
718489.000000
719515.000000
720498.000000
721462.000000
722448.000000
723443.000000
724403.000000
725369.000000
726357.000000
727352.000000
728300.000000
729260.000000
730230.000000
731221.000000
732206.000000
733250.000000
734352.000000
735443.000000
736466.000000
737534.000000
738576.000000
739573.000000
740570.000000
741578.000000
742589.000000
743563.000000
744540.000000
745525.000000
746516.000000
747464.000000
748428.000000
749434.000000
750463.000000
751440.000000
752394.000000
753402.000000
754427.000000
755410.000000
756387.000000
757401.000000
758429.000000
759405.000000
760378.000000
761369.000000
762371.000000
763345.000000
764314.000000
765303.000000
766328.000000
767314.000000
768294.000000
769319.000000
770341.000000
771312.000000
772309.000000
773324.000000
774344.000000
775337.000000
776313.000000
777335.000000
778365.000000
779396.000000
780374.000000
781363.000000
782339.000000
783300.000000
784235.000000
785160.000000
786186.000000
787253.000000
788261.000000
789304.000000
790362.000000
791387.000000
792376.000000
793401.000000
794417.000000
795382.000000
796351.000000
797362.000000
798390.000000
799378.000000
800367.000000
801405.000000
802466.000000
803496.000000
804532.000000
805593.000000
806621.000000
807612.000000
808618.000000
809639.000000
810655.000000
811651.000000
812694.000000
813725.000000
814715.000000
815688.000000
816682.000000
817708.000000
818699.000000
819702.000000
820757.000000
821806.000000
822800.000000
823818.000000
824832.000000
825874.000000
826868.000000
827870.000000
828921.000000
829964.000000
830944.000000
831935.000000
832945.000000
833937.000000
834888.000000
835877.000000
836913.000000
837917.000000
838887.000000
839849.000000
840812.000000
841770.000000
842681.000000
843588.000000
844542.000000
845467.000000
846369.000000
847331.000000
848336.000000
849246.000000
850119.000000
850975.000000
851843.000000
852703.000000
853585.000000
854619.000000
855653.000000
856607.000000
857587.000000
858603.000000
859570.000000
860509.000000
861487.000000
862525.000000
863528.000000
864468.000000
865367.000000
866291.000000
867361.000000
868434.000000
869410.000000
870408.000000
871460.000000
872499.000000
873486.000000
874521.000000
875543.000000
876533.000000
877487.000000
878476.000000
879454.000000
880403.000000
881395.000000
882449.000000
883489.000000
884483.000000
885458.000000
886445.000000
887432.000000
888411.000000
889407.000000
890492.000000
891563.000000
892593.000000
893593.000000
894629.000000
895626.000000
896600.000000
897583.000000
898634.000000
899664.000000
900694.000000
901771.000000
902874.000000
903868.000000
904796.000000
905725.000000
906733.000000
907811.000000
