ECG (ms)
151.000000
1036.000000
1890.000000
2757.000000
3645.000000
4517.000000
5354.000000
6187.000000
7040.000000
7872.000000
8693.000000
9534.000000
10397.000000
11239.000000
12095.000000
12987.000000
13879.000000
14726.000000
15569.000000
16421.000000
17270.000000
18082.000000
18900.000000
19746.000000
20608.000000
21444.000000
22264.000000
23097.000000
23964.000000
24819.000000
25669.000000
26543.000000
27428.000000
28274.000000
29115.000000
29971.000000
30829.000000
31652.000000
32453.000000
33258.000000
34087.000000
34911.000000
35730.000000
36570.000000
37431.000000
38268.000000
39092.000000
39925.000000
40790.000000
41651.000000
42487.000000
43332.000000
44197.000000
45041.000000
45866.000000
46706.000000
47569.000000
48427.000000
49276.000000
50141.000000
51018.000000
51870.000000
52719.000000
53576.000000
54449.000000
55302.000000
56159.000000
57033.000000
57896.000000
58715.000000
59543.000000
60381.000000
61202.000000
61993.000000
62807.000000
63662.000000
64494.000000
65311.000000
66138.000000
66970.000000
67774.000000
68574.000000
69395.000000
70242.000000
71068.000000
71897.000000
72747.000000
73621.000000
74461.000000
75298.000000
76138.000000
76980.000000
77789.000000
78602.000000
79439.000000
80290.000000
81108.000000
81927.000000
82763.000000
83614.000000
84439.000000
85260.000000
86122.000000
87010.000000
87870.000000
88729.000000
89605.000000
90485.000000
91324.000000
92161.000000
93009.000000
93878.000000
94700.000000
95526.000000
96368.000000
97229.000000
98063.000000
98912.000000
99794.000000
100696.000000
101564.000000
102426.000000
103306.000000
104192.000000
105040.000000
105877.000000
106728.000000
107591.000000
108442.000000
109278.000000
110125.000000
110995.000000
111853.000000
112676.000000
113509.000000
114376.000000
115239.000000
116067.000000
116912.000000
117800.000000
118670.000000
119503.000000
120337.000000
121198.000000
122080.000000
122941.000000
123825.000000
124730.000000
125626.000000
126490.000000
127345.000000
128225.000000
129104.000000
129966.000000
130847.000000
131735.000000
132619.000000
133477.000000
134322.000000
135184.000000
136046.000000
136887.000000
137740.000000
138611.000000
139495.000000
140352.000000
141220.000000
142107.000000
142990.000000
143842.000000
144704.000000
145588.000000
146480.000000
147319.000000
148152.000000
148999.000000
149871.000000
150727.000000
151598.000000
152495.000000
153403.000000
154291.000000
155152.000000
156002.000000
156854.000000
157693.000000
158534.000000
159395.000000
160270.000000
161136.000000
161962.000000
162794.000000
163640.000000
164504.000000
165349.000000
166160.000000
166974.000000
167800.000000
168625.000000
169447.000000
170281.000000
171136.000000
171951.000000
172749.000000
173555.000000
174370.000000
175172.000000
175952.000000
176745.000000
177555.000000
178351.000000
179122.000000
179909.000000
180714.000000
181519.000000
182306.000000
183104.000000
183917.000000
184740.000000
185537.000000
186351.000000
187189.000000
188043.000000
188858.000000
189666.000000
190492.000000
191340.000000
192159.000000
192982.000000
193826.000000
194680.000000
195502.000000
196324.000000
197158.000000
198004.000000
198822.000000
199645.000000
200472.000000
201310.000000
202124.000000
202938.000000
203774.000000
204625.000000
205454.000000
206260.000000
207068.000000
207898.000000
208742.000000
209559.000000
210397.000000
211259.000000
212128.000000
212970.000000
213821.000000
214697.000000
215579.000000
216436.000000
217293.000000
218157.000000
219035.000000
219884.000000
220718.000000
221562.000000
222428.000000
223281.000000
224129.000000
225005.000000
225897.000000
226768.000000
227618.000000
228471.000000
229351.000000
230208.000000
231048.000000
231908.000000
232725.000000
233468.000000
234196.000000
234941.000000
235717.000000
236528.000000
237330.000000
238128.000000
238934.000000
239758.000000
240555.000000
241349.000000
242165.000000
242996.000000
243817.000000
244639.000000
245477.000000
246344.000000
247215.000000
248072.000000
248933.000000
249809.000000
250668.000000
251511.000000
252367.000000
253251.000000
254126.000000
254966.000000
255813.000000
256688.000000
257567.000000
258399.000000
259243.000000
260133.000000
261041.000000
261940.000000
262853.000000
263776.000000
264706.000000
265603.000000
266487.000000
267371.000000
268263.000000
269110.000000
269924.000000
270750.000000
271612.000000
272489.000000
273339.000000
274192.000000
275063.000000
275944.000000
276802.000000
277642.000000
278500.000000
279386.000000
280283.000000
281150.000000
282038.000000
282951.000000
283871.000000
284760.000000
285632.000000
286516.000000
287406.000000
288293.000000
289142.000000
289980.000000
290842.000000
291719.000000
292562.000000
293403.000000
294254.000000
295118.000000
295955.000000
296784.000000
297628.000000
298475.000000
299299.000000
300096.000000
300926.000000
301791.000000
302638.000000
303450.000000
304269.000000
305106.000000
305956.000000
306767.000000
307568.000000
308389.000000
309221.000000
310037.000000
310833.000000
311641.000000
312469.000000
313276.000000
314077.000000
314889.000000
315733.000000
316562.000000
317362.000000
318185.000000
319039.000000
319894.000000
320721.000000
321565.000000
322427.000000
323302.000000
324153.000000
325017.000000
325917.000000
326832.000000
327719.000000
328590.000000
329474.000000
330367.000000
331250.000000
332104.000000
332975.000000
333881.000000
334781.000000
335642.000000
336474.000000
337303.000000
338145.000000
338977.000000
339859.000000
340790.000000
341723.000000
342627.000000
343520.000000
344394.000000
345246.000000
346069.000000
346918.000000
347827.000000
348756.000000
349647.000000
350536.000000
351426.000000
352323.000000
353192.000000
354054.000000
354945.000000
355864.000000
356771.000000
357641.000000
358512.000000
359382.000000
360225.000000
361023.000000
361821.000000
362632.000000
363486.000000
364362.000000
365232.000000
366106.000000
366979.000000
367809.000000
368627.000000
369445.000000
370243.000000
371016.000000
371807.000000
372613.000000
373432.000000
374225.000000
375031.000000
375858.000000
376698.000000
377512.000000
378316.000000
379140.000000
379979.000000
380788.000000
381603.000000
382361.000000
383086.000000
383830.000000
384585.000000
385355.000000
386153.000000
386977.000000
387795.000000
388586.000000
389392.000000
390205.000000
391015.000000
391815.000000
392625.000000
393467.000000
394300.000000
395100.000000
395901.000000
396717.000000
397559.000000
398404.000000
399275.000000
400161.000000
401047.000000
401899.000000
402737.000000
403597.000000
404473.000000
405334.000000
406197.000000
407084.000000
407990.000000
408873.000000
409715.000000
410534.000000
411348.000000
412143.000000
412957.000000
413820.000000
414717.000000
415587.000000
416437.000000
417292.000000
418162.000000
418999.000000
419840.000000
420699.000000
421577.000000
422412.000000
423230.000000
424069.000000
424937.000000
425801.000000
426670.000000
427553.000000
428452.000000
429328.000000
430199.000000
431078.000000
431968.000000
432809.000000
433644.000000
434502.000000
435382.000000
436257.000000
437134.000000
438034.000000
438936.000000
439816.000000
440679.000000
441569.000000
442476.000000
443358.000000
444207.000000
445064.000000
445945.000000
446827.000000
447673.000000
448510.000000
449352.000000
450218.000000
451073.000000
451909.000000
452769.000000
453656.000000
454550.000000
455423.000000
456299.000000
457182.000000
458052.000000
458896.000000
459771.000000
460643.000000
461497.000000
462326.000000
463164.000000
464022.000000
464878.000000
465702.000000
466540.000000
467400.000000
468266.000000
469111.000000
469972.000000
470861.000000
471746.000000
472598.000000
473456.000000
474331.000000
475219.000000
476115.000000
476992.000000
477881.000000
478783.000000
479676.000000
480532.000000
481389.000000
482271.000000
483165.000000
484027.000000
484882.000000
485756.000000
486633.000000
487486.000000
488330.000000
489189.000000
490049.000000
490892.000000
491780.000000
492703.000000
493632.000000
494498.000000
495339.000000
496172.000000
496981.000000
497769.000000
498578.000000
499437.000000
500340.000000
501223.000000
502143.000000
503053.000000
503923.000000
504742.000000
505568.000000
506401.000000
507229.000000
508079.000000
508982.000000
509917.000000
510827.000000
511700.000000
512575.000000
513466.000000
514333.000000
515200.000000
516098.000000
517020.000000
517929.000000
518792.000000
519648.000000
520530.000000
521417.000000
522290.000000
523216.000000
524151.000000
525091.000000
525991.000000
526878.000000
527762.000000
528661.000000
529525.000000
530350.000000
531180.000000
532044.000000
532907.000000
533765.000000
534640.000000
535542.000000
536411.000000
537268.000000
538156.000000
539056.000000
539919.000000
540736.000000
541548.000000
542398.000000
543277.000000
544146.000000
545039.000000
545962.000000
546907.000000
547827.000000
548709.000000
549603.000000
550508.000000
551384.000000
552262.000000
553170.000000
554121.000000
555051.000000
555921.000000
556777.000000
557655.000000
558515.000000
559368.000000
560252.000000
561156.000000
562054.000000
562959.000000
563872.000000
564803.000000
565702.000000
566607.000000
567493.000000
568368.000000
569194.000000
570010.000000
570861.000000
571767.000000
572674.000000
573582.000000
574499.000000
575412.000000
576303.000000
577169.000000
578026.000000
578888.000000
579732.000000
580580.000000
581465.000000
582390.000000
583302.000000
584210.000000
585140.000000
586052.000000
586954.000000
587844.000000
588741.000000
589643.000000
590511.000000
591329.000000
592149.000000
593007.000000
593899.000000
594776.000000
595661.000000
596589.000000
597501.000000
598375.000000
599216.000000
600079.000000
600975.000000
601859.000000
602745.000000
603657.000000
604568.000000
605450.000000
606287.000000
607137.000000
608016.000000
608906.000000
609776.000000
610677.000000
611582.000000
612497.000000
613378.000000
614254.000000
615134.000000
616012.000000
616872.000000
617692.000000
618514.000000
619373.000000
620247.000000
621113.000000
621986.000000
622906.000000
623827.000000
624721.000000
625588.000000
626432.000000
627270.000000
628094.000000
628918.000000
629764.000000
630620.000000
631458.000000
632278.000000
633095.000000
633918.000000
634731.000000
635516.000000
636314.000000
637121.000000
637940.000000
638686.000000
639393.000000
640106.000000
640836.000000
641599.000000
642374.000000
643135.000000
643911.000000
644691.000000
645477.000000
646241.000000
647013.000000
647799.000000
648610.000000
649409.000000
650190.000000
650979.000000
651798.000000
652615.000000
653414.000000
654221.000000
655057.000000
655925.000000
656786.000000
657663.000000
658536.000000
659409.000000
660255.000000
661066.000000
661880.000000
662716.000000
663558.000000
664393.000000
665227.000000
666092.000000
666960.000000
667810.000000
668648.000000
669495.000000
670339.000000
671143.000000
671912.000000
672695.000000
673527.000000
674352.000000
675150.000000
675965.000000
676797.000000
677619.000000
678414.000000
679208.000000
680014.000000
680805.000000
681569.000000
682348.000000
683148.000000
683956.000000
684737.000000
685516.000000
686313.000000
687116.000000
687906.000000
688705.000000
689528.000000
690346.000000
691126.000000
691903.000000
692686.000000
693485.000000
694268.000000
695043.000000
695827.000000
696603.000000
697365.000000
698115.000000
698879.000000
699661.000000
700455.000000
701225.000000
702008.000000
702798.000000
703590.000000
704367.000000
705154.000000
705958.000000
706745.000000
707508.000000
708281.000000
709052.000000
709804.000000
710553.000000
711317.000000
712099.000000
712868.000000
713633.000000
714418.000000
715217.000000
716005.000000
716779.000000
717575.000000
718387.000000
719206.000000
720004.000000
720812.000000
721634.000000
722448.000000
723224.000000
724014.000000
724813.000000
725619.000000
726414.000000
727236.000000
728098.000000
728971.000000
729804.000000
730635.000000
731473.000000
732292.000000
733085.000000
733892.000000
734725.000000
735573.000000
736379.000000
737179.000000
737986.000000
738795.000000
739590.000000
740386.000000
741208.000000
742069.000000
742944.000000
743792.000000
744662.000000
745529.000000
746356.000000
747151.000000
747966.000000
748833.000000
749701.000000
750535.000000
751385.000000
752262.000000
753132.000000
753986.000000
754854.000000
755746.000000
756617.000000
757475.000000
758354.000000
759248.000000
760119.000000
760966.000000
761824.000000
762691.000000
763531.000000
764360.000000
765211.000000
766099.000000
766971.000000
767813.000000
768677.000000
769551.000000
770402.000000
771209.000000
772000.000000
772793.000000
773584.000000
774353.000000
775143.000000
775966.000000
776814.000000
777639.000000
778461.000000
779290.000000
780135.000000
780947.000000
781772.000000
782615.000000
783471.000000
784296.000000
785124.000000
785968.000000
786824.000000
787658.000000
788468.000000
789301.000000
790168.000000
791038.000000
791893.000000
792744.000000
793623.000000
794487.000000
795321.000000
796179.000000
797054.000000
797937.000000
798801.000000
799668.000000
800565.000000
801488.000000
802389.000000
803254.000000
804119.000000
805015.000000
805922.000000
806796.000000
807652.000000
808521.000000
809386.000000
810231.000000
811113.000000
812030.000000
812934.000000
813802.000000
814658.000000
815554.000000
816478.000000
817375.000000
818233.000000
819095.000000
819982.000000
820891.000000
821761.000000
822619.000000
823487.000000
824371.000000
825247.000000
826115.000000
827000.000000
827904.000000
828800.000000
829702.000000
830582.000000
831440.000000
832245.000000
833043.000000
833860.000000
834714.000000
835577.000000
836461.000000
837397.000000
838323.000000
839199.000000
840063.000000
840949.000000
841861.000000
842752.000000
843600.000000
844466.000000
845375.000000
846302.000000
847197.000000
848088.000000
849007.000000
849927.000000
850817.000000
851674.000000
852512.000000
853365.000000
854206.000000
855043.000000
855906.000000
856813.000000
857706.000000
858570.000000
859433.000000
860292.000000
861111.000000
861898.000000
862691.000000
863496.000000
864289.000000
865054.000000
865837.000000
866650.000000
867439.000000
868199.000000
868972.000000
869763.000000
870565.000000
871337.000000
872121.000000
872927.000000
873751.000000
874576.000000
875382.000000
876225.000000
877095.000000
877970.000000
878820.000000
879676.000000
880539.000000
881399.000000
882219.000000
882998.000000
883789.000000
884620.000000
885500.000000
886368.000000
887240.000000
888126.000000
888995.000000
889821.000000
890651.000000
891512.000000
892420.000000
893299.000000
894189.000000
895098.000000
896025.000000
896929.000000
897821.000000
898719.000000
899608.000000
900470.000000
901349.000000
902266.000000
903204.000000
904092.000000
904913.000000
905739.000000
