ECG (ms)
133.000000
1251.000000
2368.000000
3479.000000
4598.000000
5694.000000
6734.000000
7766.000000
8887.000000
10010.000000
11097.000000
12076.000000
13084.000000
14062.000000
15082.000000
16145.000000
17255.000000
18340.000000
19384.000000
20402.000000
21459.000000
22550.000000
23634.000000
24712.000000
25764.000000
26752.000000
27783.000000
28827.000000
29929.000000
31046.000000
32158.000000
33252.000000
34305.000000
35369.000000
36425.000000
37534.000000
38646.000000
39764.000000
40847.000000
41876.000000
42911.000000
43978.000000
45074.000000
46186.000000
47314.000000
48417.000000
49495.000000
50558.000000
51634.000000
52707.000000
53779.000000
54778.000000
55739.000000
56728.000000
57727.000000
58778.000000
59879.000000
60962.000000
62001.000000
63042.000000
64121.000000
65238.000000
66358.000000
67436.000000
68473.000000
69545.000000
70649.000000
71741.000000
72827.000000
73895.000000
74975.000000
76071.000000
77190.000000
78292.000000
79391.000000
80476.000000
81522.000000
82594.000000
83704.000000
84809.000000
85834.000000
86840.000000
87907.000000
89014.000000
90130.000000
91263.000000
92398.000000
93520.000000
94634.000000
95718.000000
96739.000000
97745.000000
98813.000000
99932.000000
101076.000000
102222.000000
103327.000000
104409.000000
105474.000000
106544.000000
107588.000000
108619.000000
109708.000000
110802.000000
111890.000000
112942.000000
114018.000000
115111.000000
116179.000000
117227.000000
118309.000000
119401.000000
120429.000000
121492.000000
122578.000000
123647.000000
124650.000000
125669.000000
126753.000000
127858.000000
128902.000000
129962.000000
131050.000000
132150.000000
133200.000000
134257.000000
135337.000000
136426.000000
137488.000000
138500.000000
139541.000000
140634.000000
141746.000000
142855.000000
143929.000000
144959.000000
146008.000000
147099.000000
148141.000000
149071.000000
150148.000000
151197.000000
152242.000000
153351.000000
154489.000000
155630.000000
156698.000000
157728.000000
158816.000000
159920.000000
160988.000000
161994.000000
163032.000000
164110.000000
165207.000000
166258.000000
167289.000000
168356.000000
169441.000000
170514.000000
171532.000000
172585.000000
173696.000000
174805.000000
175873.000000
176958.000000
178077.000000
179194.000000
180297.000000
181378.000000
182498.000000
183619.000000
184683.000000
185758.000000
186883.000000
187989.000000
189049.000000
190141.000000
191226.000000
192240.000000
193278.000000
194363.000000
195454.000000
196519.000000
197563.000000
198660.000000
199781.000000
200829.000000
201823.000000
202834.000000
203912.000000
205029.000000
206161.000000
207225.000000
208237.000000
209288.000000
210352.000000
211463.000000
212551.000000
213624.000000
214734.000000
215868.000000
216942.000000
217954.000000
219005.000000
220147.000000
221279.000000
222406.000000
223497.000000
224599.000000
225716.000000
226849.000000
227969.000000
229000.000000
230008.000000
231056.000000
232197.000000
233299.000000
234407.000000
235528.000000
236663.000000
237756.000000
238834.000000
239910.000000
240992.000000
241980.000000
243011.000000
244139.000000
245273.000000
246398.000000
247478.000000
248518.000000
249584.000000
250645.000000
251667.000000
252711.000000
253832.000000
254927.000000
255966.000000
256994.000000
258044.000000
259098.000000
260098.000000
261033.000000
262008.000000
263048.000000
264105.000000
265142.000000
266171.000000
267229.000000
268308.000000
269388.000000
270433.000000
271388.000000
272400.000000
273477.000000
274596.000000
275717.000000
276753.000000
277674.000000
278605.000000
279665.000000
280777.000000
281921.000000
283021.000000
284014.000000
285014.000000
286078.000000
287123.000000
288023.000000
288996.000000
289956.000000
290968.000000
292052.000000
293169.000000
294227.000000
295220.000000
296244.000000
297303.000000
298362.000000
299396.000000
300378.000000
301392.000000
302479.000000
303581.000000
304650.000000
305655.000000
306667.000000
307716.000000
308771.000000
309837.000000
310913.000000
311968.000000
313018.000000
314058.000000
315073.000000
316043.000000
317077.000000
318179.000000
319301.000000
320407.000000
321480.000000
322520.000000
323492.000000
324485.000000
325521.000000
326576.000000
327653.000000
328767.000000
329871.000000
330951.000000
332011.000000
333101.000000
334162.000000
335149.000000
336044.000000
337014.000000
337989.000000
339066.000000
340219.000000
341326.000000
342368.000000
343298.000000
344200.000000
345147.000000
346316.000000
347512.000000
348701.000000
349855.000000
350941.000000
351918.000000
352922.000000
354020.000000
355152.000000
356274.000000
357369.000000
358445.000000
359523.000000
360534.000000
361556.000000
362623.000000
363737.000000
364813.000000
365837.000000
366861.000000
367906.000000
368979.000000
370068.000000
371133.000000
372155.000000
373165.000000
374202.000000
375208.000000
376148.000000
377116.000000
378236.000000
379395.000000
380506.000000
381619.000000
382742.000000
383862.000000
384960.000000
386001.000000
387068.000000
388173.000000
389304.000000
390425.000000
391512.000000
392611.000000
393721.000000
394803.000000
395879.000000
396961.000000
398044.000000
399144.000000
400255.000000
401364.000000
402421.000000
403518.000000
404639.000000
405745.000000
406789.000000
407854.000000
408952.000000
410028.000000
411033.000000
412041.000000
413160.000000
414299.000000
415386.000000
416462.000000
417541.000000
418655.000000
419762.000000
420819.000000
421891.000000
422964.000000
423993.000000
425006.000000
426072.000000
427174.000000
428245.000000
429272.000000
430321.000000
431386.000000
432424.000000
433459.000000
434533.000000
435633.000000
436692.000000
437731.000000
438802.000000
439844.000000
440853.000000
441896.000000
442945.000000
443961.000000
444996.000000
446055.000000
447108.000000
448102.000000
449130.000000
450208.000000
451255.000000
452267.000000
453321.000000
454371.000000
455404.000000
456369.000000
457352.000000
458393.000000
459443.000000
460460.000000
461504.000000
462633.000000
463769.000000
464844.000000
465843.000000
466874.000000
467963.000000
469044.000000
470133.000000
471147.000000
472160.000000
473252.000000
474365.000000
475433.000000
476474.000000
477590.000000
478739.000000
479884.000000
480978.000000
482049.000000
483143.000000
484209.000000
485217.000000
486237.000000
487304.000000
488398.000000
489488.000000
490548.000000
491570.000000
492597.000000
493643.000000
494729.000000
495826.000000
496876.000000
497912.000000
498972.000000
500041.000000
501069.000000
502046.000000
503063.000000
504152.000000
505233.000000
506248.000000
507308.000000
508396.000000
509478.000000
510508.000000
511539.000000
512594.000000
513682.000000
514720.000000
515730.000000
516793.000000
517875.000000
518969.000000
520005.000000
521059.000000
522131.000000
523208.000000
524229.000000
525233.000000
526275.000000
527381.000000
528483.000000
529522.000000
530593.000000
531711.000000
532856.000000
533958.000000
534955.000000
535835.000000
536692.000000
537651.000000
538798.000000
539906.000000
540934.000000
541859.000000
542882.000000
543953.000000
545022.000000
546071.000000
547098.000000
548009.000000
548899.000000
549874.000000
550898.000000
551945.000000
552926.000000
553887.000000
554912.000000
555952.000000
557012.000000
557966.000000
558891.000000
559882.000000
560845.000000
561784.000000
562716.000000
563653.000000
564566.000000
565439.000000
566274.000000
567186.000000
568093.000000
569004.000000
569958.000000
570923.000000
571908.000000
572897.000000
573891.000000
574850.000000
575766.000000
576684.000000
577650.000000
578646.000000
579699.000000
580730.000000
581741.000000
582807.000000
583886.000000
584902.000000
585871.000000
586857.000000
587875.000000
588903.000000
589814.000000
590738.000000
591684.000000
592684.000000
593779.000000
594875.000000
595932.000000
596965.000000
597939.000000
598853.000000
599839.000000
600853.000000
601930.000000
602951.000000
603933.000000
604929.000000
605961.000000
607008.000000
608048.000000
609039.000000
609981.000000
610930.000000
611937.000000
613005.000000
614079.000000
615136.000000
616176.000000
617176.000000
618186.000000
619213.000000
620244.000000
621232.000000
622238.000000
623288.000000
624326.000000
625320.000000
626294.000000
627307.000000
628314.000000
629297.000000
630317.000000
631416.000000
632470.000000
633476.000000
634547.000000
635631.000000
636655.000000
637708.000000
638793.000000
639858.000000
640875.000000
641868.000000
642911.000000
644014.000000
645131.000000
646175.000000
647169.000000
648184.000000
649244.000000
650320.000000
651388.000000
652410.000000
653428.000000
654497.000000
655624.000000
656724.000000
657762.000000
658743.000000
659764.000000
660805.000000
661864.000000
662889.000000
663850.000000
664837.000000
665881.000000
666947.000000
668015.000000
669043.000000
670049.000000
671097.000000
672169.000000
673183.000000
674213.000000
675268.000000
676335.000000
677394.000000
678436.000000
679447.000000
680418.000000
681457.000000
682510.000000
683556.000000
684558.000000
685585.000000
686630.000000
687701.000000
688770.000000
689799.000000
690818.000000
691859.000000
692939.000000
694017.000000
695104.000000
696218.000000
697288.000000
698296.000000
699167.000000
700029.000000
701027.000000
702173.000000
703276.000000
704358.000000
705369.000000
706282.000000
707160.000000
708068.000000
708939.000000
709871.000000
710801.000000
711732.000000
712666.000000
713661.000000
714691.000000
715720.000000
716697.000000
717672.000000
718673.000000
719694.000000
720740.000000
721788.000000
722784.000000
723819.000000
724887.000000
725969.000000
727047.000000
728118.000000
729160.000000
730141.000000
731173.000000
732250.000000
733358.000000
734462.000000
735498.000000
736524.000000
737572.000000
738620.000000
739669.000000
740694.000000
741663.000000
742680.000000
743755.000000
744810.000000
745905.000000
747020.000000
748155.000000
749297.000000
750456.000000
751617.000000
752743.000000
753779.000000
754825.000000
755907.000000
756989.000000
758100.000000
759239.000000
760385.000000
761526.000000
762633.000000
763650.000000
764721.000000
765860.000000
766907.000000
767972.000000
769127.000000
770277.000000
771387.000000
772543.000000
773694.000000
774829.000000
775939.000000
777047.000000
778151.000000
779272.000000
780369.000000
781478.000000
782586.000000
783684.000000
784689.000000
785673.000000
786710.000000
787832.000000
788893.000000
789970.000000
791082.000000
792140.000000
793146.000000
794218.000000
795305.000000
796329.000000
797337.000000
798222.000000
799111.000000
800104.000000
801108.000000
802151.000000
803227.000000
804304.000000
805319.000000
806366.000000
807421.000000
808412.000000
809385.000000
810413.000000
811471.000000
812474.000000
813471.000000
814533.000000
815618.000000
816647.000000
817672.000000
818723.000000
819777.000000
820815.000000
821815.000000
822854.000000
823922.000000
824949.000000
825979.000000
827042.000000
828108.000000
829147.000000
830146.000000
831169.000000
832234.000000
833256.000000
834245.000000
835271.000000
836207.000000
837149.000000
838169.000000
839142.000000
840158.000000
841224.000000
842267.000000
843246.000000
844274.000000
845325.000000
846367.000000
847355.000000
848372.000000
849409.000000
850423.000000
851482.000000
852547.000000
853574.000000
854646.000000
855736.000000
856822.000000
857882.000000
858970.000000
860064.000000
861114.000000
862181.000000
863279.000000
864365.000000
865427.000000
866530.000000
867626.000000
868629.000000
869504.000000
870480.000000
871634.000000
872855.000000
873991.000000
875031.000000
876050.000000
877100.000000
878121.000000
879058.000000
879957.000000
880955.000000
881995.000000
883074.000000
884081.000000
885025.000000
886071.000000
887145.000000
888240.000000
889296.000000
890255.000000
891271.000000
892342.000000
893416.000000
894435.000000
895455.000000
896526.000000
897566.000000
898551.000000
