ECG (ms)
163.000000
888.000000
1646.000000
2405.000000
3165.000000
3919.000000
4641.000000
5411.000000
6174.000000
6939.000000
7672.000000
8400.000000
9162.000000
9914.000000
10664.000000
11375.000000
12106.000000
12839.000000
13578.000000
14325.000000
15037.000000
15786.000000
16530.000000
17276.000000
17999.000000
18699.000000
19438.000000
20166.000000
20896.000000
21604.000000
22321.000000
23048.000000
23782.000000
24501.000000
25207.000000
25923.000000
26640.000000
27358.000000
28052.000000
28747.000000
29457.000000
30172.000000
30906.000000
31620.000000
32327.000000
33049.000000
33765.000000
34477.000000
35175.000000
35873.000000
36580.000000
37302.000000
38031.000000
38744.000000
39472.000000
40208.000000
40943.000000
41661.000000
42366.000000
43101.000000
43833.000000
44565.000000
45272.000000
45984.000000
46716.000000
47438.000000
48147.000000
48843.000000
49555.000000
50272.000000
50995.000000
51704.000000
52407.000000
53123.000000
53841.000000
54567.000000
55288.000000
55996.000000
56712.000000
57434.000000
58160.000000
58885.000000
59593.000000
60302.000000
61026.000000
61762.000000
62511.000000
63235.000000
63981.000000
64712.000000
65442.000000
66152.000000
66861.000000
67592.000000
68337.000000
69089.000000
69822.000000
70549.000000
71303.000000
72061.000000
72824.000000
73556.000000
74287.000000
75048.000000
75801.000000
76517.000000
77270.000000
78025.000000
78790.000000
79520.000000
80255.000000
81023.000000
81788.000000
82555.000000
83286.000000
84033.000000
84808.000000
85586.000000
86369.000000
87121.000000
87869.000000
88646.000000
89446.000000
90237.000000
91026.000000
91782.000000
92541.000000
93342.000000
94118.000000
94907.000000
95681.000000
96445.000000
97232.000000
98021.000000
98803.000000
99562.000000
100312.000000
101087.000000
101884.000000
102677.000000
103441.000000
104189.000000
104982.000000
105775.000000
106561.000000
107322.000000
108061.000000
108812.000000
109557.000000
110308.000000
111035.000000
111763.000000
112513.000000
113294.000000
114084.000000
114837.000000
115570.000000
116328.000000
117100.000000
117861.000000
118614.000000
119350.000000
120094.000000
120864.000000
121588.000000
122293.000000
122994.000000
123711.000000
124424.000000
125143.000000
125877.000000
126613.000000
127359.000000
128080.000000
128801.000000
129540.000000
130272.000000
131014.000000
131745.000000
132473.000000
133229.000000
133996.000000
134768.000000
135515.000000
136249.000000
137017.000000
137771.000000
138529.000000
139272.000000
140014.000000
140788.000000
141560.000000
142338.000000
143076.000000
143825.000000
144611.000000
145389.000000
146163.000000
146905.000000
147650.000000
148431.000000
149204.000000
149983.000000
150727.000000
151473.000000
152259.000000
153030.000000
153802.000000
154539.000000
155277.000000
156046.000000
156804.000000
157571.000000
158316.000000
159048.000000
159820.000000
160587.000000
161355.000000
162093.000000
162838.000000
163612.000000
164363.000000
165089.000000
165812.000000
166554.000000
167296.000000
168043.000000
168799.000000
169523.000000
170270.000000
171016.000000
171761.000000
172512.000000
173238.000000
173964.000000
174705.000000
175446.000000
176192.000000
176931.000000
177655.000000
178402.000000
179151.000000
179899.000000
180631.000000
181353.000000
182089.000000
182821.000000
183561.000000
184304.000000
185038.000000
185800.000000
186573.000000
187350.000000
188116.000000
188857.000000
189615.000000
190386.000000
191148.000000
191883.000000
192619.000000
193377.000000
194121.000000
194865.000000
195596.000000
196337.000000
197085.000000
197842.000000
198598.000000
199328.000000
200081.000000
200832.000000
201586.000000
202338.000000
203077.000000
203836.000000
204598.000000
205360.000000
206105.000000
206849.000000
207615.000000
208373.000000
209138.000000
209873.000000
210629.000000
211387.000000
212158.000000
212928.000000
213672.000000
214428.000000
215184.000000
215942.000000
216710.000000
217450.000000
218214.000000
218973.000000
219743.000000
220510.000000
221254.000000
222016.000000
222784.000000
223553.000000
224299.000000
225020.000000
225742.000000
226430.000000
227119.000000
227817.000000
228530.000000
229232.000000
229950.000000
230690.000000
231451.000000
232217.000000
232971.000000
233699.000000
234428.000000
235164.000000
235914.000000
236696.000000
237476.000000
238222.000000
238970.000000
239758.000000
240541.000000
241318.000000
242087.000000
242851.000000
243576.000000
244297.000000
245011.000000
245760.000000
246514.000000
247278.000000
248017.000000
248736.000000
249458.000000
250187.000000
250924.000000
251661.000000
252394.000000
253134.000000
253874.000000
254612.000000
255326.000000
256052.000000
256808.000000
257565.000000
258331.000000
259107.000000
259860.000000
260584.000000
261322.000000
262089.000000
262864.000000
263650.000000
264447.000000
265226.000000
265971.000000
266756.000000
267528.000000
268298.000000
269063.000000
269819.000000
270543.000000
271319.000000
272088.000000
272862.000000
273641.000000
274428.000000
275202.000000
275941.000000
276721.000000
277489.000000
278262.000000
279039.000000
279795.000000
280519.000000
281237.000000
281972.000000
282706.000000
283465.000000
284243.000000
285025.000000
285812.000000
286589.000000
287355.000000
288115.000000
288878.000000
289639.000000
290396.000000
291141.000000
291865.000000
292634.000000
293361.000000
294061.000000
294744.000000
295423.000000
296131.000000
296864.000000
297635.000000
298403.000000
299164.000000
299897.000000
300658.000000
301420.000000
302184.000000
302955.000000
303716.000000
304460.000000
305196.000000
305976.000000
306759.000000
307553.000000
308339.000000
309130.000000
309883.000000
310634.000000
311404.000000
312182.000000
312955.000000
313728.000000
314473.000000
315213.000000
315969.000000
316761.000000
317550.000000
318340.000000
319114.000000
319878.000000
320644.000000
321420.000000
322218.000000
323001.000000
323785.000000
324536.000000
325276.000000
326036.000000
326810.000000
327575.000000
328318.000000
329053.000000
329787.000000
330549.000000
331319.000000
332110.000000
332895.000000
333664.000000
334411.000000
335198.000000
335953.000000
336708.000000
337494.000000
338269.000000
339042.000000
339817.000000
340562.000000
341342.000000
342116.000000
342883.000000
343651.000000
344397.000000
345138.000000
345916.000000
346686.000000
347457.000000
348226.000000
348954.000000
349679.000000
350447.000000
351219.000000
351998.000000
352782.000000
353543.000000
354283.000000
355031.000000
355802.000000
356561.000000
357327.000000
358095.000000
358832.000000
359575.000000
360352.000000
361123.000000
361900.000000
362676.000000
363432.000000
364176.000000
364956.000000
365735.000000
366517.000000
367303.000000
368075.000000
368833.000000
369616.000000
370416.000000
371217.000000
372011.000000
372761.000000
373510.000000
374300.000000
375089.000000
375883.000000
376677.000000
377428.000000
378195.000000
378985.000000
379725.000000
380453.000000
381175.000000
381881.000000
382604.000000
383325.000000
384064.000000
384820.000000
385592.000000
386360.000000
387095.000000
387832.000000
388566.000000
389283.000000
389980.000000
390676.000000
391392.000000
392133.000000
392872.000000
393621.000000
394387.000000
395166.000000
395959.000000
396731.000000
397469.000000
398260.000000
399039.000000
399826.000000
400608.000000
401353.000000
402111.000000
402904.000000
403691.000000
404477.000000
405244.000000
406002.000000
406808.000000
407596.000000
408383.000000
409165.000000
409917.000000
410715.000000
411501.000000
412288.000000
413077.000000
413829.000000
414630.000000
415429.000000
416230.000000
417000.000000
417764.000000
418555.000000
419370.000000
420173.000000
420938.000000
421699.000000
422506.000000
423292.000000
424075.000000
424828.000000
425584.000000
426377.000000
427159.000000
427950.000000
428701.000000
429482.000000
430262.000000
431055.000000
431839.000000
432590.000000
433385.000000
434173.000000
434957.000000
435712.000000
436457.000000
437236.000000
438013.000000
438793.000000
439564.000000
440304.000000
441090.000000
441865.000000
442642.000000
443381.000000
444143.000000
444912.000000
445679.000000
446441.000000
447179.000000
447946.000000
448719.000000
449498.000000
450272.000000
451014.000000
451758.000000
452539.000000
453307.000000
454076.000000
454821.000000
455554.000000
456316.000000
457066.000000
457808.000000
458554.000000
459331.000000
460103.000000
460863.000000
461598.000000
462342.000000
463087.000000
463838.000000
464588.000000
465315.000000
466052.000000
466819.000000
467631.000000
468447.000000
469261.000000
470027.000000
470771.000000
471538.000000
472281.000000
473010.000000
473750.000000
474508.000000
475240.000000
476028.000000
476811.000000
477605.000000
478395.000000
479135.000000
479876.000000
480656.000000
481420.000000
482181.000000
482934.000000
483655.000000
484382.000000
485155.000000
485928.000000
486720.000000
487516.000000
488305.000000
489059.000000
489856.000000
490634.000000
491414.000000
492186.000000
492953.000000
493686.000000
494459.000000
495223.000000
495992.000000
496763.000000
497500.000000
498255.000000
499017.000000
499776.000000
500535.000000
501280.000000
502022.000000
502776.000000
503532.000000
504290.000000
505038.000000
505796.000000
506556.000000
507304.000000
508027.000000
508733.000000
509445.000000
510163.000000
510922.000000
511705.000000
512461.000000
513209.000000
513995.000000
514784.000000
515576.000000
516336.000000
517085.000000
517832.000000
518574.000000
519320.000000
520061.000000
520789.000000
521521.000000
522273.000000
523036.000000
523804.000000
524558.000000
525300.000000
526061.000000
526822.000000
527583.000000
528341.000000
529080.000000
529824.000000
530566.000000
531303.000000
532049.000000
532787.000000
533529.000000
534270.000000
535000.000000
535698.000000
536403.000000
537118.000000
537829.000000
538551.000000
539287.000000
540036.000000
540786.000000
541522.000000
542241.000000
542972.000000
543707.000000
544455.000000
545195.000000
545930.000000
546693.000000
547477.000000
548261.000000
549017.000000
549753.000000
550515.000000
551277.000000
552060.000000
552855.000000
553631.000000
554407.000000
555212.000000
556020.000000
556821.000000
557599.000000
558396.000000
559201.000000
560020.000000
560831.000000
561623.000000
562427.000000
563232.000000
564043.000000
564851.000000
565652.000000
566436.000000
567229.000000
568027.000000
568835.000000
569604.000000
570357.000000
571141.000000
571918.000000
572681.000000
573439.000000
574216.000000
575008.000000
575796.000000
576573.000000
577328.000000
578097.000000
578865.000000
579635.000000
580414.000000
581194.000000
581940.000000
582731.000000
583512.000000
584305.000000
585093.000000
585841.000000
586612.000000
587380.000000
588145.000000
588908.000000
589640.000000
590402.000000
591164.000000
591935.000000
592701.000000
593422.000000
594149.000000
594917.000000
595687.000000
596463.000000
597240.000000
597982.000000
598746.000000
599512.000000
600285.000000
601055.000000
601828.000000
602588.000000
603322.000000
604107.000000
604884.000000
605665.000000
606455.000000
607214.000000
607966.000000
608760.000000
609540.000000
610311.000000
611083.000000
611838.000000
612596.000000
613349.000000
614082.000000
614798.000000
615516.000000
616239.000000
616953.000000
617658.000000
618368.000000
619097.000000
619834.000000
620549.000000
621304.000000
622066.000000
622831.000000
623574.000000
624322.000000
625081.000000
625839.000000
626602.000000
627368.000000
628126.000000
628853.000000
629622.000000
630382.000000
631140.000000
631907.000000
632689.000000
633471.000000
634247.000000
634985.000000
635725.000000
636493.000000
637248.000000
638012.000000
638779.000000
639527.000000
640259.000000
641056.000000
641852.000000
642620.000000
643344.000000
644113.000000
644881.000000
645655.000000
646432.000000
647196.000000
647929.000000
648707.000000
649475.000000
650264.000000
651069.000000
651826.000000
652635.000000
653434.000000
654222.000000
655003.000000
655739.000000
657308.000000
658044.000000
658751.000000
659468.000000
660208.000000
660988.000000
661805.000000
662638.000000
663421.000000
664250.000000
665069.000000
665876.000000
666674.000000
667438.000000
668183.000000
668954.000000
669701.000000
670450.000000
671214.000000
671958.000000
672698.000000
673456.000000
674214.000000
674990.000000
675755.000000
676496.000000
677278.000000
678037.000000
678805.000000
679562.000000
680286.000000
681011.000000
681753.000000
682504.000000
683283.000000
684057.000000
684805.000000
685537.000000
686299.000000
687034.000000
687743.000000
688443.000000
689131.000000
689810.000000
690482.000000
691166.000000
691869.000000
692584.000000
693301.000000
694012.000000
694706.000000
695408.000000
696119.000000
696867.000000
697651.000000
698422.000000
699170.000000
699942.000000
700716.000000
701495.000000
702261.000000
702988.000000
703745.000000
704495.000000
705251.000000
706008.000000
706741.000000
707530.000000
708302.000000
709081.000000
709824.000000
710582.000000
711362.000000
712128.000000
712867.000000
713602.000000
714362.000000
715119.000000
715883.000000
716644.000000
717376.000000
718157.000000
718926.000000
719698.000000
720438.000000
721190.000000
721971.000000
722740.000000
723508.000000
724240.000000
725004.000000
725762.000000
726526.000000
727280.000000
728005.000000
728775.000000
729535.000000
730297.000000
731045.000000
731796.000000
732568.000000
733334.000000
734088.000000
734810.000000
735555.000000
736290.000000
737036.000000
737802.000000
738554.000000
739284.000000
740080.000000
740868.000000
741660.000000
742439.000000
743176.000000
743953.000000
744719.000000
745486.000000
746251.000000
746978.000000
747712.000000
748453.000000
749252.000000
750078.000000
750880.000000
751676.000000
752449.000000
753205.000000
753920.000000
754663.000000
755374.000000
756087.000000
756830.000000
757588.000000
758327.000000
759045.000000
759827.000000
760612.000000
761397.000000
762161.000000
762888.000000
763654.000000
764404.000000
765152.000000
765897.000000
766612.000000
767366.000000
768110.000000
768855.000000
769600.000000
770315.000000
771072.000000
771816.000000
772556.000000
773289.000000
774015.000000
774756.000000
775499.000000
776254.000000
776996.000000
777720.000000
778457.000000
779195.000000
779942.000000
780677.000000
781402.000000
782133.000000
782857.000000
783569.000000
784255.000000
784933.000000
785617.000000
786305.000000
787005.000000
787721.000000
788464.000000
789233.000000
789981.000000
790714.000000
791462.000000
792208.000000
792966.000000
793702.000000
794437.000000
795205.000000
795969.000000
796725.000000
797454.000000
798179.000000
798941.000000
799683.000000
800428.000000
801173.000000
801923.000000
802663.000000
803373.000000
804116.000000
804830.000000
805552.000000
806284.000000
807020.000000
807748.000000
808488.000000
809234.000000
809986.000000
810738.000000
811482.000000
812206.000000
812968.000000
813712.000000
814462.000000
815210.000000
815934.000000
816656.000000
817403.000000
818154.000000
818916.000000
819662.000000
820396.000000
821150.000000
821916.000000
822683.000000
823458.000000
824227.000000
824970.000000
825708.000000
826463.000000
827222.000000
827997.000000
828783.000000
829532.000000
830278.000000
831065.000000
831838.000000
832607.000000
833369.000000
834096.000000
834831.000000
835598.000000
836360.000000
837135.000000
837903.000000
838642.000000
839434.000000
840214.000000
840986.000000
841724.000000
842466.000000
843235.000000
843991.000000
844742.000000
845462.000000
846214.000000
846970.000000
847727.000000
848485.000000
849232.000000
849966.000000
850722.000000
851481.000000
852258.000000
853055.000000
853840.000000
854614.000000
855410.000000
856207.000000
857004.000000
857788.000000
858540.000000
859287.000000
860034.000000
860784.000000
861544.000000
862304.000000
863051.000000
863818.000000
864589.000000
865372.000000
866133.000000
866875.000000
867641.000000
868403.000000
869186.000000
869957.000000
870704.000000
871470.000000
872241.000000
873022.000000
873811.000000
874581.000000
875341.000000
876115.000000
876901.000000
877659.000000
878411.000000
879154.000000
879908.000000
880644.000000
881395.000000
882137.000000
882872.000000
883660.000000
884470.000000
885303.000000
886113.000000
886889.000000
887678.000000
888457.000000
889248.000000
889999.000000
890744.000000
891519.000000
892288.000000
893068.000000
893843.000000
894592.000000
895383.000000
896166.000000
896945.000000
897707.000000
898468.000000
899251.000000
900019.000000
900763.000000
901505.000000
902278.000000
903038.000000
903778.000000
904502.000000
905220.000000
905935.000000
906663.000000
907412.000000
908172.000000
908911.000000
909625.000000
910328.000000
911041.000000
911762.000000
912491.000000
913215.000000
913921.000000
914628.000000
915339.000000
916071.000000
916823.000000
917577.000000
918306.000000
919055.000000
919815.000000
920569.000000
921317.000000
922054.000000
922778.000000
923485.000000
924190.000000
924924.000000
925702.000000
926516.000000
927344.000000
928172.000000
928974.000000
929748.000000
930532.000000
931303.000000
932066.000000
932808.000000
933584.000000
934343.000000
935119.000000
935909.000000
936696.000000
937451.000000
938225.000000
939007.000000
939783.000000
940561.000000
941316.000000
942058.000000
942820.000000
943573.000000
944349.000000
945133.000000
945911.000000
946661.000000
947450.000000
948226.000000
948999.000000
949755.000000
950494.000000
951231.000000
951992.000000
952765.000000
953554.000000
954339.000000
955088.000000
955831.000000
956589.000000
957325.000000
958081.000000
958847.000000
959589.000000
960349.000000
961115.000000
961885.000000
962650.000000
963384.000000
964121.000000
964881.000000
965622.000000
966369.000000
967104.000000
967826.000000
968576.000000
969332.000000
970107.000000
970885.000000
971636.000000
972420.000000
973197.000000
973969.000000
974739.000000
975482.000000
976223.000000
976994.000000
977756.000000
978536.000000
979321.000000
980080.000000
980836.000000
981617.000000
982379.000000
983142.000000
983879.000000
984609.000000
985349.000000
986096.000000
986858.000000
987618.000000
988364.000000
989140.000000
989910.000000
990685.000000
991449.000000
992180.000000
992943.000000
993690.000000
994436.000000
995187.000000
995934.000000
996687.000000
997452.000000
998225.000000
998994.000000
999731.000000
1000461.000000
1001224.000000
1001981.000000
1002744.000000
1003517.000000
1004261.000000
1005033.000000
1005815.000000
1006606.000000
1007398.000000
1008150.000000
1008891.000000
1009675.000000
1010448.000000
1011227.000000
1012008.000000
1012748.000000
1013492.000000
1014210.000000
1014939.000000
1015650.000000
1016363.000000
1017077.000000
1017820.000000
1018577.000000
1019343.000000
1020112.000000
1020863.000000
1021602.000000
1022370.000000
1023143.000000
1023931.000000
1024717.000000
1025459.000000
1026211.000000
1027007.000000
1027788.000000
1028573.000000
1029347.000000
1030098.000000
1030879.000000
1031662.000000
1032454.000000
1033245.000000
1034014.000000
1034795.000000
1035574.000000
1036365.000000
1037164.000000
1037952.000000
1038732.000000
1039536.000000
1040337.000000
1041124.000000
1041897.000000
1042650.000000
1043424.000000
1044189.000000
1044928.000000
1045664.000000
1046395.000000
1047174.000000
1048005.000000
1048845.000000
1049630.000000
1050424.000000
1051234.000000
1052043.000000
1052828.000000
1053578.000000
1054314.000000
1055080.000000
1055822.000000
1056592.000000
1057374.000000
1058130.000000
1058896.000000
1059690.000000
1060491.000000
1061291.000000
1062089.000000
1062838.000000
1063593.000000
1064371.000000
1065133.000000
1065910.000000
1066675.000000
1067424.000000
1068203.000000
1069014.000000
1069817.000000
1070619.000000
1071375.000000
1072121.000000
1072893.000000
1073677.000000
1074448.000000
1075246.000000
1076039.000000
1076800.000000
1077604.000000
1078378.000000
1079116.000000
1079842.000000
1080541.000000
1081229.000000
1081917.000000
1082630.000000
1083362.000000
1084126.000000
1084887.000000
1085605.000000
1086359.000000
1087107.000000
1087854.000000
1088595.000000
1089315.000000
1090056.000000
1090799.000000
1091567.000000
1092330.000000
1093059.000000
1093833.000000
1094593.000000
1095354.000000
1096105.000000
1096833.000000
1097601.000000
1098361.000000
1099129.000000
1099896.000000
1100672.000000
1101407.000000
1102150.000000
1102934.000000
1103720.000000
1104519.000000
1105323.000000
1106090.000000
1106865.000000
1107672.000000
1108457.000000
1109232.000000
1109981.000000
1110739.000000
1111533.000000
1112318.000000
1113115.000000
1113904.000000
1114664.000000
1115446.000000
1116250.000000
1117044.000000
1117837.000000
1118594.000000
1119365.000000
1120178.000000
1120975.000000
1121778.000000
1122541.000000
1123324.000000
1124137.000000
1124944.000000
1125742.000000
1126505.000000
1127279.000000
1128089.000000
1128892.000000
1129691.000000
1130451.000000
1131218.000000
1132011.000000
1132786.000000
1133553.000000
1134291.000000
1135043.000000
1135837.000000
1136624.000000
1137401.000000
1138142.000000
1138938.000000
1139712.000000
1140486.000000
1141240.000000
1141964.000000
1142727.000000
1143479.000000
1144237.000000
1144997.000000
1145719.000000
1146445.000000
1147177.000000
1147957.000000
1148737.000000
1149520.000000
1150299.000000
1151067.000000
1151834.000000
1152570.000000
1153320.000000
1154083.000000
1154836.000000
1155589.000000
1156347.000000
1157105.000000
1157839.000000
1158598.000000
1159349.000000
1160103.000000
1160861.000000
1161614.000000
1162347.000000
1163100.000000
1163855.000000
1164630.000000
1165400.000000
1166144.000000
1166903.000000
1167664.000000
1168432.000000
1169215.000000
1169979.000000
1170738.000000
1171509.000000
1172270.000000
1173034.000000
1173790.000000
1174541.000000
1175305.000000
1176072.000000
1176844.000000
1177601.000000
1178353.000000
1179118.000000
1179881.000000
1180650.000000
1181400.000000
1182176.000000
1182949.000000
1183728.000000
1184491.000000
1185251.000000
1186040.000000
1186817.000000
1187589.000000
1188336.000000
1189099.000000
1189861.000000
1190628.000000
1191386.000000
1192137.000000
1192909.000000
1193688.000000
1194462.000000
1195213.000000
1195999.000000
1196783.000000
1197570.000000
1198332.000000
1199090.000000
1199878.000000
1200658.000000
1201440.000000
1202177.000000
1202921.000000
1203689.000000
1204447.000000
1205223.000000
1205980.000000
1206774.000000
1207577.000000
1208382.000000
1209157.000000
1209933.000000
1210747.000000
1211554.000000
1212361.000000
1213133.000000
1213929.000000
1214737.000000
1215536.000000
1217118.000000
1217881.000000
1218642.000000
1219392.000000
1220157.000000
1220950.000000
1221811.000000
1222714.000000
1223617.000000
1224512.000000
1225376.000000
1226275.000000
1227172.000000
1228051.000000
1228858.000000
1229668.000000
1230467.000000
1231264.000000
1232058.000000
1232827.000000
1233625.000000
1234426.000000
1235240.000000
1236027.000000
1236785.000000
1237553.000000
1238322.000000
1239072.000000
1239799.000000
1240557.000000
1241328.000000
1242108.000000
1242897.000000
1243670.000000
1244467.000000
1245258.000000
1246040.000000
1246776.000000
1247536.000000
1248293.000000
1249043.000000
1249795.000000
1250527.000000
1251309.000000
1252080.000000
1252855.000000
1253589.000000
1254364.000000
1255126.000000
1255890.000000
1256643.000000
1257372.000000
1258155.000000
1258925.000000
1259688.000000
1260418.000000
1261196.000000
1261955.000000
1262709.000000
1263430.000000
1264178.000000
1264924.000000
1265678.000000
1266430.000000
1267161.000000
1267948.000000
1268726.000000
1269494.000000
1270227.000000
1270998.000000
1271756.000000
1272517.000000
1273266.000000
1273997.000000
1274778.000000
1275558.000000
1276355.000000
1277117.000000
1277900.000000
1278717.000000
1279506.000000
1280290.000000
1281051.000000
1281834.000000
1282608.000000
1283395.000000
1284145.000000
1284914.000000
1285729.000000
1286536.000000
1287324.000000
1288095.000000
1288884.000000
1289673.000000
1290444.000000
1291204.000000
1292009.000000
1292812.000000
1293621.000000
1294388.000000
1295187.000000
1296006.000000
1296790.000000
1297563.000000
1298337.000000
1299129.000000
1299928.000000
1300722.000000
1301498.000000
1302317.000000
1303132.000000
1303942.000000
1304721.000000
1305501.000000
1306306.000000
1307108.000000
1307922.000000
1308711.000000
1309522.000000
1310334.000000
1311152.000000
1311954.000000
1312740.000000
1313559.000000
1314392.000000
1315216.000000
1316009.000000
1316813.000000
1317625.000000
1318425.000000
1319193.000000
1319958.000000
1320748.000000
1321511.000000
1322236.000000
1322973.000000
1323679.000000
1324403.000000
1325160.000000
1325919.000000
1326681.000000
1327419.000000
1328195.000000
1328957.000000
1329715.000000
1330440.000000
1331197.000000
1331961.000000
1332729.000000
1333489.000000
1334227.000000
1335016.000000
1335798.000000
1336580.000000
1337346.000000
1338091.000000
1338888.000000
1339675.000000
1340460.000000
1341216.000000
1342017.000000
1342808.000000
1343597.000000
1344350.000000
1345112.000000
1345911.000000
1346696.000000
1347483.000000
1348237.000000
1349030.000000
1349818.000000
1350614.000000
1351364.000000
1352130.000000
1352939.000000
1353742.000000
1354507.000000
1355277.000000
1356082.000000
1356870.000000
1357618.000000
1358399.000000
1359184.000000
1359984.000000
1360758.000000
1361573.000000
1362378.000000
1363163.000000
1363936.000000
1364723.000000
1365517.000000
1366264.000000
1367007.000000
1367788.000000
1368563.000000
1369330.000000
1370069.000000
1370860.000000
1371641.000000
1372413.000000
1373160.000000
1373955.000000
1374733.000000
1375501.000000
1376239.000000
1377034.000000
1377819.000000
1378567.000000
1379314.000000
1380091.000000
1380866.000000
1381646.000000
1382398.000000
1383198.000000
1383987.000000
1384737.000000
1385487.000000
1386265.000000
1387035.000000
1387796.000000
1388528.000000
1389302.000000
1390077.000000
1390867.000000
1391616.000000
1392396.000000
1393181.000000
1393956.000000
1394689.000000
1395429.000000
1396199.000000
1396965.000000
1397724.000000
1398460.000000
1399255.000000
1400039.000000
1400831.000000
1401580.000000
1402363.000000
1403147.000000
1403930.000000
1404677.000000
1405432.000000
1406220.000000
1406993.000000
1407765.000000
1408509.000000
1409299.000000
1410077.000000
1410850.000000
1411590.000000
1412360.000000
1413119.000000
1413875.000000
1414598.000000
1415360.000000
1416130.000000
1416910.000000
1417675.000000
1418414.000000
1419202.000000
1419974.000000
1420735.000000
1421462.000000
1422231.000000
1422990.000000
1423745.000000
1424465.000000
1425223.000000
1425980.000000
1426740.000000
1427488.000000
1428208.000000
1428967.000000
1429720.000000
1430469.000000
1431194.000000
1431962.000000
1432741.000000
1433546.000000
1434357.000000
1435158.000000
1435921.000000
1436708.000000
1437497.000000
1438271.000000
1439041.000000
1439782.000000
1440564.000000
1441343.000000
1442123.000000
1442863.000000
1443612.000000
1444392.000000
1445164.000000
1445931.000000
1446671.000000
1447452.000000
1448228.000000
1449002.000000
1449753.000000
1450505.000000
1451297.000000
1452077.000000
1452854.000000
1453590.000000
1454367.000000
1455147.000000
1455936.000000
1456695.000000
1457453.000000
1458259.000000
1459057.000000
1459853.000000
1460609.000000
1461373.000000
1462161.000000
1462930.000000
1463663.000000
1464398.000000
1465166.000000
1465928.000000
1466695.000000
1467444.000000
1468244.000000
1469045.000000
1469838.000000
1470589.000000
1471380.000000
1472155.000000
1472926.000000
1473655.000000
1474430.000000
1475201.000000
1475983.000000
1476732.000000
1477517.000000
1478310.000000
1479108.000000
1479860.000000
1480616.000000
1481404.000000
1482182.000000
1482976.000000
1483756.000000
1484569.000000
1485402.000000
1486234.000000
1487029.000000
1487837.000000
1488642.000000
1489431.000000
1490194.000000
1490951.000000
1491746.000000
1492531.000000
1493287.000000
1494056.000000
1494854.000000
1495639.000000
1496395.000000
1497154.000000
1497951.000000
1498740.000000
1499494.000000
1500247.000000
1501040.000000
1501823.000000
1502605.000000
1503353.000000
1504121.000000
1504908.000000
1505691.000000
1506438.000000
1507189.000000
1507975.000000
1508748.000000
1509509.000000
1510239.000000
1511001.000000
1511740.000000
1512445.000000
1513158.000000
1513844.000000
1514534.000000
1515235.000000
1515953.000000
1516707.000000
1517461.000000
1518202.000000
1518969.000000
1519731.000000
1520477.000000
1521197.000000
1521965.000000
1522718.000000
1523474.000000
1524200.000000
1524975.000000
1525748.000000
1526534.000000
1527281.000000
1528040.000000
1528839.000000
1529627.000000
1530404.000000
1531142.000000
1531919.000000
1532690.000000
1533463.000000
1534209.000000
1534964.000000
1535754.000000
1536540.000000
1537320.000000
1538066.000000
1538847.000000
1539629.000000
1540411.000000
1541158.000000
1541917.000000
1542704.000000
1543477.000000
1544222.000000
1544971.000000
1545761.000000
1546542.000000
1547324.000000
1548069.000000
1548827.000000
1549608.000000
1550378.000000
1551145.000000
1551880.000000
1552635.000000
1553409.000000
1554177.000000
1554923.000000
1555660.000000
1556430.000000
1557189.000000
1557952.000000
1558683.000000
1559425.000000
1560201.000000
1560967.000000
1561716.000000
1562438.000000
1563202.000000
1563951.000000
1564707.000000
1565433.000000
1566161.000000
1566938.000000
1567709.000000
1568494.000000
1569244.000000
1569972.000000
1570694.000000
1571429.000000
1572197.000000
1572985.000000
1573784.000000
1574591.000000
1575399.000000
1576186.000000
1576976.000000
1577758.000000
1578527.000000
1579265.000000
1580007.000000
1580775.000000
1581539.000000
1582313.000000
1583093.000000
1583834.000000
1584630.000000
1585421.000000
1586212.000000
1586999.000000
1587758.000000
1588536.000000
1589313.000000
1590093.000000
1590870.000000
1591650.000000
1592394.000000
1593155.000000
1593953.000000
1594734.000000
1595485.000000
1596230.000000
1597013.000000
1597783.000000
1598549.000000
1599320.000000
1600089.000000
1600834.000000
1601585.000000
1602373.000000
1603135.000000
1603880.000000
1604621.000000
1605388.000000
1606198.000000
1607034.000000
1607872.000000
1608668.000000
1609429.000000
1610180.000000
1610951.000000
1611759.000000
1612519.000000
1613311.000000
1614086.000000
1614858.000000
1615629.000000
1616398.000000
1617159.000000
1617912.000000
1618659.000000
1619402.000000
1620129.000000
1620873.000000
1621629.000000
1622412.000000
1623209.000000
1624008.000000
1624762.000000
1625511.000000
1626305.000000
1627080.000000
1627851.000000
1628624.000000
1629358.000000
1630097.000000
1630880.000000
1631673.000000
1632484.000000
1633303.000000
1634070.000000
1634835.000000
1635624.000000
1636391.000000
1637155.000000
1637905.000000
1638625.000000
1639395.000000
1640166.000000
1640945.000000
1641714.000000
1642484.000000
1643266.000000
1644044.000000
1644813.000000
1645549.000000
1646320.000000
1647070.000000
1647826.000000
1648557.000000
1649297.000000
1650076.000000
1650884.000000
1651685.000000
1652432.000000
1653191.000000
1653979.000000
1654750.000000
1655496.000000
1656242.000000
1657025.000000
1657798.000000
1658559.000000
1659298.000000
1660089.000000
1660861.000000
1661629.000000
1662359.000000
1663129.000000
1663894.000000
1664656.000000
1665388.000000
1666130.000000
1666908.000000
1667680.000000
1668444.000000
1669191.000000
1669983.000000
1670770.000000
1671533.000000
1672286.000000
1673072.000000
1673843.000000
1674584.000000
1675332.000000
1676128.000000
1676925.000000
1677715.000000
1678478.000000
1679279.000000
1680095.000000
1680868.000000
1681629.000000
1682413.000000
1683219.000000
1683998.000000
1684769.000000
1685565.000000
1686370.000000
1687156.000000
1687924.000000
1688707.000000
1689508.000000
1690275.000000
1691032.000000
1691806.000000
1692621.000000
1693426.000000
1694197.000000
1694976.000000
1695778.000000
1696574.000000
1697338.000000
1698099.000000
1698885.000000
1699689.000000
1700464.000000
1701231.000000
1702014.000000
1702821.000000
1703608.000000
1704385.000000
1705157.000000
1705951.000000
1706765.000000
1707544.000000
1708314.000000
1709108.000000
1709900.000000
1710686.000000
1711466.000000
1712260.000000
1713063.000000
1713856.000000
1714625.000000
1715420.000000
1716217.000000
1716994.000000
1717757.000000
1718552.000000
1719364.000000
1720139.000000
1720904.000000
1721695.000000
1722504.000000
1723293.000000
1724070.000000
1724873.000000
1725683.000000
1726504.000000
1727290.000000
1728079.000000
1728883.000000
1729679.000000
1730442.000000
1731184.000000
1731930.000000
1732697.000000
1733503.000000
1734309.000000
1735120.000000
1735897.000000
1736670.000000
1737446.000000
1738204.000000
1738941.000000
1739667.000000
1740415.000000
1741153.000000
1741868.000000
1742601.000000
1743340.000000
1744091.000000
1744869.000000
1745620.000000
1746381.000000
1747163.000000
1747955.000000
1748743.000000
1749485.000000
1750261.000000
1751041.000000
1751821.000000
1752572.000000
1753314.000000
1754093.000000
1754865.000000
1755643.000000
1756422.000000
1757163.000000
1757939.000000
1758714.000000
1759490.000000
1760257.000000
1760991.000000
1761774.000000
1762548.000000
1763323.000000
1764047.000000
1764776.000000
1765538.000000
1766321.000000
1767096.000000
1767870.000000
1768636.000000
1769408.000000
1770178.000000
1770954.000000
1771727.000000
1772497.000000
1773264.000000
1774023.000000
1774784.000000
1775540.000000
1776296.000000
1777047.000000
1777773.000000
1778528.000000
1779295.000000
1780076.000000
1780864.000000
1781631.000000
1782392.000000
1783190.000000
1783981.000000
1784761.000000
1785509.000000
1786253.000000
1787029.000000
1787781.000000
1788532.000000
1789265.000000
1790007.000000
1790793.000000
1791587.000000
1792399.000000
1793161.000000
1793927.000000
1794724.000000
1795510.000000
1796294.000000
1797075.000000
1797822.000000
1798616.000000
1799404.000000
1800201.000000
