ECG (ms)
528.000000
1760.000000
2956.000000
4027.000000
5120.000000
6279.000000
7413.000000
8529.000000
9643.000000
10781.000000
11915.000000
13071.000000
14204.000000
15306.000000
16397.000000
17514.000000
18690.000000
19813.000000
20854.000000
21833.000000
22877.000000
24033.000000
25198.000000
26392.000000
27457.000000
28494.000000
29563.000000
30694.000000
31800.000000
32817.000000
33767.000000
34784.000000
35962.000000
37023.000000
37955.000000
38880.000000
40031.000000
41148.000000
42171.000000
43196.000000
44332.000000
45533.000000
46600.000000
47613.000000
48682.000000
49891.000000
51025.000000
52077.000000
53147.000000
54335.000000
55522.000000
56587.000000
57553.000000
58460.000000
59616.000000
60861.000000
62036.000000
62916.000000
63832.000000
65070.000000
66266.000000
67309.000000
68292.000000
69506.000000
70705.000000
71805.000000
72760.000000
73746.000000
74975.000000
76155.000000
77220.000000
78192.000000
79216.000000
80485.000000
81649.000000
82669.000000
83735.000000
84926.000000
86007.000000
86957.000000
87995.000000
89236.000000
90452.000000
91499.000000
92547.000000
93725.000000
94978.000000
96183.000000
97276.000000
98270.000000
99383.000000
100621.000000
101827.000000
102927.000000
103941.000000
105056.000000
106255.000000
107392.000000
108439.000000
109446.000000
110583.000000
111756.000000
112799.000000
113791.000000
115004.000000
116217.000000
117374.000000
118424.000000
119483.000000
120683.000000
121869.000000
122982.000000
124035.000000
125182.000000
126350.000000
127451.000000
128462.000000
129571.000000
130842.000000
131971.000000
133005.000000
134222.000000
135461.000000
136588.000000
137788.000000
139026.000000
140136.000000
141149.000000
142279.000000
143495.000000
144622.000000
145659.000000
146795.000000
147986.000000
149191.000000
150264.000000
151389.000000
152579.000000
153613.000000
154619.000000
155709.000000
156721.000000
157846.000000
159001.000000
160078.000000
161200.000000
162403.000000
163493.000000
164608.000000
165655.000000
166619.000000
167565.000000
168594.000000
169663.000000
170683.000000
171634.000000
172705.000000
173817.000000
174796.000000
175746.000000
176935.000000
178086.000000
179108.000000
180212.000000
181416.000000
182537.000000
183556.000000
184545.000000
185646.000000
186800.000000
187962.000000
189087.000000
190144.000000
191071.000000
192097.000000
193298.000000
194502.000000
195648.000000
196708.000000
197701.000000
198745.000000
199749.000000
200604.000000
201482.000000
202405.000000
203303.000000
204268.000000
205429.000000
206529.000000
207600.000000
208582.000000
209540.000000
210812.000000
212036.000000
213274.000000
214385.000000
215366.000000
216387.000000
217596.000000
218841.000000
220034.000000
221166.000000
222311.000000
223345.000000
224319.000000
225448.000000
226675.000000
227840.000000
228889.000000
230027.000000
231226.000000
232438.000000
233545.000000
234537.000000
235606.000000
236911.000000
238135.000000
239303.000000
240357.000000
241308.000000
242295.000000
243545.000000
244793.000000
245970.000000
247123.000000
248201.000000
249184.000000
250118.000000
251197.000000
252399.000000
253540.000000
254462.000000
255347.000000
256486.000000
257467.000000
258487.000000
259551.000000
260549.000000
261565.000000
262663.000000
263727.000000
264728.000000
265851.000000
266965.000000
267995.000000
269037.000000
270173.000000
271255.000000
272265.000000
273380.000000
274518.000000
275569.000000
276713.000000
277867.000000
278898.000000
279971.000000
281088.000000
282168.000000
283252.000000
284393.000000
285450.000000
286429.000000
287554.000000
288678.000000
289701.000000
290799.000000
291945.000000
293009.000000
293994.000000
294923.000000
296014.000000
297182.000000
298286.000000
299291.000000
300292.000000
301428.000000
302477.000000
303432.000000
304586.000000
305731.000000
306765.000000
307877.000000
309018.000000
310067.000000
311067.000000
312180.000000
313263.000000
314294.000000
315333.000000
316496.000000
317632.000000
318701.000000
319729.000000
320754.000000
321905.000000
322979.000000
323952.000000
324951.000000
326113.000000
327230.000000
328311.000000
329365.000000
330322.000000
331175.000000
332147.000000
333116.000000
334119.000000
335270.000000
336412.000000
337497.000000
338509.000000
339498.000000
340655.000000
341822.000000
342949.000000
344007.000000
344988.000000
346141.000000
347330.000000
348434.000000
349557.000000
350611.000000
351569.000000
352520.000000
353708.000000
354975.000000
356259.000000
357425.000000
358344.000000
359267.000000
360520.000000
361666.000000
362650.000000
363685.000000
364902.000000
366105.000000
367258.000000
368306.000000
369328.000000
370577.000000
371811.000000
372982.000000
374085.000000
375219.000000
376516.000000
377765.000000
378947.000000
380144.000000
381348.000000
382505.000000
383536.000000
384515.000000
385711.000000
386990.000000
388206.000000
389312.000000
390389.000000
391531.000000
392724.000000
393781.000000
394934.000000
396033.000000
397140.000000
398228.000000
399510.000000
400733.000000
401833.000000
403000.000000
404162.000000
405238.000000
406319.000000
407397.000000
408391.000000
409412.000000
410513.000000
411580.000000
412630.000000
413786.000000
414923.000000
415983.000000
417071.000000
418254.000000
419380.000000
420449.000000
421443.000000
422386.000000
423532.000000
424733.000000
425806.000000
426905.000000
428101.000000
429209.000000
430262.000000
431415.000000
432559.000000
433591.000000
434639.000000
435778.000000
436905.000000
437899.000000
439007.000000
440155.000000
441249.000000
442374.000000
443519.000000
444615.000000
445747.000000
446882.000000
447930.000000
448882.000000
449872.000000
451047.000000
452219.000000
453267.000000
454352.000000
455527.000000
456614.000000
457571.000000
458487.000000
459648.000000
460814.000000
461933.000000
462934.000000
463908.000000
465036.000000
466152.000000
467253.000000
468242.000000
469212.000000
470370.000000
471470.000000
472455.000000
473530.000000
474709.000000
475826.000000
476847.000000
477897.000000
479016.000000
480098.000000
481114.000000
482237.000000
483365.000000
484369.000000
485354.000000
486516.000000
487581.000000
488558.000000
489746.000000
490872.000000
491879.000000
493006.000000
494171.000000
495234.000000
496343.000000
497475.000000
498547.000000
499591.000000
500805.000000
501938.000000
502984.000000
503908.000000
504817.000000
506033.000000
507249.000000
508483.000000
509708.000000
510829.000000
511969.000000
513146.000000
514291.000000
515455.000000
516680.000000
517837.000000
518994.000000
520169.000000
521349.000000
522664.000000
523917.000000
525081.000000
526280.000000
527384.000000
528536.000000
529734.000000
530886.000000
532133.000000
533286.000000
534320.000000
535464.000000
536670.000000
537781.000000
538976.000000
540175.000000
541289.000000
542463.000000
543621.000000
544730.000000
545742.000000
546837.000000
548035.000000
549166.000000
550193.000000
551302.000000
552478.000000
553527.000000
554483.000000
555560.000000
556780.000000
557858.000000
558853.000000
560062.000000
561231.000000
562352.000000
563439.000000
564601.000000
565724.000000
566794.000000
567830.000000
568914.000000
570015.000000
571084.000000
572092.000000
573270.000000
574416.000000
575421.000000
576454.000000
577596.000000
578605.000000
579714.000000
580947.000000
582030.000000
583124.000000
584292.000000
585434.000000
586471.000000
587619.000000
588769.000000
589803.000000
590846.000000
592024.000000
593091.000000
594098.000000
595236.000000
596415.000000
597452.000000
598498.000000
599644.000000
600665.000000
601590.000000
602626.000000
603713.000000
604738.000000
605856.000000
606993.000000
608044.000000
609158.000000
610295.000000
611343.000000
612360.000000
613463.000000
614658.000000
615782.000000
616791.000000
617730.000000
618848.000000
620040.000000
621267.000000
622403.000000
623437.000000
624605.000000
625740.000000
626867.000000
628075.000000
629307.000000
630482.000000
631543.000000
632722.000000
633928.000000
635118.000000
636264.000000
637283.000000
638380.000000
639644.000000
640906.000000
642136.000000
643278.000000
644412.000000
645623.000000
646806.000000
647964.000000
649063.000000
650099.000000
651239.000000
652395.000000
653448.000000
654497.000000
655679.000000
656830.000000
657884.000000
658872.000000
659982.000000
661119.000000
662214.000000
663256.000000
664401.000000
665500.000000
666531.000000
667618.000000
668783.000000
669828.000000
670812.000000
671967.000000
673152.000000
674249.000000
675430.000000
676564.000000
677584.000000
678700.000000
679821.000000
680852.000000
681981.000000
683148.000000
684206.000000
685345.000000
686513.000000
687567.000000
688765.000000
689901.000000
690953.000000
692060.000000
693164.000000
694247.000000
695295.000000
696436.000000
697670.000000
698827.000000
699905.000000
701009.000000
702125.000000
703183.000000
704168.000000
705212.000000
706305.000000
707441.000000
708514.000000
709574.000000
710749.000000
711913.000000
712990.000000
714079.000000
715201.000000
716319.000000
717349.000000
718378.000000
719555.000000
720604.000000
721495.000000
722350.000000
723656.000000
724806.000000
725812.000000
726964.000000
728135.000000
729281.000000
730395.000000
731417.000000
732377.000000
733422.000000
734564.000000
735737.000000
736903.000000
737942.000000
739093.000000
740267.000000
741367.000000
742326.000000
743486.000000
744641.000000
745650.000000
746876.000000
748055.000000
749084.000000
750181.000000
751360.000000
752443.000000
753390.000000
754363.000000
755513.000000
756615.000000
757594.000000
758587.000000
759715.000000
760786.000000
761803.000000
762854.000000
763990.000000
765051.000000
766062.000000
767150.000000
768253.000000
769264.000000
770288.000000
771453.000000
772566.000000
773575.000000
774699.000000
775737.000000
776660.000000
777656.000000
778798.000000
779890.000000
781099.000000
782304.000000
783420.000000
784639.000000
785837.000000
786930.000000
787959.000000
789093.000000
790220.000000
791245.000000
792339.000000
793487.000000
794544.000000
795665.000000
796791.000000
797845.000000
798953.000000
800139.000000
801274.000000
802313.000000
803392.000000
804545.000000
805633.000000
806619.000000
807648.000000
808737.000000
809885.000000
811031.000000
812102.000000
813148.000000
814313.000000
815483.000000
816565.000000
817680.000000
818914.000000
820127.000000
821245.000000
822440.000000
823623.000000
824723.000000
825813.000000
826970.000000
828133.000000
829197.000000
830230.000000
831354.000000
832468.000000
833502.000000
834614.000000
835744.000000
836823.000000
837959.000000
839091.000000
840163.000000
841159.000000
842270.000000
843482.000000
844603.000000
845672.000000
846859.000000
848005.000000
849173.000000
850270.000000
851334.000000
852332.000000
853266.000000
854193.000000
855339.000000
856504.000000
857662.000000
858772.000000
859820.000000
860822.000000
861748.000000
862647.000000
863578.000000
864787.000000
865960.000000
867117.000000
868318.000000
869415.000000
870438.000000
871394.000000
872323.000000
873354.000000
874539.000000
875717.000000
876846.000000
877916.000000
878915.000000
879901.000000
881069.000000
882243.000000
883309.000000
884448.000000
885591.000000
886667.000000
887769.000000
888891.000000
889921.000000
890966.000000
892096.000000
893254.000000
894304.000000
895423.000000
896581.000000
897632.000000
898743.000000
899866.000000
900929.000000
902029.000000
903191.000000
904305.000000
905376.000000
906488.000000
907667.000000
908780.000000
909877.000000
911065.000000
912206.000000
913339.000000
914651.000000
915842.000000
916987.000000
918157.000000
919338.000000
920446.000000
921588.000000
922855.000000
924012.000000
925123.000000
926330.000000
927501.000000
928530.000000
929551.000000
930714.000000
931867.000000
932951.000000
934001.000000
935253.000000
936508.000000
937638.000000
938823.000000
940022.000000
941146.000000
942231.000000
943462.000000
944687.000000
945774.000000
946908.000000
948072.000000
949221.000000
950337.000000
951521.000000
952717.000000
953815.000000
954858.000000
956024.000000
957114.000000
958183.000000
959312.000000
960485.000000
961565.000000
962701.000000
963859.000000
964917.000000
966046.000000
967167.000000
968214.000000
969309.000000
970440.000000
971489.000000
972538.000000
973695.000000
974768.000000
975853.000000
976995.000000
978079.000000
979129.000000
980298.000000
981449.000000
982555.000000
983632.000000
984687.000000
985821.000000
986964.000000
988089.000000
989142.000000
990197.000000
991276.000000
992343.000000
993371.000000
994388.000000
995534.000000
996690.000000
997751.000000
998829.000000
999936.000000
1001019.000000
1002052.000000
1003108.000000
1004256.000000
1005358.000000
1006395.000000
1007429.000000
1008572.000000
1009700.000000
1010748.000000
1011853.000000
1013039.000000
1014211.000000
1015378.000000
1016609.000000
1017766.000000
1018920.000000
1020111.000000
1021210.000000
1022243.000000
1023382.000000
1024532.000000
1025620.000000
1026695.000000
1027839.000000
1029018.000000
1030111.000000
1031252.000000
1032404.000000
1033482.000000
1034507.000000
1035626.000000
1036806.000000
1037887.000000
1038939.000000
1040079.000000
1041249.000000
1042321.000000
1043455.000000
1044650.000000
1045735.000000
1046733.000000
1047809.000000
1048925.000000
1050001.000000
1051016.000000
1052139.000000
1053232.000000
1054322.000000
1055332.000000
1056324.000000
1057438.000000
1058585.000000
1059639.000000
1060726.000000
1061871.000000
1062905.000000
1063891.000000
1064955.000000
1066058.000000
1067084.000000
1068146.000000
1069265.000000
1070298.000000
1071282.000000
1072427.000000
1073556.000000
1074650.000000
1075755.000000
1076939.000000
1078005.000000
1079121.000000
1080363.000000
1081488.000000
1082524.000000
1083654.000000
1084809.000000
1085912.000000
1086952.000000
1088102.000000
1089272.000000
1090366.000000
1091549.000000
1092785.000000
1093964.000000
1095068.000000
1096125.000000
1097245.000000
1098414.000000
1099591.000000
1100717.000000
1101833.000000
1102899.000000
1104011.000000
1105243.000000
1106355.000000
1107378.000000
1108477.000000
1109661.000000
1110822.000000
1111892.000000
1113090.000000
1114333.000000
1115451.000000
1116483.000000
1117658.000000
1118949.000000
1120158.000000
1121241.000000
1122286.000000
1123443.000000
1124638.000000
1125774.000000
1126909.000000
1128091.000000
1129244.000000
1130303.000000
1131373.000000
1132559.000000
1133767.000000
1134842.000000
1135967.000000
1137232.000000
1138394.000000
1139489.000000
1140656.000000
1141809.000000
1142881.000000
1144025.000000
1145250.000000
1146386.000000
1147447.000000
1148545.000000
1149706.000000
1150859.000000
1151894.000000
1153019.000000
1154186.000000
1155309.000000
1156335.000000
1157312.000000
1158447.000000
1159592.000000
1160747.000000
1161816.000000
1162910.000000
1164094.000000
1165234.000000
1166331.000000
1167471.000000
1168670.000000
1169794.000000
1170879.000000
1172053.000000
1173250.000000
1174386.000000
1175466.000000
1176458.000000
1177523.000000
1178661.000000
1179764.000000
1180785.000000
1181745.000000
1182733.000000
1183754.000000
1184801.000000
1185813.000000
1186802.000000
1187737.000000
1188856.000000
1190023.000000
1191106.000000
1192078.000000
1193003.000000
1194090.000000
1195208.000000
1196225.000000
1197218.000000
1198382.000000
1199524.000000
1200552.000000
1201506.000000
1202477.000000
1203623.000000
1204787.000000
1205820.000000
1206797.000000
1207888.000000
1209000.000000
1210040.000000
1211047.000000
1212223.000000
1213392.000000
1214492.000000
1215500.000000
1216574.000000
1217702.000000
1218803.000000
1219827.000000
1220844.000000
1221995.000000
1223110.000000
1224133.000000
1225183.000000
1226312.000000
1227419.000000
1228382.000000
1229396.000000
1230515.000000
1231556.000000
1232524.000000
1233590.000000
1234736.000000
1235789.000000
1236759.000000
1237874.000000
1239009.000000
1240042.000000
1241030.000000
1242025.000000
1243149.000000
1244290.000000
1245374.000000
1246391.000000
1247473.000000
1248600.000000
1249717.000000
1250847.000000
1251982.000000
1253042.000000
1253990.000000
1255017.000000
1256157.000000
1257285.000000
1258368.000000
1259511.000000
1260621.000000
1261541.000000
1262444.000000
1263374.000000
1264209.000000
1265333.000000
1266397.000000
1267583.000000
1268746.000000
1269794.000000
1270907.000000
1272065.000000
1273148.000000
1274191.000000
1275328.000000
1276475.000000
1277563.000000
1278551.000000
1279685.000000
1280860.000000
1281999.000000
1283092.000000
1284112.000000
1285181.000000
1286342.000000
1287504.000000
1288579.000000
1289599.000000
1290724.000000
1291834.000000
1292886.000000
1293903.000000
1294900.000000
1296086.000000
1297242.000000
1298420.000000
1299511.000000
1300484.000000
1301531.000000
1302662.000000
1303746.000000
1304733.000000
1305827.000000
1307086.000000
1308283.000000
1309439.000000
1310481.000000
1311612.000000
1312791.000000
1313876.000000
1314933.000000
1316117.000000
1317298.000000
1318370.000000
1319479.000000
1320687.000000
1321835.000000
1322900.000000
1324002.000000
1325170.000000
1326328.000000
1327404.000000
1328487.000000
1329638.000000
1330816.000000
1331977.000000
1333124.000000
1334195.000000
1335169.000000
1336189.000000
1337354.000000
1338493.000000
1339559.000000
1340613.000000
1341749.000000
1342848.000000
1343890.000000
1345055.000000
1346192.000000
1347224.000000
1348095.000000
1348966.000000
1350196.000000
1351236.000000
1352192.000000
1353297.000000
1354465.000000
1355573.000000
1356603.000000
1357555.000000
1358562.000000
1359679.000000
1360800.000000
1361886.000000
1362862.000000
1363808.000000
1364848.000000
1365979.000000
1367045.000000
1368205.000000
1369364.000000
1370351.000000
1371289.000000
1372571.000000
1373858.000000
1375014.000000
1376188.000000
1377449.000000
1378687.000000
1379794.000000
1380890.000000
1382076.000000
1383208.000000
1384256.000000
1385387.000000
1386663.000000
1387828.000000
1388902.000000
1389992.000000
1391168.000000
1392387.000000
1393505.000000
1394592.000000
1395712.000000
1396897.000000
1398067.000000
1399158.000000
1400310.000000
1401429.000000
1402479.000000
1403514.000000
1404649.000000
1405879.000000
1407047.000000
1408118.000000
1409120.000000
1410161.000000
1411296.000000
1412398.000000
1413483.000000
1414477.000000
1415446.000000
1416521.000000
1417681.000000
1418762.000000
1419776.000000
1420842.000000
1421989.000000
1423113.000000
1424197.000000
1425195.000000
1426157.000000
1427221.000000
1428359.000000
1429428.000000
1430408.000000
1431482.000000
1432607.000000
1433694.000000
1434706.000000
1435650.000000
1436649.000000
1437763.000000
1438835.000000
1439860.000000
1440790.000000
1441680.000000
1442547.000000
1443544.000000
1444766.000000
1445985.000000
1447177.000000
1448320.000000
1449375.000000
1450330.000000
1451217.000000
1452141.000000
1453315.000000
1454471.000000
1455592.000000
1456705.000000
1457755.000000
1458742.000000
1459647.000000
1460556.000000
1461645.000000
1462793.000000
1463920.000000
1465004.000000
1466043.000000
1467019.000000
1467986.000000
1469101.000000
1470228.000000
1471358.000000
1472453.000000
1473526.000000
1474627.000000
1475719.000000
1476731.000000
1477667.000000
1478590.000000
1479544.000000
1480784.000000
1481934.000000
1483078.000000
1484175.000000
1485175.000000
1486106.000000
1487228.000000
1488348.000000
1489424.000000
1490446.000000
1491392.000000
1492342.000000
1493551.000000
1494686.000000
1495803.000000
1496815.000000
1497769.000000
1498764.000000
1499935.000000
1501103.000000
1502261.000000
1503323.000000
1504282.000000
1505232.000000
1506421.000000
1507625.000000
1508727.000000
1509829.000000
1510916.000000
1512002.000000
1513052.000000
1514125.000000
1515316.000000
1516502.000000
1517617.000000
1518741.000000
1519820.000000
1520823.000000
1521780.000000
1522784.000000
1523865.000000
1524995.000000
1526051.000000
1526930.000000
1527766.000000
1528596.000000
1529414.000000
1530449.000000
1531361.000000
1532202.000000
1533084.000000
1534093.000000
1535230.000000
1536331.000000
1537378.000000
1538308.000000
1539414.000000
1540564.000000
1541675.000000
1542838.000000
1544119.000000
1545277.000000
1546320.000000
1547526.000000
1548723.000000
1549815.000000
1550820.000000
1552019.000000
1553280.000000
1554493.000000
1555652.000000
1556692.000000
1557618.000000
1558546.000000
1559620.000000
1560934.000000
1562180.000000
1563410.000000
1564623.000000
1565801.000000
1566964.000000
1568060.000000
1569085.000000
1570049.000000
1571008.000000
1572246.000000
1573451.000000
1574649.000000
1575768.000000
1576878.000000
1577965.000000
1579006.000000
1579946.000000
1580845.000000
1582009.000000
1583230.000000
1584442.000000
1585628.000000
1586720.000000
1587662.000000
1588641.000000
1589837.000000
1591014.000000
1592117.000000
1593147.000000
1594062.000000
1594967.000000
1596076.000000
1597433.000000
1598698.000000
1599944.000000
1601199.000000
1602330.000000
1603321.000000
1604250.000000
1605268.000000
1606451.000000
1607590.000000
1608696.000000
1609767.000000
1610774.000000
1611712.000000
1612679.000000
1613894.000000
1615099.000000
1616299.000000
1617425.000000
1618497.000000
1619576.000000
1620672.000000
1621832.000000
1622992.000000
1624131.000000
1625250.000000
1626300.000000
1627298.000000
1628406.000000
1629588.000000
1630735.000000
1631794.000000
1632784.000000
1633817.000000
1634938.000000
1636162.000000
1637275.000000
1638353.000000
1639490.000000
1640661.000000
1641771.000000
1642792.000000
1643854.000000
1644961.000000
1646058.000000
1647070.000000
1648166.000000
1649318.000000
1650358.000000
1651377.000000
1652473.000000
1653610.000000
1654726.000000
1655742.000000
1656682.000000
1657655.000000
1658654.000000
1659680.000000
1660707.000000
1661924.000000
1663069.000000
1664125.000000
1665104.000000
1666193.000000
1667377.000000
1668483.000000
1669533.000000
1670670.000000
1671811.000000
1672877.000000
1673890.000000
1674938.000000
1675990.000000
1677033.000000
1678079.000000
1679038.000000
1679991.000000
1681009.000000
1682138.000000
1683306.000000
1684445.000000
1685493.000000
1686540.000000
1687764.000000
1688948.000000
1690037.000000
1691140.000000
1692296.000000
1693392.000000
1694480.000000
1695683.000000
1696882.000000
1698018.000000
1699065.000000
1700221.000000
1701369.000000
1702428.000000
1703493.000000
1704638.000000
1705765.000000
1706836.000000
1707990.000000
1709131.000000
1710206.000000
1711403.000000
1712526.000000
1713573.000000
1714705.000000
1715865.000000
1716958.000000
1718123.000000
1719251.000000
1720289.000000
1721502.000000
1722620.000000
1723651.000000
1724666.000000
1725801.000000
1726964.000000
1728132.000000
1729258.000000
1730312.000000
1731347.000000
1732475.000000
1733672.000000
1734794.000000
1735820.000000
1736889.000000
1738071.000000
1739246.000000
1740352.000000
1741380.000000
1742320.000000
1743272.000000
1744441.000000
1745637.000000
1746793.000000
1747890.000000
1748894.000000
1749855.000000
1750816.000000
1751662.000000
1752503.000000
1753572.000000
1754583.000000
1755743.000000
1756877.000000
1757920.000000
1759022.000000
1760156.000000
1761214.000000
1762301.000000
1763466.000000
1764621.000000
1765706.000000
1766855.000000
1768095.000000
1769313.000000
1770481.000000
1771573.000000
1772772.000000
1773985.000000
1775192.000000
1776317.000000
1777399.000000
1778467.000000
1779768.000000
1781032.000000
1782269.000000
1783440.000000
1784671.000000
1785960.000000
1787193.000000
1788343.000000
1789426.000000
1790546.000000
1791835.000000
1793069.000000
1794262.000000
1795317.000000
1796348.000000
1797596.000000
