ECG (ms)
163.000000
1304.000000
2366.000000
3458.000000
4581.000000
5621.000000
6671.000000
7733.000000
8730.000000
9734.000000
10831.000000
11945.000000
13043.000000
14047.000000
15044.000000
16013.000000
17034.000000
17989.000000
18970.000000
19838.000000
20612.000000
21428.000000
22359.000000
23424.000000
24449.000000
25364.000000
26258.000000
27048.000000
27872.000000
28844.000000
29942.000000
30958.000000
32016.000000
33081.000000
34101.000000
35072.000000
36047.000000
37013.000000
37919.000000
38827.000000
39738.000000
40632.000000
41492.000000
42446.000000
43432.000000
44431.000000
45491.000000
46559.000000
47648.000000
48758.000000
49858.000000
50872.000000
51796.000000
52792.000000
53896.000000
54897.000000
55881.000000
56892.000000
58086.000000
59327.000000
60516.000000
61644.000000
62761.000000
63945.000000
65125.000000
66255.000000
67299.000000
68383.000000
69668.000000
70968.000000
72105.000000
73233.000000
74411.000000
75647.000000
76788.000000
77926.000000
79116.000000
80323.000000
81500.000000
82690.000000
83930.000000
85172.000000
86339.000000
87480.000000
88694.000000
89901.000000
91099.000000
92212.000000
93389.000000
94547.000000
95700.000000
96827.000000
97920.000000
99021.000000
100160.000000
101328.000000
102404.000000
103495.000000
104618.000000
105781.000000
106929.000000
107958.000000
108999.000000
110058.000000
111244.000000
112346.000000
113471.000000
114677.000000
115917.000000
117089.000000
118250.000000
119471.000000
120692.000000
121894.000000
123076.000000
124189.000000
125335.000000
126524.000000
127695.000000
128860.000000
129968.000000
131099.000000
132263.000000
133414.000000
134460.000000
135463.000000
136579.000000
137756.000000
138891.000000
139913.000000
141016.000000
142140.000000
143281.000000
144331.000000
145389.000000
146475.000000
147552.000000
148561.000000
149591.000000
150679.000000
151817.000000
152923.000000
153966.000000
155065.000000
156191.000000
157291.000000
158296.000000
159302.000000
160476.000000
161663.000000
162867.000000
163992.000000
165170.000000
166344.000000
167496.000000
168583.000000
169718.000000
170916.000000
172082.000000
173133.000000
174120.000000
175205.000000
176388.000000
177582.000000
178702.000000
179886.000000
181128.000000
182396.000000
183531.000000
184662.000000
185854.000000
187062.000000
188145.000000
189136.000000
190206.000000
191408.000000
192592.000000
193679.000000
194708.000000
195842.000000
197066.000000
198252.000000
199321.000000
200432.000000
201623.000000
202793.000000
203828.000000
204903.000000
206134.000000
207362.000000
208526.000000
209608.000000
210786.000000
211976.000000
213055.000000
214051.000000
215124.000000
216285.000000
217350.000000
218301.000000
219320.000000
220499.000000
221641.000000
222665.000000
223707.000000
224790.000000
225924.000000
226967.000000
227997.000000
229094.000000
230199.000000
231288.000000
232281.000000
233285.000000
234367.000000
235490.000000
236558.000000
237608.000000
238803.000000
240018.000000
241128.000000
242180.000000
243264.000000
244372.000000
245463.000000
246454.000000
247453.000000
248543.000000
249725.000000
250754.000000
251869.000000
252988.000000
254114.000000
255325.000000
256514.000000
257704.000000
258828.000000
259955.000000
261129.000000
262352.000000
263531.000000
264547.000000
265571.000000
266692.000000
267909.000000
269109.000000
270206.000000
271375.000000
272645.000000
273884.000000
275029.000000
276067.000000
277165.000000
278416.000000
279658.000000
280789.000000
281998.000000
283278.000000
284511.000000
285663.000000
286880.000000
288110.000000
289261.000000
290401.000000
291598.000000
292782.000000
293926.000000
294976.000000
296020.000000
297200.000000
298405.000000
299615.000000
300765.000000
301869.000000
303075.000000
304277.000000
305412.000000
306398.000000
307371.000000
308589.000000
309808.000000
310998.000000
312059.000000
313224.000000
314470.000000
315671.000000
316738.000000
317864.000000
319104.000000
320331.000000
321503.000000
322587.000000
323715.000000
324884.000000
326030.000000
327112.000000
328186.000000
329349.000000
330542.000000
331674.000000
332684.000000
333619.000000
334706.000000
335939.000000
337141.000000
338237.000000
339432.000000
340662.000000
341889.000000
343033.000000
344178.000000
345393.000000
346603.000000
347735.000000
348781.000000
349870.000000
351133.000000
352416.000000
353606.000000
354814.000000
356075.000000
357269.000000
358378.000000
359521.000000
360756.000000
361961.000000
363160.000000
364285.000000
365440.000000
366598.000000
367707.000000
368782.000000
369922.000000
371091.000000
372240.000000
373287.000000
374327.000000
375485.000000
376708.000000
377904.000000
379037.000000
380185.000000
381336.000000
382482.000000
383523.000000
384560.000000
385729.000000
386919.000000
388124.000000
389252.000000
390446.000000
391645.000000
392801.000000
393896.000000
395012.000000
396220.000000
397415.000000
398582.000000
399642.000000
400672.000000
401771.000000
402951.000000
404119.000000
405179.000000
406229.000000
407355.000000
408555.000000
409735.000000
410870.000000
412084.000000
413293.000000
414449.000000
415560.000000
416754.000000
417944.000000
419106.000000
420187.000000
421197.000000
422274.000000
423463.000000
424623.000000
425678.000000
426708.000000
427810.000000
428966.000000
430128.000000
431197.000000
432260.000000
433441.000000
434658.000000
435856.000000
436965.000000
438037.000000
439237.000000
440458.000000
441643.000000
442819.000000
443985.000000
445031.000000
446121.000000
447343.000000
448565.000000
449670.000000
450785.000000
452044.000000
453294.000000
454370.000000
455364.000000
456489.000000
457764.000000
459008.000000
460122.000000
461384.000000
462720.000000
463955.000000
465227.000000
466503.000000
467740.000000
468930.000000
470033.000000
471101.000000
472306.000000
473527.000000
474697.000000
475766.000000
476850.000000
478065.000000
479334.000000
480548.000000
481691.000000
482901.000000
484149.000000
485372.000000
486441.000000
487472.000000
488602.000000
489789.000000
490946.000000
491974.000000
493029.000000
494260.000000
495452.000000
496606.000000
497603.000000
498569.000000
499730.000000
500959.000000
502091.000000
503177.000000
504353.000000
505561.000000
506717.000000
507726.000000
508708.000000
509780.000000
510957.000000
512112.000000
513123.000000
514147.000000
515283.000000
516471.000000
517636.000000
518677.000000
519700.000000
520778.000000
521944.000000
522996.000000
524001.000000
525101.000000
526230.000000
527190.000000
528111.000000
528950.000000
529761.000000
531001.000000
532182.000000
533247.000000
534323.000000
535476.000000
536619.000000
537699.000000
538664.000000
539699.000000
540853.000000
542011.000000
543093.000000
544087.000000
545158.000000
546376.000000
547564.000000
548721.000000
549755.000000
550755.000000
551906.000000
553187.000000
554441.000000
555591.000000
556694.000000
557929.000000
559187.000000
560397.000000
561430.000000
562361.000000
563308.000000
564632.000000
565904.000000
567169.000000
568432.000000
569635.000000
570724.000000
571886.000000
573106.000000
574317.000000
575493.000000
576627.000000
577634.000000
578721.000000
579919.000000
581163.000000
582392.000000
583560.000000
584707.000000
585942.000000
587146.000000
588295.000000
589383.000000
590562.000000
591777.000000
592954.000000
594023.000000
595104.000000
596273.000000
597457.000000
598587.000000
599634.000000
600760.000000
601926.000000
603064.000000
604065.000000
605062.000000
606167.000000
607311.000000
608428.000000
609403.000000
610366.000000
611479.000000
612695.000000
613853.000000
614913.000000
616079.000000
617279.000000
618339.000000
619403.000000
620613.000000
621862.000000
622946.000000
624089.000000
625347.000000
626583.000000
627731.000000
628905.000000
630118.000000
631326.000000
632473.000000
633562.000000
634748.000000
635932.000000
637114.000000
638289.000000
639368.000000
640516.000000
641722.000000
642927.000000
644079.000000
645128.000000
646240.000000
647466.000000
648698.000000
649899.000000
651014.000000
652233.000000
653491.000000
654700.000000
655770.000000
656909.000000
658077.000000
659294.000000
660440.000000
661481.000000
662515.000000
663690.000000
664896.000000
665934.000000
666958.000000
668047.000000
669164.000000
670048.000000
670928.000000
671807.000000
672806.000000
673977.000000
675172.000000
676287.000000
677360.000000
678462.000000
679608.000000
680731.000000
681742.000000
682689.000000
683770.000000
684958.000000
686125.000000
687160.000000
688138.000000
689229.000000
690424.000000
691586.000000
692662.000000
693753.000000
694895.000000
696033.000000
697053.000000
698089.000000
699215.000000
700380.000000
701449.000000
702632.000000
703810.000000
704935.000000
705934.000000
706943.000000
708063.000000
709176.000000
710177.000000
711110.000000
712104.000000
713284.000000
714503.000000
715525.000000
716502.000000
717678.000000
718915.000000
720046.000000
721128.000000
722269.000000
723427.000000
724534.000000
725568.000000
726646.000000
727744.000000
728854.000000
729936.000000
730970.000000
732083.000000
733283.000000
734476.000000
735580.000000
736662.000000
737781.000000
738940.000000
740111.000000
741173.000000
742247.000000
743379.000000
744500.000000
745568.000000
746673.000000
747864.000000
749063.000000
750230.000000
751324.000000
752460.000000
753594.000000
754756.000000
755882.000000
756963.000000
758134.000000
759312.000000
760466.000000
761558.000000
762730.000000
763927.000000
765128.000000
766320.000000
767417.000000
768517.000000
769682.000000
770902.000000
772130.000000
773253.000000
774496.000000
775735.000000
776983.000000
778111.000000
779243.000000
780414.000000
781603.000000
782667.000000
783763.000000
784943.000000
786117.000000
787257.000000
788348.000000
789428.000000
790481.000000
791486.000000
792518.000000
793623.000000
794702.000000
795762.000000
796800.000000
797920.000000
799093.000000
800246.000000
801378.000000
802386.000000
803403.000000
804554.000000
805749.000000
806916.000000
807959.000000
809016.000000
810160.000000
811342.000000
812472.000000
813523.000000
814609.000000
815755.000000
816928.000000
817963.000000
818941.000000
820033.000000
821212.000000
822353.000000
823347.000000
824333.000000
825429.000000
826639.000000
827784.000000
828802.000000
829872.000000
831067.000000
832247.000000
833292.000000
834311.000000
835420.000000
836614.000000
837816.000000
838952.000000
840041.000000
841169.000000
842275.000000
843332.000000
844273.000000
845287.000000
846548.000000
847808.000000
848997.000000
850153.000000
851311.000000
852503.000000
853636.000000
854692.000000
855802.000000
856994.000000
858181.000000
859224.000000
860290.000000
861484.000000
862693.000000
863851.000000
864878.000000
865938.000000
867141.000000
868367.000000
869510.000000
870534.000000
871639.000000
872851.000000
874058.000000
875159.000000
876186.000000
877349.000000
878547.000000
879743.000000
880906.000000
881933.000000
882969.000000
884160.000000
885399.000000
886533.000000
887613.000000
888888.000000
890180.000000
891335.000000
892417.000000
893594.000000
894852.000000
896074.000000
897168.000000
898199.000000
899378.000000
900607.000000
901717.000000
902742.000000
903833.000000
905053.000000
906267.000000
907392.000000
908516.000000
909711.000000
910897.000000
912011.000000
913016.000000
914119.000000
915321.000000
916517.000000
917651.000000
918690.000000
919709.000000
920882.000000
922068.000000
923204.000000
924212.000000
925243.000000
926386.000000
927570.000000
928699.000000
929722.000000
930754.000000
931899.000000
933081.000000
934186.000000
935175.000000
936169.000000
937293.000000
938485.000000
939624.000000
940664.000000
941754.000000
942960.000000
944143.000000
945183.000000
946166.000000
947222.000000
948442.000000
949672.000000
950792.000000
951844.000000
952997.000000
954191.000000
955374.000000
956419.000000
957455.000000
958582.000000
959780.000000
960944.000000
961996.000000
963069.000000
964269.000000
965509.000000
966673.000000
967745.000000
968723.000000
969726.000000
970816.000000
971985.000000
973087.000000
974087.000000
975141.000000
976295.000000
977484.000000
978523.000000
979529.000000
980595.000000
981788.000000
982993.000000
984061.000000
985109.000000
986308.000000
987528.000000
988663.000000
989729.000000
990844.000000
991981.000000
993098.000000
994094.000000
995043.000000
996156.000000
997373.000000
998484.000000
999507.000000
1000577.000000
1001763.000000
1002942.000000
1003978.000000
1004956.000000
1005966.000000
1007046.000000
1008134.000000
1009173.000000
1010287.000000
1011461.000000
1012623.000000
1013697.000000
1014630.000000
1015587.000000
1016835.000000
1018113.000000
1019345.000000
1020482.000000
1021531.000000
1022657.000000
1023860.000000
1025073.000000
1026264.000000
1027339.000000
1028428.000000
1029642.000000
1030865.000000
1031983.000000
1033106.000000
1034299.000000
1035520.000000
1036718.000000
1037816.000000
1038886.000000
1040057.000000
1041277.000000
1042475.000000
1043598.000000
1044646.000000
1045762.000000
1046949.000000
1048134.000000
1049290.000000
1050325.000000
1051398.000000
1052540.000000
1053750.000000
1054921.000000
1055948.000000
1056911.000000
1057904.000000
1059044.000000
1060140.000000
1061193.000000
1062270.000000
1063366.000000
1064396.000000
1065365.000000
1066378.000000
1067537.000000
1068713.000000
1069825.000000
1070817.000000
1071817.000000
1072888.000000
1074035.000000
1075202.000000
1076253.000000
1077315.000000
1078484.000000
1079647.000000
1080755.000000
1081790.000000
1082793.000000
1083879.000000
1085004.000000
1086113.000000
1087077.000000
1088011.000000
1089036.000000
1090209.000000
1091368.000000
1092402.000000
1093396.000000
1094559.000000
1095747.000000
1096894.000000
1097913.000000
1098914.000000
1100177.000000
1101423.000000
1102625.000000
1103677.000000
1104734.000000
1105999.000000
1107251.000000
1108387.000000
1109504.000000
1110717.000000
1111933.000000
1112991.000000
1114063.000000
1115272.000000
1116537.000000
1117718.000000
1118920.000000
1120200.000000
1121439.000000
1122597.000000
1123827.000000
1125051.000000
1126189.000000
1127287.000000
1128459.000000
1129628.000000
1130773.000000
1131887.000000
1132912.000000
1133977.000000
1135142.000000
1136346.000000
1137560.000000
1138724.000000
1139850.000000
1141085.000000
1142305.000000
1143502.000000
1144619.000000
1145706.000000
1146867.000000
1148078.000000
1149234.000000
1150290.000000
1151405.000000
1152627.000000
1153786.000000
1154848.000000
1155998.000000
1157195.000000
1158397.000000
1159551.000000
1160606.000000
1161702.000000
1162884.000000
1164071.000000
1165197.000000
1166283.000000
1167425.000000
1168629.000000
1169770.000000
1170767.000000
1171762.000000
1172644.000000
1173467.000000
1174389.000000
1175458.000000
1176483.000000
1177481.000000
1178559.000000
1179668.000000
1180751.000000
1181742.000000
1182769.000000
1183859.000000
1184997.000000
1186110.000000
1187114.000000
1188123.000000
1189230.000000
1190410.000000
1191527.000000
1192539.000000
1193554.000000
1194646.000000
1195797.000000
1196892.000000
1197926.000000
1199072.000000
1200266.000000
1201452.000000
1202598.000000
1203681.000000
1204867.000000
1206080.000000
1207270.000000
1208325.000000
1209415.000000
1210689.000000
1211964.000000
1213154.000000
1214202.000000
1215290.000000
1216484.000000
1217759.000000
1218934.000000
1220066.000000
1221267.000000
1222494.000000
1223675.000000
1224702.000000
1225630.000000
1226660.000000
1227913.000000
1229096.000000
1230174.000000
1231362.000000
1232571.000000
1233759.000000
1234866.000000
1235950.000000
1237093.000000
1238265.000000
1239404.000000
1240477.000000
1241434.000000
1242563.000000
1243662.000000
1244797.000000
1245847.000000
1246882.000000
1247952.000000
1249044.000000
1250125.000000
1251081.000000
1252142.000000
1253196.000000
1254268.000000
1255285.000000
1256306.000000
1257412.000000
1258598.000000
1259761.000000
1260845.000000
1261904.000000
1263023.000000
1264144.000000
1265231.000000
1266254.000000
1267302.000000
1268384.000000
1269543.000000
1270614.000000
1271710.000000
1272857.000000
1274002.000000
1275061.000000
1276026.000000
1277037.000000
1278239.000000
1279456.000000
1280590.000000
1281668.000000
1282818.000000
1284025.000000
1285212.000000
1286242.000000
1287188.000000
1288227.000000
1289426.000000
1290602.000000
1291650.000000
1292626.000000
1293697.000000
1294861.000000
1296039.000000
1297206.000000
1298281.000000
1299379.000000
1300539.000000
1301693.000000
1302755.000000
1303824.000000
1304967.000000
1306008.000000
1307014.000000
1308056.000000
1309180.000000
1310229.000000
1311219.000000
1312308.000000
1313486.000000
1314687.000000
1315820.000000
1316920.000000
1318086.000000
1319248.000000
1320393.000000
1321434.000000
1322530.000000
1323756.000000
1324954.000000
1326047.000000
1327156.000000
1328360.000000
1329585.000000
1330792.000000
1331895.000000
1332990.000000
1334171.000000
1335370.000000
1336429.000000
1337482.000000
1338669.000000
1339899.000000
1341030.000000
1342097.000000
1343216.000000
1344438.000000
1345603.000000
1346585.000000
1347560.000000
1348488.000000
1349341.000000
1350292.000000
1351387.000000
1352421.000000
1353578.000000
1354728.000000
1355841.000000
1356865.000000
1357778.000000
1358714.000000
1359813.000000
1360884.000000
1361873.000000
1362827.000000
1363875.000000
1365041.000000
1366183.000000
1367241.000000
1368219.000000
1369249.000000
1370425.000000
1371602.000000
1372710.000000
1373715.000000
1374729.000000
1375829.000000
1377005.000000
1378118.000000
1379181.000000
1380375.000000
1381622.000000
1382847.000000
1383971.000000
1385070.000000
1386229.000000
1387413.000000
1388507.000000
1389543.000000
1390577.000000
1391622.000000
1392775.000000
1393857.000000
1394932.000000
1396121.000000
1397319.000000
1398467.000000
1399534.000000
1400666.000000
1401869.000000
1402996.000000
1404049.000000
1405134.000000
1406309.000000
1407501.000000
1408607.000000
1409660.000000
1410756.000000
1411980.000000
1413211.000000
1414382.000000
1415511.000000
1416706.000000
1417919.000000
1418949.000000
1419848.000000
1420792.000000
1421715.000000
1422813.000000
1424001.000000
1425137.000000
1426153.000000
1427224.000000
1428338.000000
1429452.000000
1430468.000000
1431444.000000
1432533.000000
1433668.000000
1434791.000000
1435806.000000
1436881.000000
1437804.000000
1438703.000000
1439636.000000
1440708.000000
1441922.000000
1443078.000000
1444114.000000
1445206.000000
1446346.000000
1447503.000000
1448617.000000
1449666.000000
1450826.000000
1452039.000000
1453207.000000
1454314.000000
1455372.000000
1456518.000000
1457706.000000
1458842.000000
1459906.000000
1461017.000000
1462147.000000
1463327.000000
1464436.000000
1465455.000000
1466555.000000
1467713.000000
1468879.000000
1470000.000000
1471110.000000
1472262.000000
1473424.000000
1474591.000000
1475695.000000
1476825.000000
1477984.000000
1479152.000000
1480254.000000
1481315.000000
1482463.000000
1483640.000000
1484807.000000
1485887.000000
1486920.000000
1488006.000000
1489150.000000
1490311.000000
1491424.000000
1492471.000000
1493574.000000
1494724.000000
1495871.000000
1496981.000000
1498024.000000
1499108.000000
1500241.000000
1501384.000000
1502452.000000
1503464.000000
1504499.000000
1505610.000000
1506780.000000
1507923.000000
1509009.000000
1510194.000000
1511392.000000
1512587.000000
1513668.000000
1514776.000000
1515909.000000
1517026.000000
1518039.000000
1519126.000000
1520290.000000
1521428.000000
1522535.000000
1523578.000000
1524641.000000
1525783.000000
1526918.000000
1528011.000000
1529111.000000
1530280.000000
1531475.000000
1532666.000000
1533734.000000
1534771.000000
1535888.000000
1537103.000000
1538339.000000
1539506.000000
1540595.000000
1541762.000000
1542980.000000
1544179.000000
1545300.000000
1546395.000000
1547542.000000
1548733.000000
1549937.000000
1551083.000000
1552217.000000
1553395.000000
1554572.000000
1555737.000000
1556799.000000
1557917.000000
1559141.000000
1560330.000000
1561470.000000
1562554.000000
1563643.000000
1564779.000000
1565944.000000
1566997.000000
1568073.000000
1569210.000000
1570402.000000
1571521.000000
1572589.000000
1573686.000000
1574840.000000
1576007.000000
1577168.000000
1578236.000000
1579205.000000
1580210.000000
1581514.000000
1582758.000000
1583942.000000
1585150.000000
1586387.000000
1587615.000000
1588765.000000
1589797.000000
1590808.000000
1592094.000000
1593358.000000
1594613.000000
1595804.000000
1596971.000000
1598183.000000
1599381.000000
1600553.000000
1601586.000000
1602589.000000
1603619.000000
1604716.000000
1605748.000000
1606732.000000
1607775.000000
1608903.000000
1610052.000000
1611104.000000
1612088.000000
1613124.000000
1614303.000000
1615464.000000
1616511.000000
1617559.000000
1618675.000000
1619785.000000
1620794.000000
1621841.000000
1622967.000000
1624138.000000
1625272.000000
1626299.000000
1627378.000000
1628597.000000
1629763.000000
1630817.000000
1631969.000000
1633179.000000
1634368.000000
1635427.000000
1636522.000000
1637687.000000
1638916.000000
1640059.000000
1641149.000000
1642401.000000
1643649.000000
1644819.000000
1645937.000000
1647154.000000
1648370.000000
1649594.000000
1650703.000000
1651810.000000
1652966.000000
1654105.000000
1655208.000000
1656237.000000
1657344.000000
1658547.000000
1659782.000000
1660989.000000
1662122.000000
1663241.000000
1664412.000000
1665573.000000
1666633.000000
1667732.000000
1668878.000000
1670088.000000
1671213.000000
1672340.000000
1673524.000000
1674743.000000
1675858.000000
1677003.000000
1678207.000000
1679435.000000
1680556.000000
1681664.000000
1682814.000000
1684003.000000
1685083.000000
1686152.000000
1687282.000000
1688390.000000
1689345.000000
1690212.000000
1691060.000000
1691982.000000
1693133.000000
1694344.000000
1695481.000000
1696487.000000
1697478.000000
1698600.000000
1699787.000000
1700927.000000
1701974.000000
1703034.000000
1704146.000000
1705287.000000
1706327.000000
1707305.000000
1708351.000000
1709501.000000
1710635.000000
1711649.000000
1712710.000000
1713887.000000
1715102.000000
1716193.000000
1717327.000000
1718562.000000
1719829.000000
1721052.000000
1722176.000000
1723348.000000
1724547.000000
1725717.000000
1726766.000000
1727864.000000
1729048.000000
1730300.000000
1731481.000000
1732532.000000
1733656.000000
1734884.000000
1736120.000000
1737213.000000
1738329.000000
1739592.000000
1740815.000000
1742008.000000
1743117.000000
1744255.000000
1745479.000000
1746720.000000
1747887.000000
1749034.000000
1750216.000000
1751411.000000
1752557.000000
1753595.000000
1754706.000000
1755869.000000
1757007.000000
1758037.000000
1759167.000000
1760388.000000
1761612.000000
1762760.000000
1763945.000000
1765142.000000
1766341.000000
1767510.000000
1768611.000000
1769791.000000
1771027.000000
1772323.000000
1773445.000000
1774597.000000
1775896.000000
1777177.000000
1778351.000000
1779608.000000
1780891.000000
1782178.000000
1783405.000000
1784501.000000
1785630.000000
1786828.000000
1787990.000000
1789007.000000
1789942.000000
1790942.000000
1792121.000000
1793331.000000
1794391.000000
1795412.000000
1796532.000000
1797682.000000
1798837.000000
1799898.000000
