ECG (ms)
883.000000
1879.000000
2838.000000
3819.000000
4848.000000
5878.000000
6719.000000
7553.000000
8519.000000
9666.000000
10834.000000
11992.000000
13090.000000
14212.000000
15328.000000
16327.000000
17232.000000
18139.000000
19180.000000
20525.000000
21736.000000
22944.000000
24121.000000
25268.000000
26360.000000
27408.000000
28417.000000
29458.000000
30516.000000
31592.000000
32730.000000
33863.000000
35002.000000
36092.000000
37159.000000
38190.000000
39130.000000
40035.000000
40978.000000
42161.000000
43394.000000
44559.000000
45626.000000
46636.000000
47655.000000
48733.000000
49898.000000
51047.000000
52163.000000
53176.000000
54139.000000
55109.000000
56203.000000
57359.000000
58502.000000
59549.000000
60573.000000
61675.000000
62775.000000
63760.000000
64777.000000
65851.000000
66897.000000
67908.000000
69012.000000
70117.000000
71118.000000
72157.000000
73218.000000
74188.000000
75156.000000
76225.000000
77374.000000
78504.000000
79549.000000
80573.000000
81655.000000
82663.000000
83497.000000
84364.000000
85270.000000
86159.000000
87131.000000
88156.000000
89189.000000
90106.000000
91106.000000
92182.000000
93228.000000
94262.000000
95331.000000
96398.000000
97388.000000
98440.000000
99519.000000
100510.000000
101465.000000
102490.000000
103553.000000
104614.000000
105705.000000
106747.000000
107734.000000
108785.000000
109865.000000
110847.000000
111850.000000
112903.000000
113884.000000
114840.000000
115875.000000
116922.000000
117953.000000
119033.000000
120068.000000
121039.000000
122054.000000
123117.000000
124104.000000
125155.000000
126211.000000
127189.000000
128235.000000
129275.000000
130232.000000
131195.000000
132223.000000
133197.000000
134153.000000
135196.000000
136222.000000
137204.000000
138239.000000
139273.000000
140196.000000
141119.000000
142091.000000
143058.000000
143977.000000
144945.000000
146016.000000
147079.000000
148073.000000
149087.000000
150109.000000
151043.000000
151948.000000
152877.000000
153811.000000
154777.000000
155815.000000
156837.000000
157726.000000
158518.000000
159327.000000
160337.000000
161413.000000
162432.000000
163339.000000
164170.000000
164994.000000
166015.000000
167121.000000
168201.000000
169240.000000
170276.000000
171322.000000
172383.000000
173377.000000
174281.000000
175129.000000
175957.000000
176813.000000
177821.000000
178912.000000
179971.000000
181018.000000
182027.000000
182994.000000
183872.000000
184694.000000
185490.000000
186321.000000
187472.000000
188618.000000
189740.000000
190797.000000
191815.000000
192725.000000
193562.000000
194382.000000
195252.000000
196384.000000
197541.000000
198669.000000
199774.000000
200824.000000
201807.000000
202698.000000
203583.000000
204499.000000
205552.000000
206670.000000
207745.000000
208717.000000
209677.000000
210706.000000
211803.000000
212805.000000
213738.000000
214617.000000
215467.000000
216824.000000
218041.000000
219267.000000
220417.000000
221514.000000
222524.000000
223500.000000
224537.000000
225626.000000
226658.000000
227669.000000
228685.000000
229733.000000
230813.000000
231817.000000
232769.000000
233776.000000
234909.000000
235979.000000
236994.000000
238019.000000
238988.000000
239975.000000
241000.000000
242081.000000
243087.000000
244040.000000
245041.000000
246086.000000
247062.000000
247979.000000
248973.000000
250044.000000
251106.000000
252143.000000
253189.000000
254267.000000
255312.000000
256389.000000
257518.000000
258612.000000
259603.000000
260557.000000
261590.000000
262639.000000
263636.000000
264695.000000
265803.000000
266832.000000
267823.000000
268870.000000
269939.000000
270978.000000
272034.000000
273130.000000
274158.000000
275133.000000
276211.000000
277251.000000
278247.000000
279276.000000
280328.000000
281319.000000
282302.000000
283313.000000
284282.000000
285211.000000
286094.000000
287016.000000
288090.000000
289233.000000
290331.000000
291393.000000
292409.000000
293336.000000
294231.000000
295153.000000
296145.000000
297203.000000
298262.000000
299290.000000
300270.000000
301169.000000
302009.000000
302822.000000
303675.000000
304944.000000
306097.000000
307192.000000
308280.000000
309351.000000
310364.000000
311306.000000
312194.000000
313061.000000
313992.000000
315087.000000
316190.000000
317288.000000
318362.000000
319363.000000
320294.000000
321194.000000
322129.000000
323129.000000
324140.000000
325137.000000
326135.000000
327133.000000
328141.000000
329128.000000
330100.000000
331081.000000
332108.000000
333154.000000
334172.000000
335145.000000
336089.000000
337065.000000
338090.000000
339175.000000
340274.000000
341329.000000
342285.000000
343241.000000
344305.000000
345418.000000
346526.000000
347557.000000
348547.000000
349601.000000
350694.000000
351760.000000
352771.000000
353782.000000
354867.000000
355901.000000
356887.000000
357935.000000
359020.000000
359992.000000
360960.000000
361987.000000
363033.000000
364104.000000
365034.000000
365893.000000
366741.000000
367700.000000
368837.000000
369954.000000
371040.000000
372094.000000
373107.000000
374062.000000
375006.000000
375950.000000
376906.000000
377989.000000
379097.000000
380196.000000
381224.000000
382156.000000
383017.000000
383849.000000
384694.000000
385697.000000
386835.000000
387969.000000
389078.000000
390090.000000
391082.000000
392076.000000
393083.000000
394070.000000
394962.000000
395776.000000
396586.000000
397873.000000
399068.000000
400220.000000
401272.000000
402295.000000
403170.000000
403961.000000
404774.000000
405710.000000
406628.000000
407601.000000
408585.000000
409574.000000
410614.000000
411714.000000
412828.000000
413915.000000
414935.000000
415854.000000
416722.000000
417599.000000
418548.000000
419607.000000
420699.000000
421734.000000
422728.000000
423720.000000
424727.000000
425767.000000
426808.000000
427822.000000
428829.000000
429840.000000
430835.000000
431871.000000
432959.000000
434032.000000
435073.000000
436181.000000
437326.000000
438382.000000
439411.000000
440489.000000
441511.000000
442395.000000
443312.000000
444335.000000
445344.000000
446333.000000
447444.000000
448567.000000
449574.000000
450585.000000
451651.000000
452700.000000
453674.000000
454702.000000
455776.000000
456790.000000
457727.000000
458708.000000
459760.000000
460735.000000
461645.000000
462566.000000
463566.000000
464593.000000
465566.000000
466470.000000
467397.000000
468360.000000
469384.000000
470383.000000
471330.000000
472325.000000
473384.000000
474456.000000
475521.000000
476502.000000
477458.000000
478441.000000
479485.000000
480487.000000
481479.000000
482553.000000
483559.000000
484518.000000
485416.000000
486351.000000
487312.000000
488314.000000
489243.000000
490146.000000
491164.000000
492238.000000
493286.000000
494252.000000
495269.000000
496276.000000
497111.000000
497892.000000
498715.000000
499568.000000
500535.000000
501677.000000
502794.000000
503874.000000
504876.000000
505784.000000
506687.000000
507663.000000
508679.000000
509661.000000
510635.000000
511652.000000
512659.000000
513583.000000
514401.000000
515192.000000
516129.000000
517296.000000
518419.000000
519522.000000
520534.000000
521481.000000
522371.000000
523276.000000
524265.000000
525311.000000
526375.000000
527377.000000
528297.000000
529202.000000
530091.000000
531056.000000
532085.000000
533110.000000
534167.000000
535181.000000
536092.000000
536945.000000
537788.000000
538695.000000
539774.000000
540896.000000
542022.000000
543085.000000
544040.000000
544910.000000
545772.000000
546688.000000
547723.000000
548820.000000
549938.000000
551060.000000
552123.000000
553103.000000
554063.000000
555096.000000
556183.000000
557259.000000
558288.000000
559314.000000
560280.000000
561148.000000
561955.000000
562789.000000
564091.000000
565239.000000
566289.000000
567175.000000
568003.000000
568883.000000
569806.000000
570837.000000
571928.000000
572956.000000
573922.000000
574821.000000
575722.000000
576695.000000
577738.000000
578795.000000
579796.000000
580795.000000
581846.000000
582953.000000
584046.000000
585084.000000
586047.000000
586952.000000
587891.000000
588897.000000
589985.000000
591021.000000
592041.000000
593069.000000
594148.000000
595222.000000
596231.000000
597258.000000
598315.000000
599409.000000
600472.000000
601506.000000
602559.000000
603567.000000
604594.000000
605675.000000
606781.000000
607819.000000
608810.000000
609781.000000
610790.000000
611862.000000
612902.000000
613896.000000
614967.000000
616101.000000
617157.000000
618127.000000
619142.000000
620270.000000
621370.000000
622402.000000
623457.000000
624520.000000
625579.000000
626629.000000
627716.000000
628814.000000
629857.000000
630921.000000
632008.000000
632999.000000
633892.000000
634803.000000
635874.000000
637021.000000
638103.000000
639211.000000
640351.000000
641417.000000
642412.000000
643452.000000
644505.000000
645465.000000
646484.000000
647588.000000
648648.000000
649623.000000
650535.000000
651483.000000
652602.000000
653741.000000
654843.000000
655876.000000
656892.000000
657843.000000
658751.000000
659656.000000
660613.000000
661648.000000
662652.000000
663665.000000
664695.000000
665626.000000
666502.000000
667332.000000
668135.000000
669013.000000
670304.000000
671462.000000
672553.000000
673596.000000
674478.000000
675299.000000
676165.000000
677093.000000
678013.000000
678920.000000
679887.000000
680866.000000
681858.000000
682861.000000
683787.000000
684682.000000
685544.000000
686384.000000
687312.000000
688393.000000
689487.000000
690571.000000
691590.000000
692521.000000
693422.000000
694371.000000
695342.000000
696339.000000
697346.000000
698319.000000
699230.000000
700071.000000
700958.000000
702066.000000
703191.000000
704275.000000
705299.000000
706270.000000
707207.000000
708117.000000
709043.000000
710131.000000
711276.000000
712386.000000
713466.000000
714476.000000
715451.000000
716393.000000
717356.000000
718408.000000
719496.000000
720588.000000
721592.000000
722514.000000
723441.000000
724455.000000
725517.000000
726567.000000
727532.000000
728449.000000
729339.000000
730332.000000
731412.000000
732495.000000
733527.000000
734474.000000
735351.000000
736225.000000
737240.000000
738352.000000
739487.000000
740577.000000
741608.000000
742581.000000
743563.000000
744575.000000
745562.000000
746545.000000
747468.000000
748308.000000
749126.000000
750113.000000
751254.000000
752393.000000
753512.000000
754579.000000
755575.000000
756563.000000
757553.000000
758603.000000
759612.000000
760543.000000
761478.000000
762590.000000
763674.000000
764668.000000
765636.000000
766569.000000
767465.000000
768355.000000
769316.000000
770429.000000
771597.000000
772726.000000
773796.000000
774815.000000
775783.000000
776741.000000
777735.000000
778817.000000
779844.000000
780860.000000
781883.000000
782887.000000
783915.000000
784904.000000
785798.000000
786660.000000
787593.000000
788649.000000
789716.000000
790753.000000
791691.000000
792579.000000
793508.000000
794512.000000
795576.000000
796657.000000
797632.000000
798551.000000
799548.000000
800544.000000
801573.000000
802526.000000
803433.000000
804337.000000
805307.000000
806390.000000
807489.000000
808542.000000
809552.000000
810497.000000
811375.000000
812239.000000
813257.000000
814321.000000
815361.000000
816242.000000
817071.000000
817962.000000
818919.000000
819957.000000
821052.000000
822118.000000
823078.000000
823977.000000
824859.000000
825980.000000
827120.000000
828198.000000
829244.000000
830282.000000
831313.000000
832302.000000
833305.000000
834330.000000
835319.000000
836212.000000
837140.000000
838186.000000
839231.000000
840200.000000
841099.000000
841991.000000
842793.000000
843612.000000
844542.000000
845577.000000
846561.000000
847486.000000
848377.000000
849371.000000
850431.000000
851489.000000
852444.000000
853283.000000
854075.000000
854964.000000
856238.000000
857444.000000
858578.000000
859664.000000
860703.000000
861801.000000
862923.000000
864022.000000
865065.000000
866109.000000
867227.000000
868298.000000
869317.000000
870360.000000
871417.000000
872430.000000
873432.000000
874476.000000
875467.000000
876406.000000
877323.000000
878303.000000
879367.000000
880453.000000
881502.000000
882468.000000
883460.000000
884505.000000
885578.000000
886644.000000
887634.000000
888592.000000
889562.000000
890536.000000
891614.000000
892654.000000
893577.000000
894525.000000
895617.000000
896761.000000
897883.000000
898893.000000
899936.000000
901038.000000
902116.000000
903163.000000
904317.000000
905498.000000
906624.000000
907693.000000
908752.000000
909704.000000
910692.000000
911782.000000
912824.000000
913795.000000
914862.000000
915937.000000
916952.000000
917913.000000
918900.000000
919954.000000
920948.000000
921923.000000
922968.000000
