ECG (ms)
738.000000
1556.000000
2353.000000
3154.000000
3961.000000
4832.000000
5658.000000
6448.000000
7238.000000
8059.000000
8926.000000
9784.000000
10629.000000
11434.000000
12203.000000
12954.000000
13712.000000
14531.000000
15442.000000
16371.000000
17288.000000
18181.000000
19061.000000
19900.000000
20698.000000
21464.000000
22221.000000
23042.000000
23967.000000
24935.000000
25862.000000
26744.000000
27638.000000
28512.000000
29378.000000
30228.000000
31053.000000
31855.000000
32648.000000
33425.000000
34178.000000
34929.000000
35733.000000
36614.000000
37489.000000
38308.000000
39072.000000
39836.000000
40588.000000
41335.000000
42111.000000
42909.000000
43731.000000
44562.000000
45381.000000
46204.000000
47025.000000
47814.000000
48570.000000
49298.000000
50019.000000
50768.000000
51594.000000
52510.000000
53405.000000
54249.000000
55084.000000
55914.000000
56735.000000
57561.000000
58396.000000
59231.000000
60073.000000
60898.000000
61682.000000
62434.000000
63186.000000
63976.000000
64853.000000
65811.000000
66731.000000
67593.000000
68412.000000
69222.000000
70039.000000
70912.000000
71789.000000
72649.000000
73495.000000
74296.000000
75074.000000
75829.000000
76575.000000
77375.000000
78275.000000
79226.000000
80164.000000
81086.000000
81995.000000
82882.000000
83740.000000
84562.000000
85365.000000
86151.000000
86969.000000
87813.000000
88741.000000
89657.000000
90556.000000
91434.000000
92286.000000
93107.000000
93916.000000
94725.000000
95513.000000
96293.000000
97067.000000
97823.000000
98567.000000
99344.000000
100218.000000
101091.000000
101900.000000
102695.000000
103501.000000
104317.000000
105135.000000
105917.000000
106681.000000
107455.000000
108267.000000
109146.000000
110048.000000
110930.000000
111791.000000
112607.000000
113380.000000
114119.000000
114871.000000
115655.000000
116541.000000
117454.000000
118362.000000
119267.000000
120164.000000
121054.000000
121925.000000
122781.000000
123627.000000
124486.000000
125365.000000
126238.000000
127085.000000
127903.000000
128687.000000
129523.000000
130472.000000
131441.000000
132397.000000
133333.000000
134257.000000
135137.000000
135992.000000
136837.000000
137681.000000
138553.000000
139451.000000
140341.000000
141206.000000
142055.000000
142960.000000
143883.000000
144844.000000
145797.000000
146691.000000
147546.000000
148351.000000
149189.000000
150168.000000
151219.000000
152222.000000
153214.000000
154151.000000
155039.000000
155878.000000
156694.000000
157564.000000
158545.000000
159531.000000
160516.000000
161482.000000
162427.000000
163344.000000
164234.000000
165107.000000
165976.000000
166839.000000
167689.000000
168508.000000
169307.000000
170093.000000
170909.000000
171812.000000
172730.000000
173579.000000
174361.000000
175112.000000
175846.000000
176570.000000
177299.000000
178084.000000
178975.000000
179879.000000
180773.000000
181647.000000
182497.000000
183297.000000
184058.000000
184780.000000
185495.000000
186250.000000
187085.000000
188070.000000
189000.000000
189904.000000
190745.000000
191539.000000
192315.000000
193080.000000
193888.000000
194748.000000
195620.000000
196486.000000
197310.000000
198089.000000
198834.000000
199561.000000
200276.000000
200982.000000
201692.000000
202485.000000
203438.000000
204315.000000
205206.000000
206098.000000
206993.000000
207858.000000
208683.000000
209470.000000
210222.000000
210961.000000
211733.000000
212539.000000
213365.000000
214170.000000
214921.000000
215634.000000
216344.000000
217048.000000
217750.000000
218456.000000
219184.000000
219952.000000
220740.000000
221534.000000
222331.000000
223122.000000
223905.000000
224681.000000
225450.000000
226198.000000
226933.000000
227657.000000
228401.000000
229180.000000
230018.000000
230869.000000
231693.000000
232482.000000
233254.000000
234020.000000
234816.000000
235623.000000
236443.000000
237244.000000
238021.000000
238772.000000
239513.000000
240284.000000
241105.000000
241960.000000
242832.000000
243678.000000
244491.000000
245266.000000
246023.000000
246758.000000
247495.000000
248259.000000
249089.000000
250004.000000
250944.000000
251850.000000
252742.000000
253610.000000
254462.000000
255308.000000
256140.000000
256954.000000
257750.000000
258517.000000
259263.000000
260017.000000
260839.000000
261778.000000
262761.000000
263671.000000
264540.000000
265397.000000
266238.000000
267088.000000
267943.000000
268801.000000
269666.000000
270486.000000
271294.000000
272136.000000
273006.000000
273891.000000
274765.000000
275623.000000
276461.000000
277248.000000
278013.000000
278767.000000
279511.000000
280269.000000
281095.000000
282063.000000
282925.000000
283848.000000
284776.000000
285710.000000
286613.000000
287514.000000
288398.000000
289255.000000
290093.000000
290924.000000
291753.000000
292570.000000
293385.000000
294204.000000
295001.000000
295781.000000
296545.000000
297302.000000
298101.000000
298951.000000
299835.000000
300720.000000
301591.000000
302440.000000
303274.000000
304098.000000
304912.000000
305714.000000
306509.000000
307299.000000
308088.000000
308941.000000
309877.000000
310854.000000
311811.000000
312731.000000
313593.000000
314378.000000
315133.000000
315875.000000
316671.000000
317595.000000
318609.000000
319585.000000
320499.000000
321367.000000
322186.000000
323021.000000
323887.000000
324783.000000
325638.000000
326434.000000
327199.000000
327971.000000
328736.000000
329538.000000
330390.000000
331341.000000
332279.000000
333218.000000
334129.000000
335011.000000
335882.000000
336742.000000
337598.000000
338454.000000
339294.000000
340128.000000
340949.000000
341768.000000
342708.000000
343747.000000
344737.000000
345701.000000
346645.000000
347530.000000
348373.000000
349201.000000
350004.000000
350787.000000
351553.000000
352334.000000
353224.000000
354233.000000
355203.000000
356165.000000
357107.000000
358029.000000
358890.000000
359700.000000
360494.000000
361300.000000
362162.000000
363043.000000
363920.000000
364788.000000
365636.000000
366454.000000
367237.000000
368006.000000
368806.000000
369675.000000
370603.000000
371513.000000
372411.000000
373292.000000
374145.000000
374978.000000
375795.000000
376595.000000
377374.000000
378166.000000
379051.000000
380068.000000
381082.000000
382044.000000
382940.000000
383774.000000
384588.000000
385396.000000
386219.000000
387053.000000
387853.000000
388663.000000
389480.000000
390322.000000
391192.000000
392058.000000
392867.000000
393633.000000
394367.000000
395088.000000
395805.000000
396630.000000
397588.000000
398455.000000
399267.000000
400071.000000
400886.000000
401689.000000
402449.000000
403167.000000
403868.000000
404580.000000
405290.000000
406041.000000
406851.000000
407703.000000
408578.000000
409457.000000
410307.000000
411108.000000
411866.000000
412600.000000
413356.000000
414223.000000
415180.000000
416134.000000
417064.000000
417960.000000
418836.000000
419722.000000
420631.000000
421558.000000
422474.000000
423365.000000
424207.000000
425011.000000
425780.000000
426534.000000
427355.000000
428259.000000
429196.000000
430142.000000
431076.000000
431984.000000
432858.000000
433699.000000
434511.000000
435318.000000
436140.000000
436975.000000
437810.000000
438641.000000
439463.000000
440259.000000
441044.000000
441818.000000
442690.000000
443577.000000
444454.000000
445299.000000
446095.000000
446885.000000
447670.000000
448480.000000
449322.000000
450166.000000
451000.000000
451838.000000
452659.000000
453449.000000
454232.000000
455044.000000
455905.000000
456840.000000
457816.000000
458766.000000
459664.000000
460516.000000
461327.000000
462150.000000
463010.000000
463911.000000
464827.000000
465750.000000
466675.000000
467585.000000
468482.000000
469380.000000
470280.000000
471142.000000
471964.000000
472765.000000
473544.000000
474305.000000
475070.000000
475912.000000
476896.000000
477816.000000
478661.000000
479442.000000
480215.000000
480981.000000
481750.000000
482523.000000
483288.000000
484055.000000
484810.000000
485601.000000
486445.000000
487345.000000
488249.000000
489133.000000
489991.000000
490828.000000
491649.000000
492458.000000
493264.000000
494068.000000
494874.000000
495675.000000
496461.000000
497228.000000
498000.000000
498814.000000
499697.000000
500603.000000
501471.000000
502299.000000
503116.000000
503925.000000
504748.000000
505576.000000
506414.000000
507245.000000
508041.000000
508834.000000
509613.000000
510456.000000
511351.000000
512279.000000
513198.000000
514101.000000
514965.000000
515800.000000
516630.000000
517470.000000
518296.000000
519117.000000
519920.000000
520737.000000
521632.000000
522585.000000
523540.000000
524453.000000
525308.000000
526124.000000
526934.000000
527739.000000
528598.000000
529484.000000
530371.000000
531258.000000
532138.000000
533020.000000
533883.000000
534749.000000
535622.000000
536510.000000
537377.000000
538225.000000
539046.000000
539846.000000
540650.000000
541582.000000
542593.000000
543522.000000
544368.000000
545141.000000
545869.000000
546584.000000
547297.000000
548027.000000
548769.000000
549474.000000
550234.000000
551026.000000
551831.000000
552638.000000
553485.000000
554393.000000
555304.000000
556223.000000
557118.000000
557963.000000
558760.000000
559569.000000
560393.000000
561247.000000
562136.000000
563032.000000
563911.000000
564742.000000
565541.000000
566310.000000
567106.000000
567970.000000
568919.000000
569866.000000
570821.000000
571781.000000
572706.000000
573589.000000
574433.000000
575286.000000
576158.000000
577045.000000
577899.000000
578720.000000
579504.000000
580261.000000
581065.000000
581907.000000
582836.000000
583759.000000
584671.000000
585584.000000
586480.000000
587324.000000
588126.000000
588888.000000
589630.000000
590410.000000
591266.000000
592209.000000
593174.000000
594103.000000
594978.000000
595811.000000
596652.000000
597500.000000
598363.000000
599222.000000
600079.000000
600940.000000
601794.000000
602613.000000
603419.000000
604214.000000
605045.000000
605994.000000
606959.000000
607880.000000
608747.000000
609556.000000
610345.000000
611144.000000
612012.000000
612928.000000
613832.000000
614737.000000
615626.000000
616506.000000
617381.000000
618247.000000
619105.000000
619931.000000
620739.000000
621535.000000
622324.000000
623141.000000
624051.000000
625001.000000
625933.000000
626850.000000
627722.000000
628562.000000
629385.000000
630196.000000
630991.000000
631774.000000
632547.000000
633320.000000
634087.000000
634854.000000
635643.000000
636669.000000
637618.000000
638556.000000
639494.000000
640418.000000
641329.000000
642219.000000
643084.000000
643929.000000
644775.000000
645632.000000
646495.000000
647356.000000
648177.000000
648983.000000
649807.000000
650651.000000
651516.000000
652386.000000
653247.000000
654094.000000
654927.000000
655753.000000
656565.000000
657352.000000
658126.000000
658904.000000
659772.000000
660729.000000
661722.000000
662674.000000
663594.000000
664483.000000
665340.000000
666188.000000
667021.000000
667843.000000
668693.000000
669563.000000
670407.000000
671226.000000
672026.000000
672804.000000
673636.000000
674602.000000
675549.000000
676450.000000
677302.000000
678154.000000
678999.000000
679854.000000
680717.000000
681581.000000
682454.000000
683324.000000
684188.000000
685061.000000
685897.000000
686717.000000
687516.000000
688321.000000
689178.000000
690108.000000
691033.000000
691947.000000
692852.000000
693727.000000
694583.000000
695412.000000
696223.000000
697004.000000
697777.000000
698588.000000
699495.000000
700425.000000
701358.000000
702270.000000
703126.000000
703941.000000
704722.000000
705490.000000
706313.000000
707200.000000
708118.000000
709032.000000
709919.000000
710764.000000
711566.000000
712380.000000
713209.000000
714084.000000
714974.000000
715874.000000
716767.000000
717621.000000
718449.000000
719248.000000
720080.000000
720978.000000
721905.000000
722818.000000
723693.000000
724521.000000
725310.000000
726114.000000
726959.000000
727864.000000
728759.000000
729615.000000
730465.000000
731302.000000
732145.000000
732973.000000
733776.000000
734581.000000
735412.000000
736299.000000
737215.000000
738091.000000
738909.000000
739741.000000
740564.000000
741422.000000
742291.000000
743131.000000
743945.000000
744766.000000
745598.000000
746479.000000
747381.000000
748263.000000
749136.000000
749995.000000
750808.000000
751597.000000
752363.000000
753127.000000
753944.000000
754852.000000
755762.000000
756645.000000
757471.000000
758286.000000
759093.000000
759904.000000
760722.000000
761554.000000
762378.000000
763200.000000
764033.000000
764865.000000
765659.000000
766442.000000
767211.000000
768002.000000
768829.000000
769726.000000
770620.000000
771471.000000
772284.000000
773080.000000
773877.000000
774689.000000
775516.000000
776360.000000
777195.000000
778029.000000
778879.000000
779706.000000
780525.000000
781312.000000
782079.000000
782843.000000
783661.000000
784660.000000
785676.000000
786613.000000
787516.000000
788428.000000
789312.000000
790184.000000
791015.000000
791815.000000
792624.000000
793442.000000
794314.000000
795205.000000
796116.000000
796984.000000
797818.000000
798634.000000
799463.000000
800339.000000
801253.000000
802192.000000
803090.000000
803938.000000
804738.000000
805504.000000
806293.000000
807160.000000
808137.000000
809097.000000
810041.000000
810971.000000
811873.000000
812756.000000
813616.000000
814481.000000
815351.000000
816238.000000
817142.000000
818033.000000
818903.000000
819733.000000
820536.000000
821377.000000
822292.000000
823257.000000
824196.000000
825076.000000
825922.000000
826762.000000
827604.000000
828467.000000
829343.000000
830223.000000
831098.000000
831958.000000
832848.000000
833709.000000
834550.000000
835380.000000
836203.000000
837105.000000
838066.000000
839052.000000
839979.000000
840860.000000
841758.000000
842658.000000
843546.000000
844428.000000
845281.000000
846101.000000
846900.000000
847742.000000
848672.000000
849632.000000
850556.000000
851460.000000
852324.000000
853144.000000
853946.000000
854733.000000
855538.000000
856489.000000
857511.000000
858519.000000
859499.000000
860456.000000
861368.000000
862253.000000
863141.000000
864035.000000
864951.000000
865857.000000
866740.000000
867592.000000
868400.000000
869183.000000
869952.000000
870753.000000
871773.000000
872750.000000
873698.000000
874640.000000
875558.000000
876451.000000
877310.000000
878139.000000
878974.000000
879830.000000
880714.000000
881613.000000
882521.000000
883426.000000
884288.000000
885123.000000
885962.000000
886826.000000
887767.000000
888716.000000
889628.000000
890502.000000
891333.000000
892132.000000
892912.000000
893727.000000
894601.000000
895526.000000
896453.000000
897366.000000
898267.000000
899151.000000
900014.000000
900847.000000
901662.000000
902460.000000
903275.000000
904188.000000
905187.000000
906189.000000
907114.000000
907993.000000
908861.000000
909718.000000
910573.000000
911424.000000
912277.000000
913116.000000
913952.000000
914790.000000
915643.000000
916513.000000
917366.000000
918189.000000
918985.000000
919767.000000
920591.000000
921542.000000
922537.000000
923473.000000
924355.000000
925236.000000
926088.000000
926929.000000
927735.000000
928521.000000
929307.000000
930115.000000
930977.000000
931863.000000
932757.000000
933644.000000
934537.000000
935417.000000
936277.000000
937126.000000
937942.000000
938737.000000
939549.000000
940387.000000
941249.000000
942084.000000
942872.000000
943648.000000
944441.000000
945266.000000
946132.000000
946979.000000
947836.000000
948668.000000
949496.000000
950324.000000
951154.000000
951992.000000
952832.000000
953643.000000
954417.000000
955230.000000
956079.000000
956974.000000
957826.000000
958622.000000
959396.000000
960185.000000
961000.000000
961836.000000
962660.000000
963464.000000
964242.000000
964999.000000
965791.000000
966588.000000
967428.000000
968295.000000
969155.000000
970005.000000
970852.000000
971662.000000
972451.000000
973212.000000
973975.000000
974784.000000
975664.000000
976596.000000
977528.000000
978423.000000
979295.000000
980116.000000
980899.000000
981650.000000
982457.000000
983354.000000
984341.000000
985294.000000
986207.000000
987084.000000
987972.000000
988854.000000
989758.000000
990642.000000
991510.000000
992368.000000
993193.000000
993994.000000
994784.000000
995590.000000
996496.000000
997465.000000
998452.000000
999402.000000
1000302.000000
1001149.000000
1001992.000000
1002840.000000
1003725.000000
1004603.000000
1005492.000000
1006381.000000
1007300.000000
1008173.000000
1009016.000000
1009862.000000
1010725.000000
1011620.000000
1012508.000000
1013362.000000
1014173.000000
1014956.000000
1015721.000000
1016585.000000
1017556.000000
1018510.000000
1019421.000000
1020330.000000
1021203.000000
1022064.000000
1022911.000000
1023733.000000
1024531.000000
1025321.000000
1026163.000000
1027089.000000
1028046.000000
1028998.000000
1029948.000000
1030881.000000
1031770.000000
1032606.000000
1033413.000000
1034260.000000
1035164.000000
1036113.000000
1037079.000000
1038009.000000
1038876.000000
1039697.000000
1040475.000000
1041266.000000
1042126.000000
1043117.000000
1044105.000000
1045080.000000
1046036.000000
1046952.000000
1047843.000000
1048696.000000
1049503.000000
1050278.000000
1051076.000000
1051868.000000
1052620.000000
1053387.000000
1054179.000000
1054961.000000
1055783.000000
1056633.000000
1057500.000000
1058377.000000
1059213.000000
1060025.000000
1060831.000000
1061653.000000
1062524.000000
1063396.000000
1064274.000000
1065131.000000
1065935.000000
1066721.000000
1067490.000000
1068302.000000
1069210.000000
1070177.000000
1071093.000000
1071969.000000
1072842.000000
1073701.000000
1074575.000000
1075444.000000
1076267.000000
1077068.000000
1077853.000000
1078669.000000
1079542.000000
1080471.000000
1081391.000000
1082318.000000
1083227.000000
1084121.000000
1084957.000000
1085762.000000
1086580.000000
1087428.000000
1088341.000000
1089245.000000
1090100.000000
1090917.000000
1091744.000000
1092599.000000
1093448.000000
1094287.000000
1095079.000000
1095835.000000
1096608.000000
1097402.000000
1098288.000000
1099188.000000
1100068.000000
1100922.000000
1101788.000000
1102667.000000
1103579.000000
1104504.000000
1105378.000000
1106199.000000
1106981.000000
1107779.000000
1108686.000000
1109667.000000
1110598.000000
1111483.000000
1112316.000000
1113166.000000
1114031.000000
1114904.000000
1115777.000000
1116614.000000
1117427.000000
1118206.000000
1118969.000000
1119799.000000
1120755.000000
1121732.000000
1122688.000000
1123646.000000
1124592.000000
1125528.000000
1126444.000000
1127368.000000
1128283.000000
1129161.000000
1129987.000000
1130772.000000
1131561.000000
1132446.000000
1133482.000000
1134443.000000
1135356.000000
1136209.000000
1137013.000000
1137816.000000
1138634.000000
1139509.000000
1140422.000000
1141339.000000
1142257.000000
1143142.000000
1143980.000000
1144782.000000
1145579.000000
1146396.000000
1147256.000000
1148165.000000
1149087.000000
1150009.000000
1150917.000000
1151799.000000
1152644.000000
1153464.000000
1154258.000000
1155094.000000
1155982.000000
1156907.000000
1157784.000000
1158622.000000
1159463.000000
1160313.000000
1161187.000000
1162036.000000
1162889.000000
1163737.000000
1164575.000000
1165386.000000
1166173.000000
1166937.000000
1167685.000000
1168427.000000
1169157.000000
1170037.000000
1170985.000000
1171831.000000
1172631.000000
1173459.000000
1174299.000000
1175159.000000
1176002.000000
1176828.000000
1177662.000000
1178522.000000
1179425.000000
1180311.000000
1181202.000000
1182054.000000
1182867.000000
1183651.000000
1184420.000000
1185224.000000
1186072.000000
1186982.000000
1187891.000000
1188805.000000
1189719.000000
1190620.000000
1191516.000000
1192399.000000
1193283.000000
1194162.000000
1195016.000000
1195832.000000
1196633.000000
1197430.000000
1198321.000000
