ECG (ms)
599.000000
1618.000000
2614.000000
3567.000000
4566.000000
5566.000000
6562.000000
7528.000000
8558.000000
9592.000000
10578.000000
11547.000000
12542.000000
13528.000000
14485.000000
15460.000000
16457.000000
17433.000000
18381.000000
19356.000000
20362.000000
21372.000000
22357.000000
23311.000000
24302.000000
25274.000000
26222.000000
27168.000000
28146.000000
29115.000000
30075.000000
31066.000000
32088.000000
33083.000000
34054.000000
35062.000000
36082.000000
37127.000000
38156.000000
39186.000000
40204.000000
41211.000000
42173.000000
43141.000000
44114.000000
45064.000000
46010.000000
46999.000000
47993.000000
48958.000000
49931.000000
50900.000000
51877.000000
52845.000000
53824.000000
54815.000000
55821.000000
56825.000000
57843.000000
58863.000000
59850.000000
60836.000000
61853.000000
62860.000000
63819.000000
64850.000000
65869.000000
66888.000000
67866.000000
68845.000000
69910.000000
70972.000000
72033.000000
73087.000000
74102.000000
75142.000000
76179.000000
77215.000000
78255.000000
79299.000000
80336.000000
81369.000000
82385.000000
83420.000000
84495.000000
85552.000000
86597.000000
87682.000000
88792.000000
89857.000000
90855.000000
91876.000000
92947.000000
93967.000000
94953.000000
95971.000000
96981.000000
98007.000000
99015.000000
100046.000000
101090.000000
102136.000000
103138.000000
104163.000000
105162.000000
106131.000000
107092.000000
108076.000000
109052.000000
109994.000000
110937.000000
111917.000000
112919.000000
113928.000000
114920.000000
115924.000000
116947.000000
117940.000000
118915.000000
119920.000000
120946.000000
121948.000000
122932.000000
123950.000000
124961.000000
125940.000000
126939.000000
127987.000000
129044.000000
130047.000000
131035.000000
132048.000000
133075.000000
134064.000000
135069.000000
136066.000000
137094.000000
138094.000000
139128.000000
140187.000000
141253.000000
142317.000000
143406.000000
144479.000000
145526.000000
146597.000000
147657.000000
148655.000000
149652.000000
150682.000000
151748.000000
152793.000000
153819.000000
154880.000000
155938.000000
156972.000000
158008.000000
159067.000000
160114.000000
161154.000000
162237.000000
163299.000000
164325.000000
165362.000000
166397.000000
167426.000000
168429.000000
169465.000000
170542.000000
171624.000000
172648.000000
173727.000000
174784.000000
175837.000000
176843.000000
177826.000000
178838.000000
179856.000000
180868.000000
181899.000000
182922.000000
183937.000000
184936.000000
186006.000000
187034.000000
188044.000000
189036.000000
190055.000000
191069.000000
192060.000000
193041.000000
194054.000000
195064.000000
196027.000000
197022.000000
198022.000000
198999.000000
199951.000000
200920.000000
201892.000000
202830.000000
203792.000000
204772.000000
205792.000000
206786.000000
207747.000000
208732.000000
209722.000000
210697.000000
211633.000000
212629.000000
213609.000000
214591.000000
215570.000000
216504.000000
217477.000000
218505.000000
219529.000000
220549.000000
221547.000000
222537.000000
223543.000000
224566.000000
225570.000000
226540.000000
227547.000000
228565.000000
229616.000000
230660.000000
231719.000000
232801.000000
233837.000000
234852.000000
235885.000000
236912.000000
237930.000000
238941.000000
240009.000000
241068.000000
242140.000000
243198.000000
244253.000000
245288.000000
246324.000000
247317.000000
248336.000000
249358.000000
250390.000000
251425.000000
252463.000000
253496.000000
254487.000000
255468.000000
256445.000000
257438.000000
258436.000000
259421.000000
260419.000000
261442.000000
262476.000000
263477.000000
264500.000000
265549.000000
266572.000000
267571.000000
268597.000000
269619.000000
270640.000000
271654.000000
272691.000000
273741.000000
274771.000000
275786.000000
276838.000000
277889.000000
278891.000000
279935.000000
281022.000000
282096.000000
283129.000000
284204.000000
285316.000000
286398.000000
287436.000000
288521.000000
289597.000000
290648.000000
291659.000000
292727.000000
293779.000000
294851.000000
295859.000000
296884.000000
297911.000000
298955.000000
299949.000000
300976.000000
302008.000000
303018.000000
304021.000000
305054.000000
306068.000000
307063.000000
308075.000000
309118.000000
310123.000000
311097.000000
312089.000000
313094.000000
314099.000000
315051.000000
316068.000000
317142.000000
318199.000000
319207.000000
320231.000000
321274.000000
322297.000000
323310.000000
324333.000000
325370.000000
326386.000000
327395.000000
328431.000000
329466.000000
330477.000000
331474.000000
332495.000000
333537.000000
334548.000000
335558.000000
336588.000000
337618.000000
338622.000000
339613.000000
340635.000000
341670.000000
342670.000000
343693.000000
344712.000000
345727.000000
346709.000000
347707.000000
348692.000000
349679.000000
350630.000000
351604.000000
352601.000000
353559.000000
354510.000000
355508.000000
356506.000000
357505.000000
358472.000000
359467.000000
360472.000000
361441.000000
362382.000000
363353.000000
364361.000000
365357.000000
366330.000000
367365.000000
368436.000000
369466.000000
370465.000000
371494.000000
372502.000000
373459.000000
374409.000000
375356.000000
376317.000000
377267.000000
378226.000000
379218.000000
380231.000000
381241.000000
382217.000000
383195.000000
384196.000000
385172.000000
386126.000000
387116.000000
388120.000000
389136.000000
390136.000000
391202.000000
392274.000000
393297.000000
394281.000000
395299.000000
396334.000000
397340.000000
398318.000000
399307.000000
400299.000000
401262.000000
402266.000000
403290.000000
404310.000000
405301.000000
406286.000000
407302.000000
408322.000000
409289.000000
410293.000000
411320.000000
412352.000000
413335.000000
414346.000000
415386.000000
416404.000000
417394.000000
418402.000000
419437.000000
420446.000000
421408.000000
422396.000000
423393.000000
424401.000000
425393.000000
426425.000000
427462.000000
428477.000000
429448.000000
430445.000000
431457.000000
432456.000000
433423.000000
434424.000000
435427.000000
436404.000000
437360.000000
438289.000000
439303.000000
440320.000000
441336.000000
442343.000000
443357.000000
444379.000000
445406.000000
446425.000000
447444.000000
448439.000000
449479.000000
450547.000000
451589.000000
452614.000000
453626.000000
454649.000000
455689.000000
456720.000000
457727.000000
458741.000000
459750.000000
460758.000000
461735.000000
462724.000000
463736.000000
464754.000000
465779.000000
466788.000000
467808.000000
468854.000000
469893.000000
470913.000000
471968.000000
473039.000000
474078.000000
475093.000000
476125.000000
477148.000000
478175.000000
479155.000000
480141.000000
481155.000000
482187.000000
483190.000000
484208.000000
485239.000000
486274.000000
487268.000000
488261.000000
489272.000000
490284.000000
491251.000000
492259.000000
493278.000000
494285.000000
495263.000000
496228.000000
497205.000000
498193.000000
499182.000000
500132.000000
501088.000000
502096.000000
503091.000000
504085.000000
505051.000000
506006.000000
506983.000000
507966.000000
508976.000000
509971.000000
510984.000000
512013.000000
513003.000000
513963.000000
514950.000000
515937.000000
516910.000000
517870.000000
518839.000000
519809.000000
520801.000000
521779.000000
522749.000000
523749.000000
524762.000000
525762.000000
526759.000000
527676.000000
528611.000000
529712.000000
530807.000000
531859.000000
532891.000000
533919.000000
534932.000000
535964.000000
536999.000000
538037.000000
539068.000000
540080.000000
541105.000000
542160.000000
543210.000000
544219.000000
545242.000000
546262.000000
547265.000000
548298.000000
549307.000000
550311.000000
551348.000000
552366.000000
553380.000000
554366.000000
555349.000000
556403.000000
557454.000000
558528.000000
559567.000000
560585.000000
561618.000000
562670.000000
563707.000000
564714.000000
565748.000000
566782.000000
567790.000000
568780.000000
569787.000000
570784.000000
571763.000000
572739.000000
573750.000000
574752.000000
575741.000000
576739.000000
577755.000000
578772.000000
579773.000000
580745.000000
581736.000000
582730.000000
583731.000000
584703.000000
585686.000000
586670.000000
587663.000000
588618.000000
589599.000000
590600.000000
591624.000000
592628.000000
593623.000000
594654.000000
595664.000000
596636.000000
597622.000000
598630.000000
599649.000000
600663.000000
601688.000000
602737.000000
603790.000000
604808.000000
605820.000000
606861.000000
607897.000000
608937.000000
609928.000000
610947.000000
611998.000000
613060.000000
614076.000000
615066.000000
616130.000000
617171.000000
618203.000000
619215.000000
620277.000000
621353.000000
622406.000000
623440.000000
624443.000000
625478.000000
626534.000000
627580.000000
628601.000000
629610.000000
630639.000000
631678.000000
632678.000000
633671.000000
634683.000000
635689.000000
636682.000000
637686.000000
638696.000000
639690.000000
640665.000000
641627.000000
642605.000000
643582.000000
644563.000000
645524.000000
646498.000000
647474.000000
648461.000000
649436.000000
650438.000000
651444.000000
652461.000000
653450.000000
654466.000000
655479.000000
656488.000000
657442.000000
658441.000000
659478.000000
660497.000000
661505.000000
662543.000000
663558.000000
664586.000000
665569.000000
666568.000000
667604.000000
668617.000000
669606.000000
670626.000000
671714.000000
672800.000000
673866.000000
674912.000000
676008.000000
677107.000000
678155.000000
679205.000000
680278.000000
681336.000000
682343.000000
683367.000000
684434.000000
685482.000000
686510.000000
687521.000000
688582.000000
689645.000000
690669.000000
691677.000000
692702.000000
693732.000000
694729.000000
695733.000000
696757.000000
697771.000000
698821.000000
699824.000000
700836.000000
701841.000000
702832.000000
703775.000000
704778.000000
705785.000000
706773.000000
707754.000000
708788.000000
709833.000000
710853.000000
711846.000000
712868.000000
713873.000000
714895.000000
715880.000000
716906.000000
717935.000000
718951.000000
719946.000000
720980.000000
722027.000000
723096.000000
724142.000000
725200.000000
726298.000000
727382.000000
728404.000000
729454.000000
730496.000000
731510.000000
732522.000000
733559.000000
734612.000000
735652.000000
736658.000000
737707.000000
738738.000000
739752.000000
740750.000000
741791.000000
742824.000000
743822.000000
744828.000000
745860.000000
746890.000000
747869.000000
748845.000000
749892.000000
750937.000000
751977.000000
752994.000000
754047.000000
755116.000000
756180.000000
757212.000000
758242.000000
759288.000000
760302.000000
761289.000000
762289.000000
763326.000000
764367.000000
765378.000000
766410.000000
767462.000000
768498.000000
769497.000000
770520.000000
771530.000000
772551.000000
773571.000000
774597.000000
775606.000000
776610.000000
777579.000000
778581.000000
779594.000000
780583.000000
781557.000000
782551.000000
783512.000000
784483.000000
785430.000000
786404.000000
787379.000000
788393.000000
789364.000000
790344.000000
791357.000000
792401.000000
793417.000000
794414.000000
795422.000000
796453.000000
797494.000000
798506.000000
799506.000000
800555.000000
801615.000000
802659.000000
803679.000000
804749.000000
805806.000000
806825.000000
807840.000000
808879.000000
809899.000000
810918.000000
811960.000000
813022.000000
814092.000000
815124.000000
816155.000000
817189.000000
818215.000000
819248.000000
820308.000000
821364.000000
822403.000000
823456.000000
824531.000000
825592.000000
826635.000000
827640.000000
828707.000000
829780.000000
830820.000000
831837.000000
832878.000000
833914.000000
834926.000000
835925.000000
836977.000000
838023.000000
839074.000000
840090.000000
841113.000000
842137.000000
843146.000000
844160.000000
845199.000000
846265.000000
847318.000000
848358.000000
849418.000000
850466.000000
851539.000000
852592.000000
853638.000000
854720.000000
855780.000000
856813.000000
857890.000000
858978.000000
860080.000000
861136.000000
862203.000000
863261.000000
864333.000000
865378.000000
866426.000000
867500.000000
868548.000000
869574.000000
870586.000000
871641.000000
872677.000000
873693.000000
874688.000000
875713.000000
876742.000000
877783.000000
878782.000000
879831.000000
880874.000000
881942.000000
882975.000000
884014.000000
885084.000000
886139.000000
887168.000000
888191.000000
889221.000000
890236.000000
891230.000000
892253.000000
893242.000000
894225.000000
895239.000000
896267.000000
897290.000000
898306.000000
899310.000000
900338.000000
901361.000000
902355.000000
903359.000000
904378.000000
