ECG (ms)
568.000000
1342.000000
2140.000000
2942.000000
3749.000000
4549.000000
5323.000000
6056.000000
6787.000000
7536.000000
8282.000000
9089.000000
9909.000000
10720.000000
11517.000000
12349.000000
13183.000000
13985.000000
14802.000000
15634.000000
16447.000000
17272.000000
18110.000000
18928.000000
19726.000000
20527.000000
21335.000000
22149.000000
22971.000000
23785.000000
24612.000000
25461.000000
26279.000000
27089.000000
27901.000000
28733.000000
29553.000000
30360.000000
31182.000000
32008.000000
32828.000000
33623.000000
34428.000000
35227.000000
36003.000000
36770.000000
37558.000000
38369.000000
39183.000000
40008.000000
40868.000000
41730.000000
42570.000000
43393.000000
44212.000000
45020.000000
45797.000000
46558.000000
47327.000000
48133.000000
49003.000000
49865.000000
50708.000000
51563.000000
52416.000000
53267.000000
54096.000000
54890.000000
55671.000000
56457.000000
57252.000000
58035.000000
58816.000000
59621.000000
60451.000000
61278.000000
62071.000000
62846.000000
63630.000000
64422.000000
65213.000000
65999.000000
66806.000000
67655.000000
68506.000000
69318.000000
70108.000000
70907.000000
71729.000000
72558.000000
73344.000000
74106.000000
74884.000000
75687.000000
76513.000000
77322.000000
78121.000000
78938.000000
79800.000000
80667.000000
81497.000000
82328.000000
83173.000000
83989.000000
84793.000000
85610.000000
86463.000000
87300.000000
88116.000000
88913.000000
89723.000000
90563.000000
91421.000000
92269.000000
93118.000000
93970.000000
94805.000000
95611.000000
96429.000000
97274.000000
98120.000000
98968.000000
99847.000000
100738.000000
101596.000000
102514.000000
103423.000000
104298.000000
105208.000000
106124.000000
107009.000000
107851.000000
108691.000000
109541.000000
110391.000000
111214.000000
112052.000000
112903.000000
113753.000000
114589.000000
115441.000000
116294.000000
117125.000000
117932.000000
118749.000000
119578.000000
120392.000000
121192.000000
122002.000000
122822.000000
123643.000000
124442.000000
125248.000000
126046.000000
126821.000000
127574.000000
128330.000000
129119.000000
129957.000000
130796.000000
131633.000000
132473.000000
133325.000000
134172.000000
134999.000000
135808.000000
136624.000000
137438.000000
138255.000000
139045.000000
139838.000000
140639.000000
141462.000000
142293.000000
143108.000000
143917.000000
144729.000000
145546.000000
146365.000000
147159.000000
147951.000000
148772.000000
149589.000000
150389.000000
151215.000000
152066.000000
152896.000000
153710.000000
154541.000000
155355.000000
156138.000000
156908.000000
157714.000000
158559.000000
159394.000000
160225.000000
161080.000000
161934.000000
162757.000000
163598.000000
164454.000000
165294.000000
166108.000000
166918.000000
167744.000000
168563.000000
169351.000000
170151.000000
170987.000000
171823.000000
172637.000000
173464.000000
174304.000000
175124.000000
175943.000000
176783.000000
177627.000000
178463.000000
179272.000000
180065.000000
180872.000000
181704.000000
182542.000000
183358.000000
184162.000000
184967.000000
185764.000000
186570.000000
187340.000000
188137.000000
188962.000000
189796.000000
190624.000000
191493.000000
192417.000000
193331.000000
194191.000000
195029.000000
195899.000000
196778.000000
197641.000000
198482.000000
199345.000000
200216.000000
201049.000000
201861.000000
202682.000000
203503.000000
204337.000000
205210.000000
206126.000000
207005.000000
207875.000000
208778.000000
209634.000000
210465.000000
211310.000000
212129.000000
212928.000000
213759.000000
214627.000000
215484.000000
216355.000000
217256.000000
218107.000000
218951.000000
219829.000000
220709.000000
221576.000000
222400.000000
223214.000000
224023.000000
224839.000000
225656.000000
226451.000000
227264.000000
228106.000000
228975.000000
229850.000000
230684.000000
231513.000000
232367.000000
233218.000000
234036.000000
234846.000000
235668.000000
236510.000000
237368.000000
238200.000000
238999.000000
239779.000000
240532.000000
241253.000000
241978.000000
242764.000000
243547.000000
244320.000000
245097.000000
245872.000000
246620.000000
247343.000000
248054.000000
248778.000000
249505.000000
250253.000000
251041.000000
251861.000000
252663.000000
253430.000000
254198.000000
254974.000000
255766.000000
256556.000000
257341.000000
258164.000000
258998.000000
259826.000000
260644.000000
261486.000000
262315.000000
263124.000000
263945.000000
264763.000000
265548.000000
266326.000000
267120.000000
267902.000000
268682.000000
269480.000000
270305.000000
271116.000000
271904.000000
272696.000000
273544.000000
274373.000000
275160.000000
275962.000000
276760.000000
277537.000000
278335.000000
279175.000000
280001.000000
280839.000000
281695.000000
282534.000000
283337.000000
284137.000000
284938.000000
285709.000000
286479.000000
287313.000000
288140.000000
288959.000000
289790.000000
290644.000000
291514.000000
292349.000000
293186.000000
294012.000000
294808.000000
295586.000000
296383.000000
297186.000000
297986.000000
298813.000000
299655.000000
300486.000000
301308.000000
302137.000000
302922.000000
303695.000000
304466.000000
305226.000000
305999.000000
306807.000000
307641.000000
308467.000000
309296.000000
310135.000000
310956.000000
311756.000000
312573.000000
313388.000000
314190.000000
314960.000000
315743.000000
316553.000000
317369.000000
318170.000000
318986.000000
319806.000000
320601.000000
321388.000000
322215.000000
323041.000000
323855.000000
324677.000000
325501.000000
326297.000000
327115.000000
327944.000000
328767.000000
329584.000000
330410.000000
331230.000000
332017.000000
332818.000000
333637.000000
334432.000000
335251.000000
336069.000000
336855.000000
337645.000000
338437.000000
339209.000000
339972.000000
340751.000000
341545.000000
342339.000000
343124.000000
343895.000000
344700.000000
345514.000000
346327.000000
347109.000000
347865.000000
348616.000000
349371.000000
350150.000000
350945.000000
351750.000000
352598.000000
353471.000000
354344.000000
355189.000000
356018.000000
356842.000000
357670.000000
358480.000000
359290.000000
360101.000000
360936.000000
361783.000000
362617.000000
363417.000000
364211.000000
365005.000000
365811.000000
366600.000000
367368.000000
368176.000000
368984.000000
369770.000000
370561.000000
371400.000000
372266.000000
373106.000000
373912.000000
374715.000000
375501.000000
376269.000000
377042.000000
377864.000000
378750.000000
379643.000000
380505.000000
381400.000000
382264.000000
383091.000000
383906.000000
384717.000000
385489.000000
386231.000000
386966.000000
387710.000000
388514.000000
389397.000000
390265.000000
391063.000000
391847.000000
392579.000000
393314.000000
394058.000000
394813.000000
395545.000000
396253.000000
396974.000000
397700.000000
398440.000000
399197.000000
399974.000000
400749.000000
401493.000000
402233.000000
402971.000000
403708.000000
404431.000000
405146.000000
405867.000000
406606.000000
407362.000000
408133.000000
408893.000000
409658.000000
410435.000000
411214.000000
412013.000000
412789.000000
413557.000000
414323.000000
415085.000000
415838.000000
416584.000000
417333.000000
418074.000000
418828.000000
419621.000000
420415.000000
421205.000000
422020.000000
422844.000000
423627.000000
424389.000000
425139.000000
425916.000000
426697.000000
427455.000000
428206.000000
428964.000000
429748.000000
430563.000000
431369.000000
432142.000000
432914.000000
433705.000000
434492.000000
435265.000000
436030.000000
436793.000000
437573.000000
438377.000000
439175.000000
439946.000000
440718.000000
441484.000000
442254.000000
443030.000000
443800.000000
444571.000000
445372.000000
446203.000000
447043.000000
447875.000000
448682.000000
449491.000000
450308.000000
451101.000000
451854.000000
452603.000000
453343.000000
454092.000000
454872.000000
455655.000000
456438.000000
457244.000000
458073.000000
458902.000000
459705.000000
460509.000000
461317.000000
462108.000000
462899.000000
463660.000000
464439.000000
465254.000000
466063.000000
466852.000000
467633.000000
468437.000000
469261.000000
470096.000000
470911.000000
471728.000000
472555.000000
473364.000000
474155.000000
474947.000000
475771.000000
476599.000000
477448.000000
478287.000000
479143.000000
479993.000000
480834.000000
481647.000000
482459.000000
483291.000000
484122.000000
484936.000000
485754.000000
486584.000000
487410.000000
488195.000000
488955.000000
489718.000000
490490.000000
491271.000000
492068.000000
492855.000000
493680.000000
494456.000000
495213.000000
495943.000000
496645.000000
497348.000000
498029.000000
498702.000000
499362.000000
500043.000000
500736.000000
501435.000000
502149.000000
502866.000000
503570.000000
504252.000000
504924.000000
505598.000000
506300.000000
507056.000000
507847.000000
508656.000000
509493.000000
510357.000000
511231.000000
512088.000000
512916.000000
513769.000000
514631.000000
515456.000000
516280.000000
517112.000000
517941.000000
518740.000000
519521.000000
520299.000000
521085.000000
521890.000000
522718.000000
523585.000000
524485.000000
525331.000000
526158.000000
526986.000000
527800.000000
528571.000000
529325.000000
530075.000000
530856.000000
531693.000000
532525.000000
533377.000000
534210.000000
534981.000000
535688.000000
536377.000000
537087.000000
537838.000000
538628.000000
539391.000000
540148.000000
540921.000000
541726.000000
542504.000000
543274.000000
544070.000000
544906.000000
545717.000000
546505.000000
547315.000000
548121.000000
548898.000000
549689.000000
550498.000000
551325.000000
552140.000000
552918.000000
553703.000000
554481.000000
555233.000000
555978.000000
556776.000000
557572.000000
558349.000000
559117.000000
559892.000000
560686.000000
561457.000000
562219.000000
562984.000000
563770.000000
564537.000000
565293.000000
566052.000000
566831.000000
567616.000000
568379.000000
569138.000000
569918.000000
570701.000000
571469.000000
572245.000000
573033.000000
573805.000000
574566.000000
575347.000000
576152.000000
576934.000000
577701.000000
578484.000000
579277.000000
580063.000000
580875.000000
581718.000000
582538.000000
583347.000000
584156.000000
584968.000000
585764.000000
586552.000000
587384.000000
588236.000000
589070.000000
589919.000000
590807.000000
591658.000000
592492.000000
593349.000000
594187.000000
594995.000000
595786.000000
596584.000000
597412.000000
598256.000000
599094.000000
599959.000000
600800.000000
601598.000000
602397.000000
603192.000000
603961.000000
604735.000000
605487.000000
606214.000000
606932.000000
607666.000000
608412.000000
609187.000000
609980.000000
610779.000000
611550.000000
612312.000000
613094.000000
613883.000000
614659.000000
615455.000000
616258.000000
617048.000000
617851.000000
618701.000000
619509.000000
620310.000000
621122.000000
621954.000000
622764.000000
623553.000000
624345.000000
625136.000000
625926.000000
626700.000000
627493.000000
628273.000000
629048.000000
629804.000000
630577.000000
631366.000000
632155.000000
632970.000000
633799.000000
634621.000000
635413.000000
636242.000000
637059.000000
637880.000000
638754.000000
639596.000000
640447.000000
641316.000000
642148.000000
642941.000000
643718.000000
644489.000000
645254.000000
646038.000000
646872.000000
647763.000000
648615.000000
649448.000000
650306.000000
651160.000000
652003.000000
652817.000000
653613.000000
654411.000000
655206.000000
656009.000000
656804.000000
657596.000000
658437.000000
659269.000000
660085.000000
660891.000000
661709.000000
662522.000000
663301.000000
664088.000000
664893.000000
665691.000000
666472.000000
667258.000000
668062.000000
668851.000000
669612.000000
670385.000000
671186.000000
671966.000000
672740.000000
673533.000000
674331.000000
675115.000000
675891.000000
676680.000000
677476.000000
678268.000000
679043.000000
679801.000000
680560.000000
681299.000000
682041.000000
682821.000000
683666.000000
684530.000000
685386.000000
686281.000000
687155.000000
687983.000000
688826.000000
689675.000000
690487.000000
691278.000000
692076.000000
692870.000000
693660.000000
694429.000000
695218.000000
696042.000000
696871.000000
697653.000000
698443.000000
699236.000000
700024.000000
700788.000000
701544.000000
702322.000000
703120.000000
703924.000000
704708.000000
705484.000000
706296.000000
707145.000000
707977.000000
708778.000000
709565.000000
710369.000000
711116.000000
711839.000000
712545.000000
713227.000000
713908.000000
714624.000000
715356.000000
716123.000000
716934.000000
717751.000000
718545.000000
719334.000000
720118.000000
720874.000000
721624.000000
722396.000000
723195.000000
723985.000000
724761.000000
725565.000000
726367.000000
727178.000000
727975.000000
728782.000000
729591.000000
730376.000000
731206.000000
732006.000000
732778.000000
733558.000000
734389.000000
735249.000000
736072.000000
736877.000000
737675.000000
738448.000000
739212.000000
739984.000000
740775.000000
741581.000000
742375.000000
743207.000000
744027.000000
744815.000000
745594.000000
746385.000000
747188.000000
747964.000000
748741.000000
749545.000000
750345.000000
751128.000000
751912.000000
752720.000000
753518.000000
754300.000000
755070.000000
755846.000000
756626.000000
757400.000000
758149.000000
758894.000000
759651.000000
760412.000000
761163.000000
761922.000000
762715.000000
763503.000000
764273.000000
765066.000000
765868.000000
766643.000000
767398.000000
768172.000000
768965.000000
769732.000000
770515.000000
771324.000000
772149.000000
772960.000000
773759.000000
774564.000000
775360.000000
776130.000000
776896.000000
777692.000000
778491.000000
779265.000000
780022.000000
780789.000000
781565.000000
782352.000000
783127.000000
783917.000000
784748.000000
785561.000000
786410.000000
787252.000000
788066.000000
788863.000000
789665.000000
790450.000000
791231.000000
792021.000000
792799.000000
793573.000000
794325.000000
795092.000000
795861.000000
796599.000000
797328.000000
798047.000000
798776.000000
799571.000000
800404.000000
801282.000000
802127.000000
802921.000000
803655.000000
804378.000000
805155.000000
805983.000000
806733.000000
807449.000000
808180.000000
808960.000000
809766.000000
810546.000000
811292.000000
812015.000000
812794.000000
813625.000000
814479.000000
815332.000000
816142.000000
816966.000000
817785.000000
818584.000000
819355.000000
820122.000000
820908.000000
821702.000000
822471.000000
823246.000000
824007.000000
824758.000000
825506.000000
826260.000000
827020.000000
827785.000000
828562.000000
829346.000000
830114.000000
830858.000000
831605.000000
832337.000000
833044.000000
833726.000000
834409.000000
835112.000000
835854.000000
836654.000000
837501.000000
838317.000000
839096.000000
839881.000000
840684.000000
841510.000000
842303.000000
843064.000000
843844.000000
844643.000000
845441.000000
846217.000000
847024.000000
847839.000000
848622.000000
849384.000000
850163.000000
850940.000000
851712.000000
852478.000000
853256.000000
854058.000000
854827.000000
855587.000000
856377.000000
857193.000000
857996.000000
858813.000000
859631.000000
860429.000000
861201.000000
861975.000000
862771.000000
863560.000000
864339.000000
865134.000000
865951.000000
866773.000000
867573.000000
868375.000000
869206.000000
870041.000000
870844.000000
871642.000000
872447.000000
873232.000000
874013.000000
874818.000000
875629.000000
876422.000000
877214.000000
878023.000000
878818.000000
879599.000000
880396.000000
881205.000000
881995.000000
882776.000000
883556.000000
884362.000000
885176.000000
885973.000000
886766.000000
887561.000000
888362.000000
889137.000000
889906.000000
890692.000000
891523.000000
892364.000000
893199.000000
894001.000000
894802.000000
895616.000000
896415.000000
897183.000000
897929.000000
898687.000000
899459.000000
900254.000000
901054.000000
901828.000000
902621.000000
903433.000000
904250.000000
905040.000000
905823.000000
906612.000000
907380.000000
908140.000000
908905.000000
909705.000000
910513.000000
911321.000000
912136.000000
912954.000000
913731.000000
914493.000000
915275.000000
916064.000000
916841.000000
917605.000000
918385.000000
919138.000000
919885.000000
920656.000000
921503.000000
922373.000000
923283.000000
924169.000000
925021.000000
925879.000000
926667.000000
927413.000000
928158.000000
928873.000000
929614.000000
930358.000000
931116.000000
931905.000000
932730.000000
