ECG (ms)
32.000000
703.000000
1376.000000
2112.000000
2826.000000
3529.000000
4333.000000
5101.000000
5825.000000
6528.000000
7270.000000
8040.000000
8868.000000
9655.000000
10374.000000
11058.000000
11752.000000
12493.000000
13264.000000
14049.000000
14790.000000
15482.000000
16196.000000
16948.000000
17733.000000
18518.000000
19265.000000
19966.000000
20694.000000
21472.000000
22276.000000
23039.000000
23762.000000
24451.000000
25184.000000
25922.000000
26682.000000
27467.000000
28200.000000
28903.000000
29637.000000
30406.000000
31168.000000
31886.000000
32582.000000
33345.000000
34152.000000
34944.000000
35677.000000
36362.000000
37065.000000
37771.000000
38520.000000
39251.000000
39958.000000
40642.000000
41353.000000
42134.000000
42957.000000
43757.000000
44476.000000
45166.000000
45894.000000
46682.000000
47491.000000
48235.000000
48942.000000
49640.000000
50381.000000
51156.000000
51907.000000
52626.000000
53335.000000
54101.000000
54877.000000
55658.000000
56390.000000
57087.000000
57810.000000
58561.000000
59346.000000
60151.000000
60913.000000
61624.000000
62365.000000
63120.000000
63910.000000
64663.000000
65384.000000
66106.000000
66891.000000
67694.000000
68428.000000
69128.000000
69803.000000
70496.000000
71251.000000
72083.000000
72827.000000
73525.000000
74238.000000
74998.000000
75795.000000
76556.000000
77264.000000
77968.000000
78698.000000
79471.000000
80268.000000
80983.000000
81662.000000
82337.000000
83033.000000
83819.000000
84563.000000
85257.000000
85952.000000
86662.000000
87483.000000
88251.000000
88969.000000
89653.000000
90346.000000
91022.000000
91681.000000
92334.000000
93134.000000
93952.000000
94745.000000
95463.000000
96142.000000
96844.000000
97574.000000
98330.000000
99082.000000
99804.000000
100540.000000
101378.000000
102201.000000
102964.000000
103667.000000
104355.000000
105081.000000
105846.000000
106555.000000
107223.000000
107908.000000
108679.000000
109428.000000
110126.000000
110800.000000
111499.000000
112281.000000
113029.000000
113720.000000
114408.000000
115140.000000
115883.000000
116625.000000
117354.000000
118074.000000
118891.000000
119725.000000
120531.000000
121252.000000
121962.000000
122702.000000
123454.000000
124173.000000
124881.000000
125668.000000
126508.000000
127306.000000
128071.000000
128828.000000
129590.000000
130400.000000
131151.000000
131844.000000
132530.000000
133260.000000
134051.000000
134868.000000
135632.000000
136368.000000
137064.000000
137717.000000
138387.000000
139214.000000
139950.000000
140660.000000
141386.000000
142245.000000
143070.000000
143795.000000
144472.000000
145141.000000
145875.000000
146665.000000
147381.000000
148067.000000
148765.000000
149561.000000
150346.000000
151079.000000
151783.000000
152500.000000
153251.000000
154004.000000
154732.000000
155430.000000
156103.000000
156803.000000
157580.000000
158348.000000
159060.000000
159726.000000
160392.000000
161112.000000
161853.000000
162568.000000
163246.000000
163983.000000
164765.000000
165547.000000
166265.000000
166946.000000
167636.000000
168334.000000
169016.000000
169679.000000
170338.000000
171052.000000
171810.000000
172550.000000
173236.000000
173884.000000
174553.000000
175279.000000
176034.000000
176763.000000
177430.000000
178111.000000
178857.000000
179595.000000
180310.000000
181001.000000
181734.000000
182500.000000
183233.000000
183924.000000
184588.000000
185269.000000
185982.000000
186677.000000
187345.000000
188013.000000
188797.000000
189559.000000
190260.000000
190917.000000
191587.000000
192262.000000
192951.000000
193605.000000
194240.000000
194893.000000
195649.000000
196392.000000
197080.000000
197743.000000
198458.000000
199220.000000
199945.000000
200619.000000
201286.000000
201982.000000
202684.000000
203352.000000
204000.000000
204667.000000
205441.000000
206229.000000
206914.000000
207559.000000
208200.000000
208869.000000
209572.000000
210271.000000
210939.000000
211643.000000
212407.000000
213192.000000
213901.000000
214567.000000
215260.000000
215982.000000
216658.000000
217306.000000
217945.000000
218659.000000
219454.000000
220195.000000
220884.000000
221580.000000
222305.000000
223075.000000
223829.000000
224544.000000
225241.000000
225961.000000
226699.000000
227400.000000
228071.000000
228753.000000
229450.000000
230123.000000
230792.000000
231444.000000
232104.000000
232755.000000
233404.000000
234095.000000
234829.000000
235545.000000
236216.000000
236873.000000
237545.000000
238233.000000
238934.000000
239594.000000
240246.000000
240931.000000
241645.000000
242350.000000
243022.000000
243683.000000
244395.000000
245168.000000
245901.000000
246601.000000
247302.000000
248003.000000
248677.000000
249361.000000
250190.000000
251034.000000
251853.000000
252592.000000
253314.000000
254193.000000
254990.000000
255735.000000
256451.000000
257193.000000
257964.000000
258731.000000
259455.000000
260157.000000
260892.000000
261659.000000
262427.000000
263142.000000
263848.000000
264606.000000
265419.000000
266186.000000
266899.000000
267604.000000
268332.000000
269097.000000
269853.000000
270554.000000
271241.000000
271996.000000
272775.000000
273502.000000
274206.000000
274925.000000
275659.000000
276409.000000
277095.000000
277763.000000
278457.000000
279185.000000
279875.000000
280544.000000
281223.000000
281949.000000
282703.000000
283387.000000
284048.000000
284741.000000
285512.000000
286283.000000
286973.000000
287643.000000
288342.000000
289051.000000
289729.000000
290382.000000
291047.000000
291726.000000
292401.000000
293064.000000
293715.000000
294443.000000
295228.000000
295968.000000
296645.000000
297301.000000
297989.000000
298690.000000
299372.000000
300048.000000
300737.000000
301468.000000
302207.000000
302890.000000
303544.000000
304227.000000
304975.000000
305671.000000
306339.000000
307020.000000
307699.000000
308381.000000
309039.000000
309701.000000
310390.000000
311060.000000
311705.000000
312388.000000
313099.000000
313791.000000
314466.000000
315109.000000
315775.000000
316479.000000
317208.000000
317876.000000
318519.000000
319169.000000
319866.000000
320612.000000
321338.000000
322020.000000
322728.000000
323504.000000
324260.000000
324979.000000
325675.000000
326398.000000
327180.000000
327983.000000
328762.000000
329486.000000
330194.000000
330930.000000
331712.000000
332487.000000
333242.000000
333965.000000
334685.000000
335437.000000
336223.000000
336954.000000
337674.000000
338416.000000
339240.000000
340066.000000
340835.000000
341564.000000
342322.000000
343115.000000
343918.000000
344678.000000
345391.000000
346085.000000
346843.000000
347620.000000
348374.000000
349089.000000
349831.000000
350666.000000
351532.000000
352295.000000
352997.000000
353712.000000
354456.000000
355279.000000
356061.000000
356836.000000
357686.000000
358595.000000
359425.000000
360157.000000
360876.000000
361616.000000
362381.000000
363107.000000
363845.000000
364573.000000
365319.000000
366054.000000
366735.000000
367387.000000
368054.000000
368744.000000
369431.000000
370127.000000
370901.000000
371620.000000
372284.000000
372980.000000
373710.000000
374427.000000
375106.000000
375770.000000
376477.000000
377255.000000
378008.000000
378701.000000
379407.000000
380161.000000
380899.000000
381635.000000
382340.000000
383033.000000
383790.000000
384578.000000
385351.000000
386067.000000
386740.000000
387414.000000
388093.000000
388844.000000
389563.000000
390254.000000
391017.000000
391832.000000
392623.000000
393350.000000
394068.000000
394799.000000
395545.000000
396258.000000
396933.000000
397609.000000
398325.000000
399093.000000
399828.000000
400509.000000
401198.000000
401893.000000
402624.000000
403317.000000
403993.000000
404729.000000
405539.000000
406307.000000
407006.000000
407698.000000
408432.000000
409176.000000
409894.000000
410585.000000
411309.000000
412217.000000
413030.000000
413754.000000
414429.000000
415109.000000
415818.000000
416551.000000
417270.000000
417994.000000
418811.000000
419660.000000
420441.000000
421141.000000
421850.000000
422609.000000
423421.000000
424152.000000
424853.000000
425565.000000
426336.000000
427203.000000
428041.000000
428785.000000
429492.000000
430245.000000
431038.000000
431765.000000
432466.000000
433168.000000
434011.000000
434849.000000
435576.000000
436278.000000
436993.000000
437718.000000
438431.000000
439139.000000
439845.000000
440662.000000
441471.000000
442210.000000
442898.000000
443599.000000
444352.000000
445099.000000
445799.000000
446479.000000
447214.000000
447993.000000
448722.000000
449423.000000
450134.000000
450998.000000
451840.000000
452613.000000
453329.000000
454040.000000
454766.000000
455494.000000
456162.000000
456818.000000
457543.000000
458455.000000
459209.000000
459893.000000
460577.000000
461318.000000
462180.000000
462912.000000
463587.000000
464244.000000
464952.000000
465696.000000
466405.000000
467093.000000
467837.000000
468585.000000
469287.000000
470018.000000
470789.000000
471571.000000
472278.000000
472949.000000
473626.000000
474338.000000
475032.000000
475702.000000
476379.000000
477170.000000
478021.000000
478828.000000
479557.000000
480272.000000
481024.000000
481793.000000
482486.000000
483149.000000
483820.000000
484536.000000
485311.000000
486076.000000
486763.000000
487431.000000
488137.000000
488921.000000
489730.000000
490493.000000
491215.000000
492028.000000
492871.000000
493699.000000
494438.000000
495141.000000
495861.000000
496635.000000
497375.000000
498076.000000
498794.000000
499564.000000
500340.000000
501076.000000
501767.000000
502464.000000
503177.000000
503914.000000
504648.000000
505337.000000
506025.000000
506752.000000
507519.000000
508250.000000
508934.000000
509615.000000
510332.000000
511084.000000
511788.000000
512471.000000
513169.000000
513903.000000
514605.000000
515280.000000
516003.000000
516751.000000
517487.000000
518165.000000
518829.000000
519537.000000
520293.000000
521004.000000
521690.000000
522423.000000
523216.000000
524036.000000
524743.000000
525416.000000
526116.000000
526884.000000
527657.000000
528384.000000
529105.000000
529948.000000
530829.000000
531620.000000
532331.000000
533016.000000
533735.000000
534505.000000
535230.000000
535957.000000
536767.000000
537640.000000
538460.000000
539210.000000
539914.000000
540628.000000
541365.000000
542132.000000
542897.000000
543698.000000
544552.000000
545387.000000
546152.000000
546922.000000
547719.000000
548492.000000
549221.000000
549932.000000
550679.000000
551458.000000
552197.000000
552925.000000
553651.000000
554379.000000
555123.000000
555864.000000
556576.000000
557251.000000
557954.000000
558718.000000
559541.000000
560306.000000
561046.000000
561752.000000
562489.000000
563292.000000
564094.000000
564810.000000
565474.000000
566151.000000
566963.000000
567784.000000
568658.000000
569436.000000
570200.000000
571020.000000
571857.000000
572620.000000
573342.000000
574066.000000
574827.000000
575636.000000
576457.000000
577236.000000
578016.000000
578922.000000
579796.000000
580581.000000
581340.000000
582148.000000
582985.000000
583787.000000
584525.000000
585255.000000
586114.000000
587015.000000
587795.000000
588510.000000
589203.000000
589911.000000
590714.000000
591435.000000
592139.000000
592903.000000
593780.000000
594562.000000
595292.000000
595989.000000
596784.000000
597767.000000
598610.000000
599415.000000
600145.000000
600866.000000
601647.000000
602427.000000
603160.000000
603829.000000
604480.000000
605243.000000
606100.000000
606931.000000
607680.000000
608419.000000
609200.000000
610005.000000
610753.000000
611483.000000
612227.000000
613032.000000
613757.000000
614466.000000
615223.000000
616039.000000
616796.000000
617513.000000
618271.000000
619063.000000
619809.000000
620503.000000
621174.000000
621886.000000
622637.000000
623368.000000
624069.000000
624796.000000
625580.000000
626389.000000
627110.000000
627830.000000
628628.000000
629436.000000
630180.000000
630868.000000
631569.000000
632313.000000
633053.000000
633778.000000
634481.000000
635206.000000
635977.000000
636719.000000
637414.000000
638094.000000
638822.000000
639674.000000
640493.000000
641220.000000
641916.000000
642590.000000
643371.000000
644208.000000
645034.000000
645845.000000
646562.000000
647293.000000
648108.000000
648952.000000
649803.000000
650542.000000
651236.000000
651899.000000
652642.000000
653518.000000
654405.000000
655179.000000
655894.000000
656601.000000
657406.000000
658188.000000
658920.000000
659608.000000
660300.000000
661002.000000
661681.000000
662343.000000
663076.000000
663831.000000
664528.000000
665214.000000
665949.000000
666689.000000
667410.000000
668090.000000
668752.000000
669503.000000
670363.000000
671112.000000
671797.000000
672460.000000
673172.000000
673990.000000
674757.000000
675477.000000
676222.000000
677019.000000
677814.000000
678591.000000
679322.000000
680008.000000
680724.000000
681470.000000
682251.000000
682992.000000
683733.000000
684563.000000
685429.000000
686239.000000
687017.000000
687823.000000
688606.000000
689320.000000
689990.000000
690673.000000
691471.000000
692278.000000
692999.000000
693699.000000
694483.000000
695310.000000
696144.000000
696909.000000
697636.000000
698417.000000
699248.000000
700105.000000
700854.000000
701562.000000
702277.000000
703072.000000
703968.000000
704792.000000
705609.000000
706485.000000
707377.000000
708213.000000
708981.000000
709732.000000
710536.000000
711483.000000
712348.000000
713112.000000
713875.000000
714671.000000
715462.000000
716221.000000
716952.000000
717690.000000
718480.000000
719309.000000
720074.000000
720777.000000
721445.000000
722137.000000
722974.000000
723799.000000
724607.000000
725560.000000
726512.000000
727403.000000
728172.000000
728936.000000
729779.000000
730626.000000
731411.000000
732146.000000
732910.000000
733725.000000
734563.000000
735320.000000
736072.000000
736856.000000
737675.000000
738432.000000
739146.000000
739859.000000
740602.000000
741365.000000
742117.000000
742852.000000
743606.000000
744419.000000
745279.000000
746061.000000
746785.000000
747507.000000
748249.000000
749033.000000
749735.000000
750409.000000
751108.000000
751862.000000
752630.000000
753342.000000
754064.000000
754829.000000
755584.000000
756294.000000
756971.000000
757659.000000
758457.000000
759234.000000
759961.000000
760657.000000
761404.000000
762174.000000
762925.000000
763620.000000
764299.000000
765012.000000
765785.000000
766621.000000
767402.000000
768119.000000
768807.000000
769536.000000
770305.000000
771094.000000
771834.000000
772526.000000
773240.000000
774005.000000
774734.000000
775432.000000
776119.000000
776869.000000
777627.000000
778330.000000
779008.000000
779717.000000
780515.000000
781383.000000
782166.000000
782872.000000
783556.000000
784285.000000
785120.000000
785946.000000
786740.000000
787522.000000
788310.000000
789100.000000
789854.000000
790570.000000
791309.000000
792114.000000
792982.000000
793787.000000
794518.000000
795262.000000
796029.000000
796762.000000
797463.000000
798150.000000
798871.000000
799677.000000
800435.000000
801132.000000
801862.000000
802624.000000
803371.000000
804072.000000
804763.000000
805500.000000
806319.000000
807100.000000
807801.000000
808510.000000
809241.000000
810013.000000
810747.000000
811468.000000
812260.000000
813182.000000
814065.000000
814831.000000
815565.000000
816354.000000
817214.000000
818075.000000
818879.000000
819714.000000
820589.000000
821471.000000
822270.000000
823073.000000
823919.000000
824773.000000
825553.000000
826309.000000
827207.000000
828137.000000
829014.000000
829798.000000
830597.000000
831535.000000
832414.000000
833182.000000
833887.000000
834589.000000
835401.000000
836347.000000
837179.000000
837944.000000
838804.000000
839708.000000
840576.000000
841339.000000
842146.000000
843036.000000
843920.000000
844702.000000
845423.000000
846175.000000
846972.000000
847847.000000
848665.000000
849400.000000
850178.000000
851035.000000
851907.000000
852699.000000
853430.000000
854207.000000
855065.000000
855900.000000
856659.000000
857372.000000
858143.000000
859051.000000
859901.000000
860651.000000
861373.000000
862119.000000
862952.000000
863786.000000
864574.000000
865328.000000
866139.000000
866993.000000
867785.000000
868526.000000
869302.000000
870081.000000
870887.000000
871664.000000
872400.000000
873156.000000
873985.000000
874801.000000
875547.000000
876252.000000
876976.000000
877778.000000
878598.000000
879352.000000
880057.000000
880739.000000
881448.000000
882209.000000
882963.000000
883678.000000
884509.000000
885314.000000
886054.000000
886783.000000
887575.000000
888438.000000
889270.000000
890005.000000
890705.000000
891443.000000
892317.000000
893188.000000
893971.000000
894717.000000
895456.000000
896268.000000
897074.000000
897788.000000
898480.000000
899249.000000
900101.000000
900862.000000
901575.000000
902288.000000
903083.000000
903919.000000
904705.000000
905415.000000
906094.000000
906807.000000
907591.000000
908377.000000
909102.000000
909821.000000
910671.000000
911504.000000
912326.000000
913073.000000
913786.000000
914548.000000
915389.000000
916207.000000
916952.000000
917688.000000
918595.000000
919485.000000
920304.000000
921040.000000
921814.000000
922669.000000
923500.000000
924272.000000
924991.000000
925728.000000
926491.000000
927282.000000
928023.000000
928749.000000
929531.000000
930337.000000
931121.000000
931846.000000
932538.000000
933239.000000
933966.000000
934733.000000
935439.000000
936177.000000
937118.000000
938026.000000
938828.000000
939620.000000
940541.000000
941381.000000
942161.000000
942872.000000
943562.000000
944358.000000
945232.000000
946043.000000
946823.000000
947630.000000
948486.000000
949261.000000
949983.000000
950704.000000
951507.000000
952347.000000
953068.000000
953785.000000
954541.000000
955431.000000
956250.000000
957020.000000
957736.000000
958454.000000
959275.000000
960097.000000
960919.000000
961666.000000
962422.000000
963225.000000
964038.000000
964825.000000
965550.000000
966282.000000
967167.000000
968018.000000
968757.000000
969455.000000
970167.000000
970986.000000
971854.000000
972648.000000
973430.000000
974277.000000
975137.000000
975914.000000
976628.000000
977337.000000
978098.000000
978901.000000
979660.000000
980416.000000
981238.000000
982112.000000
982891.000000
983622.000000
984374.000000
985208.000000
986048.000000
986803.000000
987534.000000
988331.000000
989323.000000
990162.000000
990898.000000
991602.000000
992343.000000
993158.000000
993916.000000
994651.000000
995416.000000
996287.000000
997153.000000
997927.000000
998675.000000
999445.000000
1000250.000000
1001032.000000
1001766.000000
1002515.000000
1003307.000000
1004132.000000
1004904.000000
1005638.000000
1006364.000000
1007133.000000
1007942.000000
1008712.000000
1009434.000000
1010162.000000
1010914.000000
1011683.000000
1012423.000000
1013138.000000
1013897.000000
1014714.000000
1015584.000000
1016359.000000
1017109.000000
1017868.000000
1018630.000000
1019386.000000
1020108.000000
1020796.000000
1021522.000000
1022332.000000
1023091.000000
1023796.000000
1024474.000000
1025194.000000
1025972.000000
1026709.000000
1027402.000000
1028082.000000
1028819.000000
1029686.000000
1030441.000000
1031128.000000
1031808.000000
1032539.000000
1033297.000000
1033993.000000
1034661.000000
1035372.000000
1036104.000000
1036872.000000
1037587.000000
1038283.000000
1038964.000000
1039725.000000
1040476.000000
1041220.000000
1041918.000000
1042577.000000
1043291.000000
1044091.000000
1044861.000000
1045571.000000
1046257.000000
1047005.000000
1047863.000000
1048663.000000
1049398.000000
1050080.000000
1050743.000000
1051472.000000
1052339.000000
1053097.000000
1053814.000000
1054507.000000
1055211.000000
1056010.000000
1056794.000000
1057547.000000
1058245.000000
1058952.000000
1059771.000000
1060547.000000
1061286.000000
1061976.000000
1062621.000000
1063262.000000
1063909.000000
1064576.000000
1065309.000000
1066126.000000
1066898.000000
1067620.000000
1068305.000000
1069012.000000
1069763.000000
1070544.000000
1071293.000000
1071992.000000
1072657.000000
1073327.000000
1074058.000000
1074803.000000
1075499.000000
1076186.000000
1076888.000000
1077631.000000
1078461.000000
1079191.000000
1079888.000000
1080619.000000
1081374.000000
1082140.000000
1082879.000000
1083587.000000
1084335.000000
1085078.000000
1085827.000000
1086533.000000
1087204.000000
1087888.000000
1088607.000000
1089339.000000
1090040.000000
1090707.000000
1091421.000000
1092178.000000
1092941.000000
1093647.000000
1094326.000000
1095033.000000
1095813.000000
1096547.000000
1097246.000000
1097931.000000
1098691.000000
1099481.000000
1100259.000000
1100972.000000
1101663.000000
1102383.000000
1103165.000000
1103895.000000
1104609.000000
1105430.000000
1106325.000000
1107161.000000
1107902.000000
1108617.000000
1109368.000000
1110140.000000
1110872.000000
1111590.000000
1112366.000000
1113243.000000
1114118.000000
1114879.000000
1115602.000000
1116344.000000
1117103.000000
1117861.000000
1118565.000000
1119351.000000
1120286.000000
1121153.000000
1121871.000000
1122569.000000
1123298.000000
1124200.000000
1125041.000000
1125794.000000
1126568.000000
1127486.000000
1128404.000000
1129255.000000
1130022.000000
1130792.000000
1131613.000000
1132443.000000
1133206.000000
1133933.000000
1134698.000000
1135577.000000
1136509.000000
1137346.000000
1138106.000000
1138900.000000
1139752.000000
1140658.000000
1141519.000000
1142290.000000
1143029.000000
1143791.000000
1144627.000000
1145494.000000
1146298.000000
1147050.000000
1147840.000000
1148678.000000
1149530.000000
1150321.000000
1151054.000000
1151810.000000
1152610.000000
1153495.000000
1154379.000000
1155184.000000
1155910.000000
1156645.000000
1157440.000000
1158407.000000
1159317.000000
1160111.000000
1160881.000000
1161691.000000
1162561.000000
1163442.000000
1164202.000000
1164914.000000
1165681.000000
1166506.000000
1167362.000000
1168156.000000
1168905.000000
1169654.000000
1170364.000000
1171107.000000
1171968.000000
1172774.000000
1173524.000000
1174258.000000
1175019.000000
1175845.000000
1176650.000000
1177481.000000
1178228.000000
1178969.000000
1179756.000000
1180816.000000
1181711.000000
1182552.000000
1183417.000000
1184358.000000
1185314.000000
1186215.000000
1187024.000000
1187776.000000
1188580.000000
1189524.000000
1190419.000000
1191257.000000
1192083.000000
1192927.000000
1193822.000000
1194692.000000
