ECG (ms)
446.000000
1234.000000
2045.000000
2828.000000
3598.000000
4399.000000
5228.000000
6057.000000
6846.000000
7617.000000
8399.000000
9194.000000
10007.000000
10836.000000
11630.000000
12390.000000
13133.000000
13874.000000
14621.000000
15361.000000
16133.000000
16947.000000
17787.000000
18618.000000
19447.000000
20273.000000
21091.000000
21899.000000
22657.000000
23395.000000
24127.000000
24849.000000
25556.000000
26270.000000
27035.000000
27820.000000
28567.000000
29305.000000
30053.000000
30830.000000
31607.000000
32380.000000
33113.000000
33851.000000
34606.000000
35385.000000
36188.000000
36963.000000
37708.000000
38463.000000
39228.000000
40009.000000
40782.000000
41511.000000
42248.000000
43009.000000
43790.000000
44602.000000
45387.000000
46149.000000
46923.000000
47720.000000
48554.000000
49402.000000
50206.000000
50989.000000
51808.000000
52656.000000
53480.000000
54281.000000
55131.000000
55999.000000
56866.000000
57689.000000
58532.000000
59405.000000
60268.000000
61099.000000
61885.000000
62674.000000
63493.000000
64334.000000
65182.000000
65993.000000
66792.000000
67612.000000
68455.000000
69312.000000
70159.000000
70978.000000
71815.000000
72655.000000
73493.000000
74308.000000
75103.000000
75899.000000
76720.000000
77576.000000
78455.000000
79292.000000
80109.000000
80938.000000
81769.000000
82593.000000
83373.000000
84146.000000
84925.000000
85760.000000
86667.000000
87533.000000
88358.000000
89189.000000
90025.000000
90867.000000
91687.000000
92453.000000
93204.000000
93975.000000
94784.000000
95636.000000
96500.000000
97319.000000
98149.000000
98983.000000
99818.000000
100623.000000
101394.000000
102159.000000
102946.000000
103758.000000
104542.000000
105303.000000
106094.000000
106899.000000
107704.000000
108480.000000
109246.000000
110037.000000
110842.000000
111668.000000
112478.000000
113244.000000
113991.000000
114747.000000
115530.000000
116316.000000
117128.000000
117911.000000
118663.000000
119439.000000
120247.000000
121087.000000
121883.000000
122656.000000
123457.000000
124273.000000
125073.000000
125836.000000
126632.000000
127449.000000
128273.000000
129065.000000
129873.000000
130696.000000
131486.000000
132314.000000
133159.000000
133977.000000
134767.000000
135556.000000
136360.000000
137191.000000
138031.000000
138874.000000
139682.000000
140507.000000
141350.000000
142189.000000
142990.000000
143804.000000
144632.000000
145473.000000
146279.000000
147075.000000
147901.000000
148755.000000
149617.000000
150442.000000
151242.000000
152062.000000
152905.000000
153774.000000
154610.000000
155425.000000
156262.000000
157103.000000
157945.000000
158784.000000
159628.000000
160426.000000
161203.000000
161978.000000
162763.000000
163563.000000
164390.000000
165228.000000
166039.000000
166833.000000
167634.000000
168456.000000
169281.000000
170104.000000
170887.000000
171645.000000
172411.000000
173207.000000
174039.000000
174883.000000
175681.000000
176459.000000
177248.000000
178072.000000
178914.000000
179766.000000
180614.000000
181421.000000
182209.000000
183005.000000
183812.000000
184650.000000
185494.000000
186296.000000
187081.000000
187870.000000
188676.000000
189502.000000
190340.000000
191186.000000
191989.000000
192770.000000
193562.000000
194353.000000
195158.000000
195976.000000
196777.000000
197554.000000
198335.000000
199137.000000
199955.000000
200779.000000
201589.000000
202365.000000
203136.000000
203928.000000
204726.000000
205533.000000
206317.000000
207074.000000
207820.000000
208571.000000
209336.000000
210110.000000
210902.000000
211682.000000
212436.000000
213197.000000
213968.000000
214746.000000
215534.000000
216306.000000
217047.000000
217785.000000
218535.000000
219315.000000
220125.000000
220910.000000
221678.000000
222477.000000
223290.000000
224091.000000
224860.000000
225652.000000
226477.000000
227324.000000
228150.000000
228944.000000
229744.000000
230568.000000
231406.000000
232246.000000
233043.000000
233833.000000
234637.000000
235462.000000
236279.000000
237069.000000
237891.000000
238732.000000
239542.000000
240323.000000
241126.000000
241930.000000
242735.000000
243530.000000
244303.000000
245116.000000
245944.000000
246797.000000
247605.000000
248404.000000
249214.000000
250028.000000
250828.000000
251597.000000
252393.000000
253210.000000
254027.000000
254818.000000
255621.000000
256449.000000
257291.000000
258100.000000
258899.000000
259724.000000
260558.000000
261400.000000
262201.000000
262991.000000
263789.000000
264610.000000
265431.000000
266222.000000
267016.000000
267830.000000
268655.000000
269458.000000
270239.000000
271019.000000
271801.000000
272582.000000
273342.000000
274077.000000
274813.000000
275562.000000
276333.000000
277102.000000
277840.000000
278590.000000
279349.000000
280120.000000
280892.000000
281642.000000
282383.000000
283146.000000
283909.000000
284664.000000
285386.000000
286115.000000
286862.000000
287639.000000
288433.000000
289200.000000
289937.000000
290666.000000
291401.000000
292145.000000
292889.000000
293628.000000
294350.000000
295074.000000
295802.000000
296545.000000
297320.000000
298096.000000
298839.000000
299570.000000
300302.000000
301041.000000
301802.000000
302573.000000
303347.000000
304095.000000
304830.000000
305583.000000
306365.000000
307169.000000
307986.000000
308763.000000
309524.000000
310307.000000
311114.000000
311934.000000
312756.000000
313549.000000
314317.000000
315086.000000
315877.000000
316686.000000
317509.000000
318293.000000
319060.000000
319837.000000
320626.000000
321423.000000
322216.000000
322979.000000
323740.000000
324506.000000
325291.000000
326096.000000
326899.000000
327680.000000
328436.000000
329192.000000
329976.000000
330783.000000
331616.000000
332443.000000
333244.000000
334021.000000
334789.000000
335571.000000
336371.000000
337198.000000
338032.000000
338862.000000
339671.000000
340438.000000
341189.000000
341952.000000
342754.000000
343585.000000
344443.000000
345297.000000
346095.000000
346872.000000
347648.000000
348427.000000
349228.000000
350039.000000
350864.000000
351650.000000
352418.000000
353195.000000
353989.000000
354821.000000
355657.000000
356463.000000
357235.000000
357994.000000
358766.000000
359556.000000
360369.000000
361193.000000
361985.000000
362766.000000
363566.000000
364378.000000
365197.000000
365994.000000
366775.000000
367565.000000
368371.000000
369182.000000
369964.000000
370714.000000
371471.000000
372253.000000
373068.000000
373907.000000
374728.000000
375504.000000
376254.000000
377015.000000
377795.000000
378626.000000
379436.000000
380207.000000
380990.000000
381791.000000
382616.000000
383439.000000
384223.000000
384993.000000
385778.000000
386579.000000
387394.000000
388187.000000
388949.000000
389712.000000
390497.000000
391303.000000
392121.000000
392911.000000
393672.000000
394445.000000
395233.000000
396041.000000
396858.000000
397632.000000
398376.000000
399135.000000
399902.000000
400701.000000
401540.000000
402358.000000
403146.000000
403925.000000
404721.000000
405538.000000
406370.000000
407200.000000
408011.000000
408788.000000
409563.000000
410361.000000
411192.000000
412045.000000
412897.000000
413728.000000
414528.000000
415333.000000
416165.000000
417020.000000
417855.000000
418662.000000
419470.000000
420300.000000
421147.000000
421978.000000
422780.000000
423593.000000
424450.000000
425315.000000
426177.000000
427028.000000
427828.000000
428604.000000
429389.000000
430195.000000
431034.000000
431889.000000
432706.000000
433515.000000
434331.000000
435162.000000
436000.000000
436823.000000
437610.000000
438388.000000
439181.000000
440002.000000
440826.000000
441618.000000
442415.000000
443234.000000
444064.000000
444894.000000
445682.000000
446468.000000
447276.000000
448094.000000
448927.000000
449724.000000
450498.000000
451281.000000
452088.000000
452919.000000
453727.000000
454507.000000
455315.000000
456137.000000
456947.000000
457725.000000
458508.000000
459313.000000
460126.000000
460905.000000
461704.000000
462516.000000
463322.000000
464086.000000
464864.000000
465653.000000
466452.000000
467231.000000
468013.000000
468816.000000
469626.000000
470404.000000
471170.000000
471967.000000
472786.000000
473580.000000
474363.000000
475162.000000
475969.000000
476761.000000
477532.000000
478317.000000
479135.000000
479966.000000
480796.000000
481587.000000
482351.000000
483126.000000
483922.000000
484735.000000
485564.000000
486369.000000
487150.000000
487934.000000
488744.000000
489582.000000
490427.000000
491234.000000
492007.000000
492787.000000
493577.000000
494389.000000
495177.000000
495992.000000
496833.000000
497663.000000
498451.000000
499253.000000
500064.000000
500852.000000
501622.000000
502404.000000
503201.000000
504000.000000
504769.000000
505529.000000
506313.000000
507125.000000
507930.000000
508701.000000
509491.000000
510299.000000
511115.000000
511925.000000
512709.000000
513494.000000
514288.000000
515093.000000
515874.000000
516634.000000
517407.000000
518204.000000
519009.000000
519789.000000
520559.000000
521357.000000
522163.000000
522962.000000
523728.000000
524506.000000
525294.000000
526084.000000
526839.000000
527607.000000
528402.000000
529230.000000
530067.000000
530862.000000
531648.000000
532442.000000
533229.000000
533991.000000
534732.000000
535488.000000
536271.000000
537079.000000
537859.000000
538639.000000
539448.000000
540272.000000
541078.000000
541860.000000
542650.000000
543445.000000
544235.000000
545007.000000
545806.000000
546620.000000
547438.000000
548223.000000
549004.000000
549800.000000
550604.000000
551394.000000
552184.000000
552993.000000
553813.000000
554633.000000
555417.000000
556205.000000
557007.000000
557825.000000
558629.000000
559440.000000
560281.000000
561160.000000
562042.000000
562880.000000
563701.000000
564542.000000
565398.000000
566242.000000
567046.000000
567862.000000
568692.000000
569535.000000
570355.000000
571168.000000
572012.000000
572867.000000
573701.000000
574499.000000
575303.000000
576113.000000
576935.000000
577738.000000
578561.000000
579400.000000
580236.000000
581044.000000
581842.000000
582658.000000
583477.000000
584273.000000
585058.000000
585869.000000
586680.000000
587482.000000
588258.000000
589045.000000
589835.000000
590633.000000
591409.000000
592190.000000
592987.000000
593794.000000
594583.000000
595352.000000
596141.000000
596948.000000
597740.000000
598517.000000
599310.000000
600109.000000
600889.000000
601658.000000
602450.000000
603259.000000
604053.000000
604845.000000
605656.000000
606468.000000
607281.000000
608062.000000
608841.000000
609660.000000
610499.000000
611320.000000
612111.000000
612895.000000
613691.000000
614508.000000
615319.000000
616108.000000
616888.000000
617701.000000
618532.000000
619351.000000
620140.000000
620946.000000
621752.000000
622522.000000
623286.000000
624080.000000
624885.000000
625678.000000
626460.000000
627272.000000
628103.000000
628939.000000
629739.000000
630516.000000
631302.000000
632099.000000
632886.000000
633644.000000
634420.000000
635228.000000
636051.000000
636843.000000
637633.000000
638439.000000
639224.000000
639993.000000
640786.000000
641577.000000
642395.000000
643178.000000
643945.000000
644736.000000
645544.000000
646380.000000
647205.000000
647994.000000
648780.000000
649582.000000
650403.000000
651228.000000
652025.000000
652810.000000
653610.000000
654427.000000
655260.000000
656064.000000
656860.000000
657675.000000
658493.000000
659296.000000
660080.000000
660882.000000
661688.000000
662484.000000
663255.000000
664027.000000
664798.000000
665567.000000
666316.000000
667092.000000
667884.000000
668672.000000
669434.000000
670219.000000
671020.000000
671806.000000
672579.000000
673347.000000
674140.000000
674958.000000
675792.000000
676607.000000
677393.000000
678181.000000
678989.000000
679814.000000
680649.000000
681454.000000
682238.000000
683023.000000
683817.000000
684637.000000
685475.000000
686279.000000
687064.000000
687852.000000
688652.000000
689479.000000
690326.000000
691137.000000
691939.000000
692756.000000
693585.000000
694411.000000
695197.000000
695977.000000
696766.000000
697566.000000
698363.000000
699138.000000
699926.000000
700725.000000
701541.000000
702338.000000
703110.000000
703876.000000
704648.000000
705443.000000
706256.000000
707040.000000
707814.000000
708609.000000
709420.000000
710238.000000
711030.000000
711838.000000
712642.000000
713428.000000
714196.000000
714977.000000
715776.000000
716612.000000
717451.000000
718262.000000
719048.000000
719844.000000
720651.000000
721474.000000
722287.000000
723073.000000
723855.000000
724660.000000
725483.000000
726284.000000
727072.000000
727891.000000
728710.000000
729498.000000
730302.000000
731108.000000
731917.000000
732703.000000
733494.000000
734292.000000
735099.000000
735884.000000
736674.000000
737493.000000
738311.000000
739103.000000
739905.000000
740712.000000
741519.000000
742298.000000
743094.000000
743888.000000
744653.000000
745415.000000
746207.000000
747015.000000
747827.000000
748618.000000
749424.000000
750236.000000
751036.000000
751808.000000
752591.000000
753376.000000
754141.000000
754899.000000
755694.000000
756511.000000
757327.000000
758111.000000
758915.000000
759731.000000
760551.000000
761348.000000
762126.000000
762925.000000
763731.000000
764538.000000
765306.000000
766050.000000
766812.000000
767610.000000
768430.000000
769260.000000
770065.000000
770846.000000
771643.000000
772455.000000
773276.000000
774082.000000
774857.000000
775643.000000
776450.000000
777273.000000
778072.000000
778850.000000
779635.000000
780440.000000
781254.000000
782041.000000
782816.000000
783606.000000
784400.000000
785203.000000
785994.000000
786799.000000
787625.000000
788454.000000
789261.000000
790054.000000
790869.000000
791703.000000
792542.000000
793355.000000
794149.000000
794956.000000
795780.000000
796599.000000
797393.000000
798184.000000
798991.000000
799830.000000
800685.000000
801508.000000
802298.000000
803094.000000
803906.000000
804731.000000
805528.000000
806332.000000
807152.000000
807970.000000
808772.000000
809590.000000
810430.000000
811289.000000
812116.000000
812905.000000
813686.000000
814482.000000
815289.000000
816100.000000
816881.000000
817652.000000
818444.000000
819248.000000
820053.000000
820834.000000
821622.000000
822422.000000
823232.000000
824058.000000
824852.000000
825662.000000
826469.000000
827254.000000
828047.000000
828862.000000
829710.000000
830561.000000
831365.000000
832164.000000
832977.000000
833799.000000
834618.000000
835414.000000
836231.000000
837053.000000
837847.000000
838630.000000
839421.000000
840213.000000
841007.000000
841780.000000
842577.000000
843392.000000
844208.000000
844991.000000
845781.000000
846580.000000
847379.000000
848164.000000
848976.000000
849798.000000
850616.000000
851400.000000
852182.000000
852978.000000
853789.000000
854570.000000
855342.000000
856133.000000
856927.000000
857689.000000
858432.000000
859193.000000
859993.000000
860812.000000
861598.000000
862369.000000
863163.000000
863961.000000
864749.000000
865510.000000
866258.000000
867029.000000
867819.000000
868625.000000
869411.000000
870192.000000
870988.000000
871797.000000
872592.000000
873368.000000
874127.000000
874901.000000
875689.000000
876488.000000
877290.000000
878062.000000
878815.000000
879576.000000
880351.000000
881138.000000
881923.000000
882701.000000
883507.000000
884327.000000
885153.000000
885944.000000
886716.000000
887502.000000
888305.000000
889142.000000
889958.000000
890755.000000
891565.000000
892388.000000
893228.000000
894067.000000
894862.000000
895650.000000
896439.000000
897236.000000
898029.000000
898818.000000
899634.000000
900459.000000
901260.000000
902069.000000
902885.000000
903678.000000
904444.000000
905212.000000
905990.000000
906774.000000
907548.000000
908317.000000
909114.000000
909917.000000
910713.000000
911486.000000
912279.000000
913089.000000
913888.000000
914654.000000
915447.000000
916247.000000
917068.000000
917862.000000
918627.000000
919358.000000
920079.000000
920805.000000
