ECG (ms)
52.000000
962.000000
1852.000000
2717.000000
3635.000000
4546.000000
5434.000000
6326.000000
7237.000000
8112.000000
8970.000000
9875.000000
10770.000000
11619.000000
12508.000000
13393.000000
14265.000000
15116.000000
16013.000000
16881.000000
17722.000000
18586.000000
19439.000000
20226.000000
20962.000000
21751.000000
22619.000000
23554.000000
24448.000000
25296.000000
26163.000000
27048.000000
27946.000000
28813.000000
29686.000000
30580.000000
31427.000000
32218.000000
33016.000000
33893.000000
34836.000000
35765.000000
36685.000000
37584.000000
38464.000000
39402.000000
40334.000000
41251.000000
42164.000000
43054.000000
43948.000000
44862.000000
45776.000000
46671.000000
47542.000000
48454.000000
49377.000000
50287.000000
51158.000000
52049.000000
52960.000000
53850.000000
54735.000000
55542.000000
56268.000000
56978.000000
57766.000000
58777.000000
59682.000000
60559.000000
61477.000000
62404.000000
63293.000000
64171.000000
65058.000000
65890.000000
66720.000000
67613.000000
68525.000000
69379.000000
70250.000000
71138.000000
72026.000000
72901.000000
73769.000000
74582.000000
75439.000000
76260.000000
77059.000000
77887.000000
78694.000000
79523.000000
80264.000000
81014.000000
81798.000000
82558.000000
83266.000000
83982.000000
84834.000000
85696.000000
86546.000000
87437.000000
88318.000000
89142.000000
89998.000000
90841.000000
91624.000000
92432.000000
93194.000000
93921.000000
94774.000000
95745.000000
96739.000000
97736.000000
98728.000000
99647.000000
100561.000000
101465.000000
102345.000000
103156.000000
103938.000000
104683.000000
105382.000000
106089.000000
106882.000000
107804.000000
108754.000000
109699.000000
110627.000000
111498.000000
112336.000000
113202.000000
114025.000000
114856.000000
115683.000000
116545.000000
117420.000000
118263.000000
119101.000000
119973.000000
120837.000000
121693.000000
122499.000000
123348.000000
124203.000000
125047.000000
125878.000000
126742.000000
127562.000000
128430.000000
129279.000000
130128.000000
130917.000000
131705.000000
132530.000000
133316.000000
134155.000000
134991.000000
135819.000000
136633.000000
137493.000000
138350.000000
139187.000000
140042.000000
140843.000000
141697.000000
142499.000000
143318.000000
144153.000000
145010.000000
145863.000000
146706.000000
147485.000000
148181.000000
148919.000000
149818.000000
150710.000000
151584.000000
152420.000000
153291.000000
154156.000000
155019.000000
155878.000000
156691.000000
157543.000000
158389.000000
159265.000000
160140.000000
161004.000000
161810.000000
162671.000000
163525.000000
164385.000000
165246.000000
166105.000000
166951.000000
167728.000000
168444.000000
169129.000000
169994.000000
170763.000000
171628.000000
172577.000000
173463.000000
174261.000000
175067.000000
175934.000000
176800.000000
177674.000000
178545.000000
179401.000000
180236.000000
181082.000000
181930.000000
182743.000000
183598.000000
184453.000000
185259.000000
186087.000000
186926.000000
187783.000000
188658.000000
189494.000000
190290.000000
191158.000000
192037.000000
192903.000000
193706.000000
194579.000000
195456.000000
196331.000000
197166.000000
197995.000000
198867.000000
199733.000000
200557.000000
201364.000000
202156.000000
202976.000000
203873.000000
204776.000000
205661.000000
206563.000000
207448.000000
208335.000000
209208.000000
210067.000000
210862.000000
211579.000000
212303.000000
213100.000000
213942.000000
214690.000000
215419.000000
216396.000000
217363.000000
218319.000000
219177.000000
220040.000000
220912.000000
221760.000000
222604.000000
223465.000000
224264.000000
225081.000000
225939.000000
226802.000000
227622.000000
228460.000000
229306.000000
230167.000000
231025.000000
231834.000000
232701.000000
233572.000000
234432.000000
235293.000000
236155.000000
236983.000000
237791.000000
238622.000000
239479.000000
240327.000000
241181.000000
242000.000000
242795.000000
243633.000000
244486.000000
245317.000000
246125.000000
246991.000000
247817.000000
248696.000000
249567.000000
250445.000000
251251.000000
252128.000000
252988.000000
253844.000000
254646.000000
255507.000000
256337.000000
257180.000000
257991.000000
258832.000000
259684.000000
260530.000000
261373.000000
262216.000000
263030.000000
263800.000000
264640.000000
265476.000000
266314.000000
267046.000000
267734.000000
268502.000000
269364.000000
270155.000000
270951.000000
271766.000000
272597.000000
273437.000000
274266.000000
275029.000000
275730.000000
276440.000000
277179.000000
277984.000000
278880.000000
279795.000000
280683.000000
281506.000000
282249.000000
282955.000000
283662.000000
284532.000000
285481.000000
286388.000000
287319.000000
288283.000000
289210.000000
290121.000000
291069.000000
291905.000000
292715.000000
293493.000000
294209.000000
294957.000000
295695.000000
296362.000000
297111.000000
297897.000000
298870.000000
299819.000000
300716.000000
301579.000000
302428.000000
303284.000000
304101.000000
304887.000000
305680.000000
306466.000000
307240.000000
308007.000000
308780.000000
309498.000000
310258.000000
311050.000000
311848.000000
312647.000000
313408.000000
314118.000000
314821.000000
315550.000000
316392.000000
317231.000000
318049.000000
318860.000000
319678.000000
320517.000000
321236.000000
321950.000000
322716.000000
323506.000000
324267.000000
324969.000000
325623.000000
326262.000000
326896.000000
327575.000000
328597.000000
329534.000000
330418.000000
331299.000000
332188.000000
333058.000000
333909.000000
334765.000000
335568.000000
336377.000000
337222.000000
338107.000000
338895.000000
339640.000000
340434.000000
341390.000000
342233.000000
343088.000000
343903.000000
344733.000000
345553.000000
346328.000000
347038.000000
347769.000000
348549.000000
349462.000000
350405.000000
351253.000000
352034.000000
352765.000000
353522.000000
354280.000000
355060.000000
355982.000000
356940.000000
357831.000000
358677.000000
359527.000000
360371.000000
361160.000000
361939.000000
362697.000000
363431.000000
364190.000000
365062.000000
365835.000000
366559.000000
367338.000000
368350.000000
369270.000000
370109.000000
370944.000000
371766.000000
372629.000000
373473.000000
374316.000000
375130.000000
375998.000000
376855.000000
377687.000000
378510.000000
379361.000000
380211.000000
381037.000000
381865.000000
382718.000000
383574.000000
384420.000000
385258.000000
386137.000000
386996.000000
387845.000000
388669.000000
389506.000000
390368.000000
391233.000000
392077.000000
392878.000000
393739.000000
394593.000000
395450.000000
396272.000000
397136.000000
397981.000000
398772.000000
399536.000000
400222.000000
400958.000000
401717.000000
402469.000000
403162.000000
403857.000000
404631.000000
405462.000000
406471.000000
407354.000000
408156.000000
408962.000000
409862.000000
410727.000000
411552.000000
412400.000000
413242.000000
414074.000000
414875.000000
415727.000000
416571.000000
417409.000000
418197.000000
418996.000000
419764.000000
420440.000000
421090.000000
421718.000000
422343.000000
423168.000000
424083.000000
424898.000000
425617.000000
426371.000000
427339.000000
428212.000000
429041.000000
429839.000000
430670.000000
431497.000000
432326.000000
433168.000000
433983.000000
434791.000000
435641.000000
436495.000000
437323.000000
438146.000000
439001.000000
439832.000000
440617.000000
441431.000000
442221.000000
442980.000000
443714.000000
444434.000000
445186.000000
445982.000000
446728.000000
447415.000000
448104.000000
448893.000000
449981.000000
450901.000000
451730.000000
452580.000000
453453.000000
454306.000000
455113.000000
455926.000000
456795.000000
457658.000000
458535.000000
459368.000000
460216.000000
461066.000000
461879.000000
462685.000000
463481.000000
464225.000000
464918.000000
465577.000000
466218.000000
466841.000000
467465.000000
468195.000000
469226.000000
470035.000000
470920.000000
471820.000000
472678.000000
473503.000000
474379.000000
475247.000000
476103.000000
476950.000000
477809.000000
478679.000000
479552.000000
480397.000000
481233.000000
482123.000000
482972.000000
483798.000000
484653.000000
485521.000000
486377.000000
487226.000000
488082.000000
488961.000000
489824.000000
490653.000000
491509.000000
492369.000000
493204.000000
494011.000000
494783.000000
495495.000000
496283.000000
497116.000000
497868.000000
498563.000000
499294.000000
500071.000000
501070.000000
501977.000000
502837.000000
503651.000000
504427.000000
505291.000000
506142.000000
506957.000000
507830.000000
508734.000000
509585.000000
510411.000000
511294.000000
512160.000000
513031.000000
513895.000000
514749.000000
515632.000000
516514.000000
517372.000000
518199.000000
519066.000000
519929.000000
520767.000000
521606.000000
522498.000000
523348.000000
524200.000000
525091.000000
525963.000000
526805.000000
527666.000000
528520.000000
529349.000000
530230.000000
531068.000000
531877.000000
532735.000000
533583.000000
534396.000000
535205.000000
535968.000000
536649.000000
537491.000000
538371.000000
539248.000000
540148.000000
541022.000000
541862.000000
542716.000000
543600.000000
544461.000000
545287.000000
546118.000000
546908.000000
547638.000000
548407.000000
549418.000000
550356.000000
551217.000000
552060.000000
552927.000000
553802.000000
554685.000000
555605.000000
556497.000000
557417.000000
558317.000000
559212.000000
560078.000000
560947.000000
561838.000000
562748.000000
563618.000000
564480.000000
565376.000000
566253.000000
567108.000000
567992.000000
568855.000000
569692.000000
570585.000000
571432.000000
572260.000000
573084.000000
573916.000000
574715.000000
575510.000000
576416.000000
577363.000000
578205.000000
579047.000000
579921.000000
580790.000000
581635.000000
582479.000000
583352.000000
584220.000000
585082.000000
585903.000000
586767.000000
587623.000000
588480.000000
589287.000000
590134.000000
590978.000000
591796.000000
592645.000000
593499.000000
594361.000000
595206.000000
596033.000000
596886.000000
597758.000000
598594.000000
599445.000000
600313.000000
601172.000000
601991.000000
602862.000000
603723.000000
604565.000000
605369.000000
606251.000000
607120.000000
607998.000000
608847.000000
609751.000000
610646.000000
611525.000000
612383.000000
613268.000000
614172.000000
615057.000000
615927.000000
616809.000000
617701.000000
618576.000000
619429.000000
620334.000000
621199.000000
622071.000000
622917.000000
623801.000000
624673.000000
625536.000000
626357.000000
627230.000000
628100.000000
628915.000000
629780.000000
630602.000000
631347.000000
632020.000000
632734.000000
633628.000000
634513.000000
635318.000000
636207.000000
637116.000000
638020.000000
638898.000000
639680.000000
640472.000000
641325.000000
642181.000000
642969.000000
643839.000000
644787.000000
645682.000000
646454.000000
647244.000000
648079.000000
648956.000000
649810.000000
650625.000000
651379.000000
652060.000000
652739.000000
653495.000000
654497.000000
655476.000000
656372.000000
657209.000000
658003.000000
658800.000000
659606.000000
660483.000000
661363.000000
662226.000000
663054.000000
663870.000000
664645.000000
665355.000000
666093.000000
667087.000000
668016.000000
668885.000000
669770.000000
670616.000000
671471.000000
672327.000000
673164.000000
674037.000000
674883.000000
675715.000000
676525.000000
677292.000000
678230.000000
679079.000000
679960.000000
680838.000000
681685.000000
682528.000000
683403.000000
684268.000000
685106.000000
685952.000000
686821.000000
687689.000000
688522.000000
689372.000000
690211.000000
691073.000000
691946.000000
692791.000000
693617.000000
694431.000000
695296.000000
696153.000000
697005.000000
697853.000000
698727.000000
699588.000000
700422.000000
701265.000000
702119.000000
702959.000000
703794.000000
704659.000000
705515.000000
706372.000000
707206.000000
708084.000000
708935.000000
709769.000000
710585.000000
711457.000000
712323.000000
713164.000000
713990.000000
714874.000000
715745.000000
716580.000000
717410.000000
718296.000000
719154.000000
719984.000000
720840.000000
721719.000000
722587.000000
723425.000000
724299.000000
725190.000000
726029.000000
726874.000000
727768.000000
728597.000000
729433.000000
730323.000000
731163.000000
732014.000000
732917.000000
733772.000000
734611.000000
735516.000000
736394.000000
737257.000000
738140.000000
739028.000000
739874.000000
740741.000000
741618.000000
742464.000000
743322.000000
744230.000000
745079.000000
745929.000000
746830.000000
747696.000000
748601.000000
749469.000000
750410.000000
751297.000000
752170.000000
753034.000000
753912.000000
754771.000000
755640.000000
756549.000000
757417.000000
758275.000000
759147.000000
760023.000000
760886.000000
761715.000000
762565.000000
763368.000000
764096.000000
764791.000000
765551.000000
766415.000000
767156.000000
767854.000000
768630.000000
769649.000000
770518.000000
771420.000000
772317.000000
773190.000000
774022.000000
774806.000000
775614.000000
776496.000000
777407.000000
778271.000000
779057.000000
779812.000000
780617.000000
781521.000000
782417.000000
783308.000000
784234.000000
785099.000000
785903.000000
786691.000000
787508.000000
788371.000000
789161.000000
789963.000000
790777.000000
791686.000000
792490.000000
793278.000000
794138.000000
794964.000000
795767.000000
796592.000000
797459.000000
798211.000000
798983.000000
799832.000000
800653.000000
801432.000000
802420.000000
803371.000000
804240.000000
805124.000000
805990.000000
806777.000000
807553.000000
808400.000000
809312.000000
810152.000000
811065.000000
812013.000000
812896.000000
813702.000000
814551.000000
815427.000000
816263.000000
817024.000000
817875.000000
818815.000000
819713.000000
820656.000000
821578.000000
822425.000000
823251.000000
824077.000000
824949.000000
825826.000000
826763.000000
827642.000000
828509.000000
829380.000000
830236.000000
831118.000000
832013.000000
832904.000000
833749.000000
834604.000000
835472.000000
836335.000000
837159.000000
838011.000000
838897.000000
839747.000000
840580.000000
841425.000000
842265.000000
843057.000000
843855.000000
844656.000000
845488.000000
846211.000000
846968.000000
847773.000000
848554.000000
849284.000000
850049.000000
850943.000000
851851.000000
852707.000000
853637.000000
854533.000000
855267.000000
855982.000000
856727.000000
857526.000000
858384.000000
859345.000000
860268.000000
861173.000000
862046.000000
862911.000000
863752.000000
864556.000000
865361.000000
866133.000000
866908.000000
867626.000000
868405.000000
869211.000000
870012.000000
870731.000000
871490.000000
872293.000000
873151.000000
873906.000000
874581.000000
875252.000000
875973.000000
876769.000000
877789.000000
878755.000000
879661.000000
880460.000000
881208.000000
881990.000000
882743.000000
883463.000000
884434.000000
885381.000000
886309.000000
887084.000000
887872.000000
888575.000000
889298.000000
890153.000000
890997.000000
891724.000000
892472.000000
893340.000000
894242.000000
895086.000000
895982.000000
896928.000000
897867.000000
898739.000000
899561.000000
900380.000000
901237.000000
902063.000000
902893.000000
903768.000000
904666.000000
905565.000000
906450.000000
907292.000000
908129.000000
908999.000000
909881.000000
910749.000000
911632.000000
912521.000000
913421.000000
914323.000000
915180.000000
916040.000000
916921.000000
917804.000000
918671.000000
919542.000000
920417.000000
921271.000000
922077.000000
922798.000000
923490.000000
924223.000000
925013.000000
925718.000000
926480.000000
927426.000000
928361.000000
929269.000000
930091.000000
930859.000000
931613.000000
932383.000000
933117.000000
933858.000000
934810.000000
935789.000000
936746.000000
937647.000000
938522.000000
939361.000000
940167.000000
941025.000000
941904.000000
942753.000000
943638.000000
944536.000000
945428.000000
946313.000000
947188.000000
948018.000000
948843.000000
949700.000000
950598.000000
951459.000000
952324.000000
953175.000000
953982.000000
954666.000000
955412.000000
956348.000000
957313.000000
958101.000000
958893.000000
959805.000000
960770.000000
961681.000000
962501.000000
963361.000000
964247.000000
965121.000000
965963.000000
966829.000000
967718.000000
968603.000000
969466.000000
970320.000000
971225.000000
972136.000000
973041.000000
973926.000000
974819.000000
975723.000000
976640.000000
977522.000000
978421.000000
979340.000000
980258.000000
981127.000000
982031.000000
982947.000000
983873.000000
984752.000000
985635.000000
986542.000000
987445.000000
988310.000000
989199.000000
990100.000000
990995.000000
991859.000000
992754.000000
993679.000000
994562.000000
995438.000000
996322.000000
997196.000000
998040.000000
998904.000000
999808.000000
1000678.000000
1001519.000000
1002378.000000
1003267.000000
1004123.000000
1004955.000000
1005822.000000
1006690.000000
1007565.000000
1008406.000000
1009266.000000
1010153.000000
1011026.000000
1011870.000000
1012686.000000
1013556.000000
1014445.000000
1015341.000000
1016255.000000
1017157.000000
1018056.000000
1018949.000000
1019856.000000
1020737.000000
1021626.000000
1022518.000000
1023415.000000
1024292.000000
1025184.000000
1026079.000000
1026973.000000
1027836.000000
1028717.000000
1029615.000000
1030493.000000
1031344.000000
1032232.000000
1033122.000000
1033980.000000
1034820.000000
1035708.000000
1036558.000000
1037396.000000
1038274.000000
1039188.000000
1040068.000000
1040921.000000
1041812.000000
1042713.000000
1043608.000000
1044477.000000
1045377.000000
1046262.000000
1047130.000000
1048005.000000
1048908.000000
1049773.000000
1050613.000000
1051505.000000
1052407.000000
1053279.000000
1054124.000000
1055005.000000
1055902.000000
1056787.000000
1057640.000000
1058524.000000
1059425.000000
1060293.000000
1061136.000000
1062008.000000
1062838.000000
1063535.000000
1064242.000000
1065067.000000
1066112.000000
1067109.000000
1068072.000000
1068991.000000
1069876.000000
1070721.000000
1071609.000000
1072529.000000
1073404.000000
1074258.000000
1075171.000000
1076075.000000
1076941.000000
1077840.000000
1078716.000000
1079565.000000
1080458.000000
1081322.000000
1082210.000000
1083104.000000
1083950.000000
1084782.000000
1085686.000000
1086580.000000
1087423.000000
1088271.000000
1089204.000000
1090106.000000
1090964.000000
1091831.000000
1092750.000000
1093685.000000
1094569.000000
1095455.000000
1096350.000000
1097214.000000
1098097.000000
1098982.000000
1099838.000000
1100718.000000
1101630.000000
1102514.000000
1103353.000000
1104219.000000
1105106.000000
1105967.000000
1106845.000000
1107736.000000
1108629.000000
1109520.000000
1110402.000000
1111224.000000
1111932.000000
1112649.000000
1113453.000000
1114207.000000
1114942.000000
1115996.000000
1116969.000000
1117927.000000
1118837.000000
1119664.000000
1120525.000000
1121424.000000
1122287.000000
1123137.000000
1124005.000000
1124910.000000
1125765.000000
1126686.000000
1127581.000000
1128455.000000
1129302.000000
1130156.000000
1130957.000000
1131679.000000
1132462.000000
1133490.000000
1134544.000000
1135445.000000
1136276.000000
1137091.000000
1137902.000000
1138715.000000
1139640.000000
1140588.000000
1141466.000000
1142359.000000
1143215.000000
1144045.000000
1144917.000000
1145803.000000
1146703.000000
1147563.000000
1148429.000000
1149315.000000
1150209.000000
1151108.000000
1151991.000000
1152889.000000
1153783.000000
1154670.000000
1155561.000000
1156465.000000
1157370.000000
1158257.000000
1159157.000000
1160079.000000
1160981.000000
1161856.000000
1162721.000000
1163617.000000
1164505.000000
1165370.000000
1166224.000000
1167111.000000
1167978.000000
1168807.000000
1169590.000000
1170374.000000
1171195.000000
1171984.000000
1172741.000000
1173650.000000
1174554.000000
1175395.000000
1176182.000000
1176991.000000
1177838.000000
1178678.000000
1179426.000000
1180198.000000
1181062.000000
1181964.000000
1182824.000000
1183679.000000
1184579.000000
1185574.000000
1186566.000000
1187437.000000
1188362.000000
1189243.000000
1190134.000000
1191052.000000
1191970.000000
1192943.000000
1193842.000000
1194775.000000
1195712.000000
1196611.000000
1197577.000000
1198561.000000
1199555.000000
1200457.000000
1201361.000000
1202297.000000
1203142.000000
1203968.000000
1204848.000000
1205737.000000
1206620.000000
1207591.000000
1208535.000000
1209379.000000
1210303.000000
1211268.000000
1212239.000000
1213184.000000
1214138.000000
1215107.000000
1216037.000000
1216961.000000
1217931.000000
1218943.000000
1219880.000000
1220822.000000
1221754.000000
1222639.000000
1223504.000000
1224422.000000
1225310.000000
1226185.000000
1227053.000000
1227950.000000
1228845.000000
1229703.000000
1230607.000000
1231507.000000
1232391.000000
1233273.000000
1234167.000000
1235045.000000
1235887.000000
1236777.000000
1237679.000000
1238590.000000
1239479.000000
1240382.000000
1241301.000000
1242202.000000
1243087.000000
1243999.000000
1244927.000000
1245819.000000
1246681.000000
1247589.000000
1248492.000000
1249386.000000
1250267.000000
1251179.000000
1252100.000000
1252990.000000
1253853.000000
1254758.000000
1255685.000000
1256575.000000
1257447.000000
1258351.000000
1259265.000000
1260139.000000
1261013.000000
1261931.000000
1262856.000000
1263726.000000
1264619.000000
1265528.000000
1266412.000000
1267282.000000
1268188.000000
1269083.000000
1269957.000000
1270857.000000
1271763.000000
1272641.000000
1273553.000000
1274472.000000
1275382.000000
1276270.000000
1277170.000000
1278097.000000
1278998.000000
1279870.000000
1280791.000000
1281699.000000
1282578.000000
1283474.000000
1284385.000000
1285270.000000
1286161.000000
1287065.000000
1287965.000000
1288843.000000
1289745.000000
1290689.000000
1291582.000000
1292484.000000
1293416.000000
1294329.000000
1295204.000000
1296114.000000
1297025.000000
1297909.000000
1298763.000000
1299657.000000
1300551.000000
1301425.000000
1302292.000000
1303190.000000
1304062.000000
1304887.000000
1305643.000000
1306381.000000
1307439.000000
1308319.000000
