ECG (ms)
833.000000
1633.000000
2385.000000
3173.000000
4396.000000
5398.000000
6415.000000
7406.000000
8274.000000
9284.000000
10269.000000
11209.000000
12079.000000
12952.000000
13868.000000
14733.000000
15553.000000
16405.000000
17241.000000
18099.000000
18935.000000
19760.000000
20584.000000
21435.000000
22504.000000
23460.000000
24371.000000
25274.000000
26174.000000
27131.000000
27997.000000
28883.000000
29755.000000
30641.000000
31516.000000
32453.000000
33546.000000
34473.000000
35425.000000
36385.000000
37313.000000
38185.000000
39103.000000
40123.000000
41029.000000
41866.000000
42708.000000
43706.000000
44698.000000
45691.000000
46691.000000
47661.000000
48569.000000
49524.000000
50529.000000
51457.000000
52336.000000
53171.000000
54006.000000
54813.000000
55608.000000
56483.000000
57388.000000
58309.000000
59247.000000
60163.000000
61003.000000
61862.000000
62832.000000
63750.000000
64610.000000
65472.000000
66344.000000
67234.000000
68098.000000
69041.000000
69994.000000
70897.000000
71721.000000
72539.000000
73342.000000
74145.000000
74880.000000
75592.000000
76294.000000
77044.000000
77774.000000
78570.000000
79778.000000
80700.000000
81603.000000
82522.000000
83432.000000
84275.000000
85104.000000
85983.000000
86859.000000
87720.000000
88547.000000
89406.000000
90325.000000
91267.000000
92175.000000
93077.000000
94032.000000
95032.000000
95976.000000
96885.000000
97847.000000
98848.000000
99739.000000
100608.000000
101488.000000
102356.000000
103165.000000
104059.000000
105333.000000
106299.000000
107238.000000
108208.000000
109094.000000
109905.000000
110704.000000
111572.000000
112579.000000
113530.000000
114645.000000
115600.000000
116440.000000
117290.000000
118160.000000
119259.000000
120266.000000
121309.000000
122304.000000
123201.000000
124079.000000
124933.000000
125838.000000
126723.000000
127601.000000
128529.000000
129488.000000
130407.000000
131259.000000
132128.000000
133077.000000
133968.000000
134879.000000
135898.000000
136922.000000
137809.000000
138621.000000
139390.000000
140220.000000
141103.000000
142034.000000
143196.000000
144199.000000
145090.000000
146019.000000
147012.000000
147912.000000
148806.000000
149747.000000
150654.000000
151519.000000
152425.000000
153437.000000
154379.000000
155271.000000
156211.000000
157226.000000
158140.000000
158944.000000
159705.000000
160473.000000
161497.000000
162465.000000
163477.000000
164638.000000
165676.000000
166577.000000
167544.000000
168562.000000
169518.000000
170360.000000
171194.000000
172060.000000
172981.000000
173874.000000
174838.000000
175867.000000
176816.000000
177744.000000
178677.000000
179661.000000
180592.000000
181475.000000
182417.000000
183407.000000
184367.000000
185284.000000
186243.000000
187182.000000
188120.000000
188977.000000
189871.000000
190819.000000
191793.000000
192678.000000
193656.000000
194672.000000
195562.000000
196441.000000
197333.000000
198271.000000
199133.000000
200059.000000
201121.000000
202044.000000
202919.000000
203804.000000
204706.000000
205576.000000
206476.000000
207417.000000
208355.000000
209219.000000
210112.000000
211085.000000
212009.000000
212870.000000
213673.000000
214454.000000
215285.000000
216113.000000
216932.000000
217787.000000
218608.000000
219407.000000
220268.000000
221481.000000
222405.000000
223297.000000
224178.000000
224953.000000
225687.000000
226396.000000
227156.000000
228097.000000
228983.000000
229921.000000
230838.000000
231698.000000
232508.000000
233290.000000
234092.000000
234927.000000
235768.000000
236595.000000
237500.000000
238423.000000
239310.000000
240153.000000
240981.000000
241802.000000
242628.000000
243443.000000
244240.000000
245119.000000
246118.000000
247068.000000
247907.000000
248717.000000
249563.000000
250457.000000
251281.000000
252083.000000
252868.000000
253667.000000
254577.000000
255426.000000
256313.000000
257228.000000
258114.000000
258960.000000
259783.000000
260674.000000
261624.000000
262463.000000
263341.000000
264248.000000
265161.000000
266019.000000
266916.000000
267927.000000
268917.000000
269815.000000
270723.000000
271624.000000
272510.000000
273323.000000
274149.000000
275044.000000
276001.000000
276976.000000
277849.000000
278728.000000
279601.000000
280492.000000
281333.000000
282184.000000
283234.000000
284213.000000
285084.000000
285957.000000
286889.000000
287777.000000
288614.000000
289437.000000
290313.000000
291292.000000
292199.000000
293067.000000
293837.000000
294559.000000
295274.000000
296010.000000
296861.000000
298004.000000
298895.000000
299861.000000
300892.000000
301802.000000
302664.000000
303513.000000
304311.000000
305122.000000
305963.000000
306839.000000
307604.000000
308359.000000
309115.000000
310020.000000
310959.000000
311814.000000
312702.000000
313655.000000
314595.000000
315476.000000
316359.000000
317282.000000
318200.000000
319056.000000
319893.000000
320726.000000
321626.000000
322566.000000
323444.000000
324323.000000
325222.000000
326115.000000
326956.000000
327745.000000
328512.000000
329277.000000
329996.000000
330774.000000
331662.000000
332541.000000
333446.000000
334430.000000
335435.000000
336330.000000
337226.000000
338148.000000
339024.000000
339896.000000
340838.000000
341880.000000
342845.000000
343690.000000
344516.000000
345324.000000
346193.000000
347030.000000
348294.000000
349430.000000
350447.000000
351452.000000
352475.000000
353410.000000
354276.000000
355165.000000
356160.000000
357200.000000
358111.000000
358982.000000
359856.000000
360775.000000
361677.000000
362560.000000
363480.000000
364471.000000
365370.000000
366256.000000
367153.000000
368070.000000
369020.000000
369928.000000
370909.000000
371880.000000
372797.000000
373638.000000
374474.000000
375397.000000
376381.000000
377306.000000
378209.000000
379113.000000
380046.000000
380860.000000
381661.000000
382501.000000
383459.000000
384406.000000
385312.000000
386383.000000
387429.000000
388378.000000
389304.000000
390269.000000
391266.000000
392177.000000
393067.000000
393965.000000
394875.000000
395742.000000
396641.000000
397606.000000
398626.000000
399554.000000
400479.000000
401438.000000
402398.000000
403305.000000
404221.000000
405202.000000
406174.000000
407064.000000
407961.000000
408869.000000
409777.000000
410640.000000
411453.000000
412343.000000
413366.000000
414205.000000
414973.000000
415730.000000
416594.000000
417545.000000
418447.000000
419458.000000
420528.000000
421471.000000
422403.000000
423305.000000
424221.000000
425092.000000
425990.000000
426964.000000
428002.000000
428997.000000
429880.000000
430761.000000
431676.000000
432680.000000
433639.000000
434593.000000
435537.000000
436440.000000
437313.000000
438161.000000
439015.000000
439885.000000
440759.000000
441521.000000
442293.000000
443162.000000
444108.000000
444980.000000
445836.000000
446687.000000
447496.000000
448303.000000
449199.000000
450168.000000
451048.000000
451867.000000
452676.000000
453570.000000
454472.000000
455305.000000
456151.000000
457003.000000
457868.000000
458713.000000
459622.000000
460595.000000
461553.000000
462415.000000
463285.000000
464149.000000
465020.000000
465880.000000
466699.000000
467528.000000
468393.000000
469333.000000
470194.000000
471030.000000
471878.000000
472723.000000
473528.000000
474326.000000
475192.000000
476190.000000
477086.000000
477958.000000
478886.000000
479861.000000
480736.000000
481599.000000
482437.000000
483290.000000
484125.000000
484966.000000
485895.000000
486891.000000
487753.000000
488573.000000
489404.000000
490328.000000
491232.000000
492077.000000
492983.000000
493926.000000
494826.000000
495694.000000
496565.000000
497456.000000
498297.000000
499125.000000
499955.000000
500870.000000
501770.000000
502608.000000
503467.000000
504341.000000
505240.000000
506081.000000
506919.000000
507820.000000
508778.000000
509687.000000
510504.000000
511307.000000
512139.000000
513042.000000
513944.000000
514849.000000
515770.000000
516698.000000
517571.000000
518396.000000
519240.000000
520085.000000
520825.000000
521554.000000
522274.000000
523075.000000
523860.000000
524640.000000
525402.000000
526135.000000
526901.000000
527782.000000
528616.000000
529421.000000
530257.000000
531121.000000
532091.000000
532936.000000
533738.000000
534488.000000
535258.000000
536093.000000
537051.000000
538046.000000
538943.000000
539817.000000
540697.000000
541641.000000
542583.000000
543447.000000
544265.000000
545102.000000
546000.000000
546903.000000
547806.000000
548757.000000
549732.000000
550643.000000
551528.000000
552419.000000
553342.000000
554219.000000
555069.000000
555925.000000
556823.000000
557754.000000
558613.000000
559421.000000
560251.000000
561428.000000
562331.000000
563182.000000
564038.000000
564953.000000
565848.000000
566760.000000
567712.000000
568686.000000
569491.000000
570256.000000
571003.000000
571944.000000
572903.000000
573890.000000
575013.000000
576048.000000
577000.000000
577965.000000
578915.000000
579786.000000
580679.000000
581664.000000
582614.000000
583525.000000
584490.000000
585437.000000
586362.000000
587245.000000
588113.000000
589009.000000
589906.000000
590775.000000
591609.000000
592469.000000
593459.000000
594404.000000
595259.000000
596081.000000
596896.000000
597809.000000
598695.000000
599586.000000
600659.000000
601708.000000
602639.000000
603559.000000
604476.000000
605352.000000
606183.000000
607023.000000
608129.000000
609154.000000
610262.000000
611311.000000
612216.000000
613069.000000
613949.000000
614967.000000
615858.000000
616730.000000
617620.000000
618679.000000
619666.000000
620559.000000
621472.000000
622444.000000
623368.000000
624252.000000
625171.000000
626167.000000
627113.000000
627978.000000
628844.000000
629729.000000
630643.000000
631485.000000
632303.000000
633128.000000
633994.000000
634826.000000
635677.000000
636651.000000
637657.000000
638537.000000
639362.000000
640208.000000
641108.000000
642089.000000
642978.000000
643879.000000
644846.000000
645772.000000
646647.000000
647575.000000
648572.000000
649458.000000
650280.000000
651114.000000
651976.000000
652844.000000
653829.000000
654942.000000
655946.000000
656840.000000
657714.000000
658576.000000
659455.000000
660291.000000
661184.000000
662134.000000
663052.000000
663896.000000
664773.000000
665717.000000
666628.000000
667482.000000
668378.000000
669361.000000
670273.000000
671131.000000
671994.000000
672916.000000
673820.000000
674675.000000
675566.000000
676500.000000
677415.000000
678264.000000
679107.000000
679991.000000
680932.000000
681810.000000
682640.000000
683445.000000
684347.000000
685243.000000
686140.000000
687187.000000
688244.000000
689131.000000
689952.000000
690719.000000
691475.000000
692305.000000
693177.000000
694440.000000
695570.000000
696424.000000
697191.000000
697911.000000
698676.000000
699502.000000
700437.000000
701457.000000
702278.000000
703075.000000
703825.000000
704646.000000
705647.000000
706582.000000
707636.000000
708614.000000
709535.000000
710398.000000
711254.000000
712153.000000
713155.000000
714116.000000
715090.000000
716057.000000
716975.000000
717831.000000
718671.000000
719519.000000
720428.000000
721417.000000
722352.000000
723276.000000
724219.000000
725155.000000
726029.000000
726930.000000
727810.000000
728694.000000
729531.000000
730365.000000
731271.000000
732223.000000
733115.000000
733937.000000
734764.000000
735644.000000
736531.000000
737361.000000
738234.000000
739181.000000
740114.000000
740966.000000
741827.000000
742727.000000
743665.000000
744530.000000
745377.000000
746237.000000
747128.000000
748003.000000
748848.000000
749715.000000
750613.000000
751425.000000
752189.000000
752921.000000
753859.000000
754682.000000
755536.000000
756622.000000
757717.000000
758656.000000
759586.000000
760469.000000
761348.000000
762177.000000
763032.000000
763974.000000
764946.000000
765850.000000
766778.000000
767706.000000
768621.000000
769477.000000
770329.000000
771233.000000
772240.000000
773174.000000
774050.000000
774986.000000
775960.000000
776916.000000
777799.000000
778660.000000
779558.000000
780476.000000
781351.000000
782202.000000
783086.000000
784005.000000
784855.000000
785728.000000
786677.000000
787637.000000
788508.000000
789374.000000
790255.000000
791154.000000
792007.000000
792987.000000
793896.000000
794681.000000
795418.000000
796141.000000
796895.000000
797648.000000
798370.000000
799092.000000
799833.000000
800659.000000
801548.000000
802376.000000
803254.000000
804109.000000
804959.000000
805774.000000
806610.000000
807460.000000
808301.000000
809117.000000
809933.000000
810802.000000
811753.000000
812690.000000
813542.000000
814342.000000
815139.000000
815992.000000
816842.000000
817751.000000
818806.000000
819887.000000
820802.000000
821695.000000
822653.000000
823518.000000
824286.000000
825037.000000
825823.000000
826635.000000
827458.000000
828388.000000
829407.000000
830300.000000
831174.000000
832127.000000
833130.000000
834054.000000
834959.000000
835897.000000
836882.000000
837787.000000
838697.000000
839602.000000
840514.000000
841378.000000
842241.000000
843142.000000
844049.000000
844911.000000
845728.000000
846577.000000
847445.000000
848305.000000
849117.000000
849950.000000
850883.000000
851797.000000
852646.000000
853464.000000
854281.000000
855137.000000
855969.000000
856846.000000
857764.000000
858688.000000
859496.000000
860239.000000
860962.000000
861689.000000
862394.000000
863649.000000
864660.000000
865782.000000
866873.000000
867762.000000
868686.000000
869735.000000
870690.000000
871558.000000
872483.000000
873495.000000
874422.000000
875222.000000
876011.000000
876851.000000
877675.000000
878458.000000
879190.000000
879994.000000
881274.000000
882280.000000
883159.000000
883987.000000
884783.000000
885557.000000
886271.000000
886971.000000
887667.000000
888463.000000
889594.000000
890540.000000
891407.000000
892317.000000
893243.000000
894160.000000
895053.000000
895930.000000
896801.000000
897658.000000
898485.000000
899294.000000
900094.000000
900902.000000
901754.000000
902632.000000
903525.000000
904438.000000
905375.000000
906273.000000
907104.000000
907942.000000
908844.000000
909777.000000
910620.000000
911478.000000
912258.000000
912996.000000
913783.000000
914673.000000
915532.000000
916503.000000
917570.000000
918596.000000
919508.000000
920366.000000
921228.000000
922066.000000
922864.000000
923653.000000
924469.000000
925359.000000
926172.000000
927000.000000
927981.000000
929178.000000
930196.000000
931078.000000
931924.000000
932752.000000
933588.000000
934396.000000
935360.000000
936452.000000
937496.000000
938434.000000
939371.000000
940346.000000
941288.000000
942162.000000
942984.000000
943811.000000
944657.000000
945474.000000
946302.000000
947186.000000
948130.000000
949017.000000
949858.000000
950697.000000
951529.000000
952372.000000
953137.000000
953897.000000
954676.000000
955799.000000
956723.000000
957634.000000
958505.000000
959370.000000
960195.000000
961017.000000
961848.000000
962665.000000
963456.000000
964218.000000
965062.000000
965968.000000
966923.000000
967787.000000
968677.000000
969602.000000
970475.000000
971313.000000
972163.000000
973046.000000
973888.000000
974739.000000
975624.000000
976606.000000
977560.000000
978435.000000
979305.000000
980152.000000
980997.000000
981829.000000
982616.000000
983414.000000
984248.000000
985168.000000
986051.000000
986918.000000
987816.000000
988748.000000
989595.000000
990427.000000
991318.000000
992360.000000
993301.000000
994193.000000
995081.000000
996032.000000
996899.000000
997761.000000
998661.000000
999620.000000
1000528.000000
1001438.000000
1002413.000000
1003401.000000
1004303.000000
1005161.000000
1006031.000000
1006950.000000
1007850.000000
1008767.000000
1009713.000000
1010678.000000
1011575.000000
1012386.000000
1013188.000000
1014115.000000
1015111.000000
1016131.000000
1017396.000000
1018442.000000
1019363.000000
1020390.000000
1021465.000000
1022422.000000
1023350.000000
1024357.000000
1025375.000000
1026364.000000
1027257.000000
1028202.000000
1029232.000000
1030224.000000
1031107.000000
1031980.000000
1032871.000000
1033783.000000
1034668.000000
1035594.000000
1036595.000000
1037584.000000
1038493.000000
1039369.000000
1040222.000000
1041102.000000
1041957.000000
1042814.000000
1044032.000000
1045157.000000
1046083.000000
1047030.000000
1048050.000000
1048960.000000
1049840.000000
1050759.000000
1051749.000000
1052580.000000
1053369.000000
1054174.000000
1055123.000000
1056008.000000
1056928.000000
1057915.000000
1058927.000000
1059843.000000
1060784.000000
1061795.000000
1062806.000000
1063728.000000
1064701.000000
1065670.000000
1066685.000000
1067659.000000
1068613.000000
1069568.000000
1070568.000000
1071543.000000
1072465.000000
1073290.000000
1074074.000000
1074860.000000
1075900.000000
1076822.000000
1077652.000000
1078543.000000
1079723.000000
1080756.000000
1081656.000000
1082620.000000
1083654.000000
1084605.000000
1085476.000000
1086374.000000
1087351.000000
1088299.000000
1089188.000000
1090110.000000
1091065.000000
1092005.000000
1092885.000000
1093731.000000
1094609.000000
1095675.000000
1096660.000000
1097511.000000
1098391.000000
1099315.000000
1100290.000000
1101147.000000
1101970.000000
1102798.000000
1103705.000000
1104631.000000
1105872.000000
1107082.000000
1108078.000000
1109104.000000
1110151.000000
1111101.000000
1112005.000000
1112925.000000
1114049.000000
1115120.000000
1116141.000000
1117164.000000
1118104.000000
1119032.000000
1120003.000000
1121018.000000
1122021.000000
1122920.000000
1123827.000000
1124758.000000
1125697.000000
1126598.000000
1127454.000000
1128394.000000
1129559.000000
1130590.000000
1131518.000000
1132560.000000
1133658.000000
1134618.000000
1135447.000000
1136302.000000
1137152.000000
1138011.000000
1138960.000000
1140328.000000
1141509.000000
1142389.000000
1143284.000000
1144530.000000
1145486.000000
1146313.000000
1147063.000000
1147805.000000
1148538.000000
1149265.000000
1150024.000000
1151285.000000
1152176.000000
1153075.000000
1153986.000000
1154926.000000
1155793.000000
1156714.000000
1157595.000000
1158465.000000
1159301.000000
1160124.000000
1161041.000000
1162034.000000
1162948.000000
1163791.000000
1164603.000000
1165421.000000
1166296.000000
1167181.000000
1168078.000000
1168955.000000
1169886.000000
1170748.000000
1171618.000000
1172557.000000
1173577.000000
1174487.000000
1175368.000000
1176254.000000
1177154.000000
1177984.000000
1178857.000000
1179785.000000
1180725.000000
1181590.000000
1182478.000000
1183384.000000
1184236.000000
1185047.000000
1185880.000000
1186671.000000
1187549.000000
1188379.000000
1189229.000000
1190078.000000
1190957.000000
1191788.000000
1192734.000000
1193755.000000
1194792.000000
1195660.000000
1196513.000000
1197416.000000
1198353.000000
1199238.000000
1200172.000000
1201190.000000
1202148.000000
1203046.000000
1204023.000000
1205043.000000
1206040.000000
1206948.000000
1207826.000000
1208727.000000
1209660.000000
1210583.000000
1211641.000000
1212745.000000
1213775.000000
1214670.000000
1215579.000000
