ECG (ms)
400.000000
1348.000000
2331.000000
3320.000000
4287.000000
5244.000000
6184.000000
7114.000000
8020.000000
8965.000000
9930.000000
10891.000000
11863.000000
12831.000000
13769.000000
14695.000000
15632.000000
16578.000000
17511.000000
18424.000000
19365.000000
20308.000000
21228.000000
22150.000000
23108.000000
24062.000000
24964.000000
25860.000000
26707.000000
27481.000000
28269.000000
29148.000000
30075.000000
31062.000000
32056.000000
32994.000000
33902.000000
34820.000000
35746.000000
36635.000000
37550.000000
38491.000000
39436.000000
40346.000000
41260.000000
42182.000000
43081.000000
43963.000000
44895.000000
45854.000000
46771.000000
47724.000000
48716.000000
49698.000000
50627.000000
51585.000000
52568.000000
53540.000000
54469.000000
55443.000000
56445.000000
57399.000000
58314.000000
59234.000000
60150.000000
61090.000000
62032.000000
63023.000000
64018.000000
65015.000000
65966.000000
66954.000000
67959.000000
68907.000000
69855.000000
70798.000000
71729.000000
72643.000000
73598.000000
74558.000000
75506.000000
76435.000000
77390.000000
78369.000000
79353.000000
80282.000000
81227.000000
82191.000000
83160.000000
84084.000000
85014.000000
85943.000000
86880.000000
87787.000000
88710.000000
89645.000000
90594.000000
91512.000000
92440.000000
93374.000000
94315.000000
95213.000000
96129.000000
97042.000000
97961.000000
98848.000000
99760.000000
100707.000000
101672.000000
102611.000000
103557.000000
104519.000000
105482.000000
106425.000000
107337.000000
108277.000000
109226.000000
110136.000000
111004.000000
111897.000000
112816.000000
113771.000000
114714.000000
115678.000000
116670.000000
117655.000000
118590.000000
119523.000000
120463.000000
121399.000000
122294.000000
123198.000000
124139.000000
125101.000000
126033.000000
126975.000000
127935.000000
128913.000000
129911.000000
130896.000000
131850.000000
132836.000000
133817.000000
134752.000000
135680.000000
136628.000000
137598.000000
138548.000000
139501.000000
140473.000000
141465.000000
142413.000000
143364.000000
144336.000000
145317.000000
146291.000000
147212.000000
148154.000000
149110.000000
150032.000000
150942.000000
151875.000000
152827.000000
153751.000000
154677.000000
155641.000000
156625.000000
157565.000000
158509.000000
159483.000000
160467.000000
161394.000000
162323.000000
163264.000000
164239.000000
165195.000000
166148.000000
167122.000000
168100.000000
169023.000000
169972.000000
170925.000000
171891.000000
172826.000000
173795.000000
174776.000000
175732.000000
176659.000000
177622.000000
178599.000000
179566.000000
180486.000000
181424.000000
182376.000000
183337.000000
184268.000000
185217.000000
186181.000000
187153.000000
188086.000000
189039.000000
189998.000000
190911.000000
191819.000000
192746.000000
193687.000000
194592.000000
195490.000000
196420.000000
197377.000000
198309.000000
199258.000000
200211.000000
201151.000000
202048.000000
202961.000000
203882.000000
204842.000000
205773.000000
206715.000000
207676.000000
208638.000000
209530.000000
210419.000000
211342.000000
212296.000000
213212.000000
214104.000000
214983.000000
215803.000000
216596.000000
217443.000000
218296.000000
219185.000000
220120.000000
221080.000000
222002.000000
222928.000000
223873.000000
224822.000000
225711.000000
226578.000000
227465.000000
228397.000000
229310.000000
230258.000000
231211.000000
232149.000000
233050.000000
233984.000000
234919.000000
235835.000000
236750.000000
237683.000000
238629.000000
239530.000000
240451.000000
241385.000000
242315.000000
243201.000000
244112.000000
245039.000000
245976.000000
246862.000000
247766.000000
248678.000000
249573.000000
250474.000000
251416.000000
252396.000000
253347.000000
254247.000000
255188.000000
256167.000000
257150.000000
258087.000000
259044.000000
260017.000000
261022.000000
262017.000000
262968.000000
263915.000000
264864.000000
265811.000000
266728.000000
267685.000000
268653.000000
269643.000000
270564.000000
271494.000000
272436.000000
273376.000000
274272.000000
275189.000000
276115.000000
277066.000000
277977.000000
278884.000000
279819.000000
280774.000000
281704.000000
282624.000000
283567.000000
284500.000000
285402.000000
286332.000000
287281.000000
288186.000000
289087.000000
290000.000000
290912.000000
291808.000000
292720.000000
293655.000000
294564.000000
295467.000000
296404.000000
297340.000000
298225.000000
299110.000000
300045.000000
300984.000000
301909.000000
302831.000000
303774.000000
304727.000000
305672.000000
306576.000000
307494.000000
308430.000000
309366.000000
310271.000000
311174.000000
312112.000000
313054.000000
313968.000000
314882.000000
315827.000000
316793.000000
317763.000000
318694.000000
319642.000000
320605.000000
321575.000000
322510.000000
323461.000000
324415.000000
325377.000000
326288.000000
327178.000000
328075.000000
328935.000000
329722.000000
330540.000000
331391.000000
332257.000000
333184.000000
334145.000000
335092.000000
336006.000000
336938.000000
337890.000000
338807.000000
339724.000000
340665.000000
341623.000000
342541.000000
343463.000000
344399.000000
345356.000000
346269.000000
347187.000000
348123.000000
349074.000000
349987.000000
350942.000000
351947.000000
352949.000000
353929.000000
354813.000000
355645.000000
356522.000000
357494.000000
358483.000000
359467.000000
360426.000000
361420.000000
362411.000000
363430.000000
364458.000000
365469.000000
366462.000000
367467.000000
368430.000000
369397.000000
370394.000000
371414.000000
372440.000000
373433.000000
374447.000000
375465.000000
376488.000000
377498.000000
378490.000000
379498.000000
380511.000000
381515.000000
382482.000000
383446.000000
384395.000000
385352.000000
386322.000000
387273.000000
388268.000000
389275.000000
390285.000000
391289.000000
392274.000000
393224.000000
394128.000000
395061.000000
395969.000000
396796.000000
397581.000000
398415.000000
399305.000000
400240.000000
401140.000000
402091.000000
403050.000000
403976.000000
404892.000000
405838.000000
406784.000000
407687.000000
408598.000000
409519.000000
410431.000000
411319.000000
412257.000000
413210.000000
414137.000000
415081.000000
416044.000000
417024.000000
417974.000000
418935.000000
419914.000000
420890.000000
421848.000000
422769.000000
423704.000000
424647.000000
425591.000000
426516.000000
427478.000000
428453.000000
429436.000000
430368.000000
431273.000000
432207.000000
433143.000000
434065.000000
434975.000000
435939.000000
436917.000000
437904.000000
438866.000000
439790.000000
440714.000000
441655.000000
442613.000000
443548.000000
444512.000000
445488.000000
446465.000000
447411.000000
448312.000000
449237.000000
450181.000000
451111.000000
452027.000000
452984.000000
453942.000000
454882.000000
455857.000000
456851.000000
457838.000000
458784.000000
459735.000000
460698.000000
461623.000000
462521.000000
463472.000000
464452.000000
465410.000000
466387.000000
467340.000000
468256.000000
469207.000000
470172.000000
471121.000000
472096.000000
473081.000000
474058.000000
475003.000000
475925.000000
476884.000000
477794.000000
478620.000000
479432.000000
480316.000000
481277.000000
482244.000000
483219.000000
484218.000000
485221.000000
486222.000000
487183.000000
488152.000000
489134.000000
490129.000000
491117.000000
492115.000000
493123.000000
494120.000000
495062.000000
496011.000000
496982.000000
497905.000000
498815.000000
499768.000000
500755.000000
501723.000000
502671.000000
503647.000000
504633.000000
505616.000000
506551.000000
507502.000000
508452.000000
509401.000000
510330.000000
511269.000000
512240.000000
513261.000000
514250.000000
515237.000000
516232.000000
517214.000000
518162.000000
519085.000000
520041.000000
521046.000000
522079.000000
523058.000000
524048.000000
525042.000000
526014.000000
526954.000000
527939.000000
528927.000000
529875.000000
530807.000000
531644.000000
532470.000000
533336.000000
534203.000000
535146.000000
536143.000000
537173.000000
538174.000000
539171.000000
540177.000000
541188.000000
542181.000000
543123.000000
544106.000000
545123.000000
546148.000000
547137.000000
548151.000000
549164.000000
550170.000000
551131.000000
552107.000000
553094.000000
554059.000000
555042.000000
556071.000000
557119.000000
558156.000000
559164.000000
560178.000000
561187.000000
562152.000000
563129.000000
564124.000000
565132.000000
566112.000000
567057.000000
568009.000000
568975.000000
569943.000000
570938.000000
571973.000000
572993.000000
573973.000000
574899.000000
575785.000000
576738.000000
577788.000000
578873.000000
579891.000000
580889.000000
581911.000000
582918.000000
583891.000000
584905.000000
585944.000000
586955.000000
587942.000000
588977.000000
590009.000000
591021.000000
592051.000000
593080.000000
594078.000000
595059.000000
596058.000000
597071.000000
598060.000000
599023.000000
600020.000000
601040.000000
602057.000000
603045.000000
604022.000000
605011.000000
606002.000000
607003.000000
607978.000000
608940.000000
609930.000000
610936.000000
611918.000000
612923.000000
613954.000000
614989.000000
616003.000000
617031.000000
618041.000000
619021.000000
620009.000000
621025.000000
622042.000000
623039.000000
624005.000000
624990.000000
625998.000000
627010.000000
627990.000000
628958.000000
629951.000000
630920.000000
631855.000000
632770.000000
633626.000000
634447.000000
635390.000000
636332.000000
637327.000000
638386.000000
639455.000000
640480.000000
641514.000000
642574.000000
643623.000000
644667.000000
645646.000000
646618.000000
647627.000000
648651.000000
649667.000000
650723.000000
651822.000000
652915.000000
653962.000000
655011.000000
656076.000000
657133.000000
658144.000000
659137.000000
660163.000000
661182.000000
662230.000000
663298.000000
664365.000000
665387.000000
666420.000000
667457.000000
668492.000000
669529.000000
670536.000000
671536.000000
672542.000000
673566.000000
674566.000000
675585.000000
676608.000000
677623.000000
678609.000000
679594.000000
680618.000000
681648.000000
682689.000000
683680.000000
684679.000000
685666.000000
686617.000000
687597.000000
688629.000000
689624.000000
690607.000000
691616.000000
692633.000000
693633.000000
694674.000000
695733.000000
696796.000000
697829.000000
698821.000000
699815.000000
700810.000000
701822.000000
702814.000000
703835.000000
704856.000000
705839.000000
706851.000000
707901.000000
708925.000000
709893.000000
710879.000000
711886.000000
712901.000000
713865.000000
714834.000000
715814.000000
716855.000000
717871.000000
718875.000000
719891.000000
720891.000000
721852.000000
722850.000000
723912.000000
724981.000000
726006.000000
727061.000000
728082.000000
729100.000000
730089.000000
731050.000000
732089.000000
733129.000000
734204.000000
735264.000000
736293.000000
737306.000000
738325.000000
739380.000000
740391.000000
741425.000000
742460.000000
743442.000000
744353.000000
745199.000000
746067.000000
746933.000000
747858.000000
748826.000000
749797.000000
750726.000000
751705.000000
752744.000000
753740.000000
754692.000000
755687.000000
756712.000000
757659.000000
758580.000000
759535.000000
760493.000000
761443.000000
762392.000000
763385.000000
764391.000000
765357.000000
766313.000000
767297.000000
768303.000000
769330.000000
770324.000000
771347.000000
772381.000000
773401.000000
774405.000000
775350.000000
776269.000000
777243.000000
778272.000000
779311.000000
780337.000000
781404.000000
782495.000000
783564.000000
784606.000000
785588.000000
786562.000000
787553.000000
788581.000000
789641.000000
790669.000000
791670.000000
792696.000000
793734.000000
794769.000000
795746.000000
796702.000000
797692.000000
798714.000000
799723.000000
800766.000000
801821.000000
802873.000000
803883.000000
804835.000000
805821.000000
806852.000000
807863.000000
808859.000000
809843.000000
810752.000000
811628.000000
812509.000000
813464.000000
814475.000000
815465.000000
816448.000000
817460.000000
818474.000000
819438.000000
820445.000000
821476.000000
822511.000000
823501.000000
824509.000000
825530.000000
826554.000000
827534.000000
828538.000000
829578.000000
830626.000000
831637.000000
832616.000000
833601.000000
834594.000000
835613.000000
836613.000000
837623.000000
838674.000000
839705.000000
840687.000000
841666.000000
842660.000000
843660.000000
844638.000000
845656.000000
846707.000000
847744.000000
848762.000000
849733.000000
850698.000000
851664.000000
852635.000000
853604.000000
854623.000000
855686.000000
856753.000000
857764.000000
858774.000000
859800.000000
860826.000000
861837.000000
862891.000000
863960.000000
865013.000000
866030.000000
867046.000000
868078.000000
869115.000000
870117.000000
871076.000000
872072.000000
873109.000000
874175.000000
875217.000000
876263.000000
877298.000000
878287.000000
879248.000000
880264.000000
881328.000000
882385.000000
883424.000000
884482.000000
885544.000000
886592.000000
887644.000000
888710.000000
889786.000000
890819.000000
891844.000000
892886.000000
893916.000000
894949.000000
895967.000000
897032.000000
898105.000000
899163.000000
900200.000000
901173.000000
