ECG (ms)
405.000000
1213.000000
2013.000000
2807.000000
3600.000000
4394.000000
5187.000000
5975.000000
6759.000000
7541.000000
8326.000000
9118.000000
9904.000000
10688.000000
11472.000000
12252.000000
13027.000000
13790.000000
14551.000000
15317.000000
16093.000000
16874.000000
17654.000000
18430.000000
19205.000000
19973.000000
20733.000000
21483.000000
22250.000000
23031.000000
23816.000000
24599.000000
25383.000000
26156.000000
26921.000000
27693.000000
28462.000000
29228.000000
29992.000000
30756.000000
31514.000000
32272.000000
33043.000000
33821.000000
34596.000000
35365.000000
36133.000000
36894.000000
37654.000000
38416.000000
39181.000000
39955.000000
40728.000000
41498.000000
42266.000000
43030.000000
43784.000000
44537.000000
45290.000000
46051.000000
46821.000000
47593.000000
48357.000000
49121.000000
49875.000000
50631.000000
51393.000000
52165.000000
52937.000000
53709.000000
54477.000000
55232.000000
55981.000000
56737.000000
57498.000000
58262.000000
59030.000000
59803.000000
60569.000000
61335.000000
62114.000000
62902.000000
63690.000000
64481.000000
65267.000000
66055.000000
66849.000000
67657.000000
68467.000000
69281.000000
70095.000000
70904.000000
71710.000000
72505.000000
73306.000000
74118.000000
74924.000000
75728.000000
76532.000000
77340.000000
78138.000000
78937.000000
79720.000000
80483.000000
81226.000000
81964.000000
82699.000000
83426.000000
84155.000000
84892.000000
85651.000000
86427.000000
87211.000000
88002.000000
88793.000000
89566.000000
90332.000000
91100.000000
91883.000000
92671.000000
93462.000000
94251.000000
95046.000000
95842.000000
96621.000000
97399.000000
98178.000000
98958.000000
99734.000000
100491.000000
101252.000000
102016.000000
102780.000000
103544.000000
104311.000000
105077.000000
105843.000000
106621.000000
107408.000000
108198.000000
108996.000000
109799.000000
110596.000000
111396.000000
112206.000000
113010.000000
113817.000000
114622.000000
115424.000000
116233.000000
117038.000000
117838.000000
118641.000000
119459.000000
120280.000000
121103.000000
121926.000000
122744.000000
123548.000000
124339.000000
125136.000000
125940.000000
126751.000000
127560.000000
128357.000000
129146.000000
129942.000000
130744.000000
131553.000000
132357.000000
133159.000000
133954.000000
134752.000000
135550.000000
136348.000000
137143.000000
137931.000000
138717.000000
139512.000000
140308.000000
141117.000000
141919.000000
142720.000000
143519.000000
144317.000000
145109.000000
145897.000000
146688.000000
147484.000000
148299.000000
149114.000000
149927.000000
150743.000000
151562.000000
152371.000000
153184.000000
153989.000000
154787.000000
155589.000000
156390.000000
157189.000000
157976.000000
158765.000000
159562.000000
160364.000000
161167.000000
161978.000000
162788.000000
163595.000000
164394.000000
165202.000000
166008.000000
166812.000000
167611.000000
168409.000000
169202.000000
169983.000000
170764.000000
171555.000000
172351.000000
173148.000000
173943.000000
174736.000000
175525.000000
176305.000000
177090.000000
177890.000000
178688.000000
179486.000000
180289.000000
181093.000000
181882.000000
182662.000000
183457.000000
184271.000000
185087.000000
185900.000000
186715.000000
187513.000000
188298.000000
189085.000000
189878.000000
190683.000000
191485.000000
192279.000000
193071.000000
193860.000000
194642.000000
195427.000000
196224.000000
197020.000000
197813.000000
198611.000000
199404.000000
200194.000000
200984.000000
201782.000000
202593.000000
203418.000000
204236.000000
205060.000000
205868.000000
206657.000000
207436.000000
208225.000000
209023.000000
209824.000000
210628.000000
211435.000000
212231.000000
213026.000000
213812.000000
214596.000000
215392.000000
216186.000000
216989.000000
217787.000000
218588.000000
219385.000000
220180.000000
220982.000000
221786.000000
222587.000000
223392.000000
224182.000000
224970.000000
225763.000000
226561.000000
227362.000000
228168.000000
228974.000000
229770.000000
230564.000000
231366.000000
232171.000000
232982.000000
233792.000000
234607.000000
235426.000000
236237.000000
237050.000000
237858.000000
238653.000000
239450.000000
240245.000000
241044.000000
241853.000000
242660.000000
243463.000000
244273.000000
245073.000000
245864.000000
246664.000000
247462.000000
248266.000000
249078.000000
249891.000000
250685.000000
251477.000000
252261.000000
253047.000000
253846.000000
254662.000000
255479.000000
256294.000000
257094.000000
257892.000000
258700.000000
259515.000000
260322.000000
261137.000000
261938.000000
262727.000000
263529.000000
264338.000000
265150.000000
265953.000000
266748.000000
267536.000000
268303.000000
269079.000000
269877.000000
270689.000000
271498.000000
272315.000000
273124.000000
273928.000000
274719.000000
275505.000000
276296.000000
277104.000000
277918.000000
278732.000000
279548.000000
280364.000000
281168.000000
281979.000000
282798.000000
283620.000000
284445.000000
285277.000000
286088.000000
286897.000000
287717.000000
288543.000000
289370.000000
290186.000000
290994.000000
291789.000000
292593.000000
293392.000000
294186.000000
294975.000000
295759.000000
296541.000000
297322.000000
298113.000000
298902.000000
299688.000000
300473.000000
301254.000000
302027.000000
302792.000000
303569.000000
304341.000000
305104.000000
305874.000000
306640.000000
307415.000000
308203.000000
308992.000000
309778.000000
310571.000000
311374.000000
312165.000000
312946.000000
313734.000000
314521.000000
315304.000000
316089.000000
316884.000000
317669.000000
318447.000000
319239.000000
320042.000000
320848.000000
321654.000000
322468.000000
323274.000000
324088.000000
324909.000000
325721.000000
326541.000000
327338.000000
328138.000000
328952.000000
329771.000000
330603.000000
331433.000000
332267.000000
333096.000000
333931.000000
334763.000000
335600.000000
336431.000000
337256.000000
338060.000000
338859.000000
339675.000000
340496.000000
341331.000000
342162.000000
342980.000000
343794.000000
344616.000000
345438.000000
346260.000000
347084.000000
347912.000000
348727.000000
349542.000000
350360.000000
351169.000000
351974.000000
352771.000000
353571.000000
354382.000000
355207.000000
356029.000000
356852.000000
357673.000000
358479.000000
359284.000000
360099.000000
360918.000000
361744.000000
362562.000000
363387.000000
364212.000000
365024.000000
365828.000000
366648.000000
367475.000000
368292.000000
369115.000000
369932.000000
370739.000000
371551.000000
372370.000000
373197.000000
374023.000000
374843.000000
375662.000000
376466.000000
377286.000000
378110.000000
378938.000000
379763.000000
380593.000000
381410.000000
382213.000000
383020.000000
383836.000000
384655.000000
385469.000000
386276.000000
387072.000000
387851.000000
388630.000000
389417.000000
390216.000000
391012.000000
391811.000000
392605.000000
393393.000000
394186.000000
394978.000000
395768.000000
396552.000000
397333.000000
398113.000000
398888.000000
399670.000000
400465.000000
401268.000000
402078.000000
402880.000000
403682.000000
404486.000000
405295.000000
406103.000000
406906.000000
407714.000000
408497.000000
409281.000000
410067.000000
410855.000000
411650.000000
412436.000000
413226.000000
414026.000000
414834.000000
415646.000000
416450.000000
417245.000000
418032.000000
418812.000000
419606.000000
420400.000000
421206.000000
422005.000000
422802.000000
423609.000000
424423.000000
425240.000000
426049.000000
426847.000000
427637.000000
428412.000000
429184.000000
429962.000000
430745.000000
431538.000000
432337.000000
433140.000000
433939.000000
434725.000000
435513.000000
436307.000000
437095.000000
437883.000000
438657.000000
439438.000000
440223.000000
441021.000000
441822.000000
442605.000000
443386.000000
444178.000000
444976.000000
445774.000000
446572.000000
447368.000000
448163.000000
448952.000000
449729.000000
450511.000000
451303.000000
452107.000000
452924.000000
453746.000000
454556.000000
455369.000000
456187.000000
457001.000000
457813.000000
458616.000000
459415.000000
460221.000000
461029.000000
461832.000000
462631.000000
463423.000000
464208.000000
464996.000000
465790.000000
466590.000000
467388.000000
468185.000000
468969.000000
469759.000000
470554.000000
471356.000000
472157.000000
472959.000000
473748.000000
474554.000000
475364.000000
476186.000000
477011.000000
477831.000000
478651.000000
479460.000000
480260.000000
481062.000000
481868.000000
482673.000000
483476.000000
484283.000000
485080.000000
485876.000000
486666.000000
487445.000000
488227.000000
489028.000000
489843.000000
490662.000000
491489.000000
492317.000000
493127.000000
493929.000000
494730.000000
495531.000000
496336.000000
497138.000000
497936.000000
498727.000000
499514.000000
500311.000000
501120.000000
501933.000000
502748.000000
503554.000000
504350.000000
505144.000000
505944.000000
506746.000000
507549.000000
508348.000000
509139.000000
509926.000000
510719.000000
511522.000000
512318.000000
513118.000000
513914.000000
514700.000000
515482.000000
516266.000000
517049.000000
517835.000000
518620.000000
519409.000000
520202.000000
520991.000000
521775.000000
522559.000000
523357.000000
524164.000000
524973.000000
525781.000000
526582.000000
527372.000000
528155.000000
528949.000000
529762.000000
530581.000000
531401.000000
532217.000000
533019.000000
533808.000000
534591.000000
535381.000000
536178.000000
536986.000000
537795.000000
538598.000000
539392.000000
540185.000000
540977.000000
541783.000000
542597.000000
543430.000000
544261.000000
545088.000000
545900.000000
546721.000000
547546.000000
548368.000000
549192.000000
549994.000000
550783.000000
551559.000000
552352.000000
553162.000000
553979.000000
554808.000000
555630.000000
556459.000000
557292.000000
558115.000000
558920.000000
559730.000000
560553.000000
561383.000000
562212.000000
563028.000000
563850.000000
564679.000000
565518.000000
566351.000000
567183.000000
568009.000000
568830.000000
569642.000000
570443.000000
571258.000000
572081.000000
572901.000000
573720.000000
574532.000000
575337.000000
576149.000000
576969.000000
577788.000000
578602.000000
579414.000000
580221.000000
581019.000000
581830.000000
582644.000000
583458.000000
584271.000000
585082.000000
585886.000000
586686.000000
587480.000000
588289.000000
589104.000000
589923.000000
590740.000000
591562.000000
592394.000000
593216.000000
594034.000000
594864.000000
595698.000000
596526.000000
597361.000000
598178.000000
598990.000000
599821.000000
600659.000000
601499.000000
602329.000000
603146.000000
603948.000000
604588.000000
605608.000000
606459.000000
607305.000000
608134.000000
608954.000000
609767.000000
610576.000000
611386.000000
612220.000000
613067.000000
613916.000000
614756.000000
615588.000000
616399.000000
617222.000000
618043.000000
618861.000000
619677.000000
620489.000000
621296.000000
622097.000000
622910.000000
623727.000000
624541.000000
625355.000000
626163.000000
626970.000000
627787.000000
628602.000000
629416.000000
630230.000000
631040.000000
631852.000000
632671.000000
633489.000000
634301.000000
635103.000000
635908.000000
636718.000000
637529.000000
638343.000000
639158.000000
639965.000000
640768.000000
641580.000000
642402.000000
643224.000000
644051.000000
644873.000000
645700.000000
646511.000000
647322.000000
648148.000000
648961.000000
649775.000000
650610.000000
651471.000000
652346.000000
653225.000000
654094.000000
654958.000000
655811.000000
656656.000000
657503.000000
658333.000000
659137.000000
659937.000000
660745.000000
661567.000000
662392.000000
663224.000000
664054.000000
664877.000000
665700.000000
666508.000000
667307.000000
668115.000000
668939.000000
669769.000000
670595.000000
671425.000000
672258.000000
673074.000000
673897.000000
674724.000000
675561.000000
676388.000000
677203.000000
678016.000000
678844.000000
679681.000000
680531.000000
681375.000000
682222.000000
683056.000000
683888.000000
684697.000000
685503.000000
686328.000000
687164.000000
688005.000000
688841.000000
689665.000000
690478.000000
691287.000000
692085.000000
692893.000000
693711.000000
694535.000000
695366.000000
696190.000000
697004.000000
697807.000000
698618.000000
699439.000000
700261.000000
701079.000000
701889.000000
702691.000000
703506.000000
704320.000000
705129.000000
705942.000000
706764.000000
707579.000000
708388.000000
709199.000000
710000.000000
710810.000000
711617.000000
712419.000000
713237.000000
714056.000000
714877.000000
715699.000000
716508.000000
717326.000000
718146.000000
718964.000000
719785.000000
720607.000000
721427.000000
722265.000000
723100.000000
723934.000000
724761.000000
725584.000000
726418.000000
727246.000000
728072.000000
728889.000000
729708.000000
730534.000000
731362.000000
732192.000000
733023.000000
733850.000000
734682.000000
735515.000000
736345.000000
737178.000000
738009.000000
738836.000000
739655.000000
740476.000000
741299.000000
742127.000000
742947.000000
743769.000000
744595.000000
745427.000000
746254.000000
747079.000000
747905.000000
748723.000000
749550.000000
750383.000000
751212.000000
752031.000000
752847.000000
753665.000000
754488.000000
755303.000000
756125.000000
756944.000000
757782.000000
758619.000000
759443.000000
760261.000000
761097.000000
761946.000000
762808.000000
763659.000000
764507.000000
765326.000000
766119.000000
766899.000000
767698.000000
768517.000000
769345.000000
770175.000000
771010.000000
771840.000000
772643.000000
773445.000000
774254.000000
775073.000000
775894.000000
776716.000000
777528.000000
778323.000000
779107.000000
779911.000000
780716.000000
781521.000000
782322.000000
783108.000000
783884.000000
784673.000000
785469.000000
786269.000000
787065.000000
787872.000000
788673.000000
789462.000000
790245.000000
791031.000000
791818.000000
792608.000000
793400.000000
794201.000000
795003.000000
795792.000000
796585.000000
797380.000000
798176.000000
798970.000000
799763.000000
800542.000000
801326.000000
802115.000000
802918.000000
803723.000000
804532.000000
805347.000000
806151.000000
806946.000000
807742.000000
808542.000000
809354.000000
810171.000000
810970.000000
811762.000000
812560.000000
813371.000000
814188.000000
815006.000000
815800.000000
816561.000000
817327.000000
818115.000000
818916.000000
819713.000000
820514.000000
821288.000000
822038.000000
822773.000000
823500.000000
824227.000000
824975.000000
825754.000000
826583.000000
827440.000000
828320.000000
829202.000000
830073.000000
830925.000000
831779.000000
832652.000000
833542.000000
834411.000000
835273.000000
836115.000000
836934.000000
837736.000000
838542.000000
839359.000000
840190.000000
841028.000000
841860.000000
842683.000000
843501.000000
844316.000000
845140.000000
845974.000000
846804.000000
847632.000000
848441.000000
849260.000000
850088.000000
850913.000000
851744.000000
852590.000000
853432.000000
854269.000000
855109.000000
855966.000000
856815.000000
857678.000000
858533.000000
859388.000000
860249.000000
861100.000000
861954.000000
862801.000000
863631.000000
864457.000000
865294.000000
866146.000000
867002.000000
867854.000000
868709.000000
869555.000000
870392.000000
871213.000000
872037.000000
872878.000000
873725.000000
874572.000000
875412.000000
876227.000000
877055.000000
877888.000000
878718.000000
879548.000000
880363.000000
881165.000000
881961.000000
882775.000000
883604.000000
884449.000000
885299.000000
886144.000000
886983.000000
887825.000000
888657.000000
889501.000000
890346.000000
891195.000000
892034.000000
892870.000000
893686.000000
894479.000000
895274.000000
896074.000000
896882.000000
897700.000000
898523.000000
899341.000000
900148.000000
