ECG (ms)
170.000000
1168.000000
2152.000000
3133.000000
4107.000000
5047.000000
5992.000000
6933.000000
7859.000000
8855.000000
9831.000000
10792.000000
11826.000000
12821.000000
13801.000000
14839.000000
15807.000000
16795.000000
17777.000000
18693.000000
19600.000000
20536.000000
21448.000000
22376.000000
23308.000000
24217.000000
25089.000000
25982.000000
26873.000000
27743.000000
28682.000000
29633.000000
30576.000000
31528.000000
32504.000000
33442.000000
34299.000000
35182.000000
36105.000000
37008.000000
37888.000000
38845.000000
39797.000000
40709.000000
41653.000000
42643.000000
43574.000000
44516.000000
45515.000000
46490.000000
47494.000000
48497.000000
49439.000000
50437.000000
51430.000000
52374.000000
53332.000000
54257.000000
55142.000000
56087.000000
57055.000000
57967.000000
58941.000000
59975.000000
60975.000000
61997.000000
63050.000000
64015.000000
64977.000000
65982.000000
66941.000000
67860.000000
68820.000000
69749.000000
70682.000000
71615.000000
72528.000000
73485.000000
74444.000000
75376.000000
76362.000000
77334.000000
78228.000000
79135.000000
80078.000000
80962.000000
81889.000000
82874.000000
83814.000000
84793.000000
85789.000000
86726.000000
87655.000000
88602.000000
89519.000000
90475.000000
91468.000000
92447.000000
93409.000000
94441.000000
95418.000000
96354.000000
97361.000000
98376.000000
99341.000000
100364.000000
101389.000000
102378.000000
103404.000000
104404.000000
105372.000000
106379.000000
107412.000000
108415.000000
109415.000000
110448.000000
111469.000000
112521.000000
113516.000000
114514.000000
115558.000000
116579.000000
117591.000000
118584.000000
119528.000000
120480.000000
121453.000000
122410.000000
123404.000000
124421.000000
125382.000000
126369.000000
127340.000000
128253.000000
129236.000000
130210.000000
131114.000000
132055.000000
133010.000000
133915.000000
134875.000000
135855.000000
136780.000000
137735.000000
138740.000000
139715.000000
140699.000000
141690.000000
142635.000000
143602.000000
144571.000000
145505.000000
146471.000000
147480.000000
148449.000000
149453.000000
150446.000000
151393.000000
152359.000000
153334.000000
154269.000000
155248.000000
156267.000000
157280.000000
158281.000000
159280.000000
160220.000000
161154.000000
162091.000000
162999.000000
163907.000000
164908.000000
165952.000000
166909.000000
167923.000000
168956.000000
169898.000000
170859.000000
171822.000000
172731.000000
173669.000000
174683.000000
175682.000000
176713.000000
177828.000000
178889.000000
179918.000000
180958.000000
181928.000000
182941.000000
183926.000000
184849.000000
185778.000000
186683.000000
187568.000000
188552.000000
189553.000000
190495.000000
191493.000000
192487.000000
193422.000000
194395.000000
195390.000000
196335.000000
197274.000000
198282.000000
199284.000000
200240.000000
201241.000000
202230.000000
203179.000000
204171.000000
205168.000000
206112.000000
207086.000000
208073.000000
209008.000000
209968.000000
210979.000000
211923.000000
212906.000000
213915.000000
214854.000000
215829.000000
216808.000000
217731.000000
218659.000000
219606.000000
220534.000000
221427.000000
222388.000000
223390.000000
224330.000000
225287.000000
226248.000000
227195.000000
228141.000000
229164.000000
230192.000000
231177.000000
232185.000000
233200.000000
234173.000000
235153.000000
236163.000000
237123.000000
238020.000000
238955.000000
239917.000000
240870.000000
241896.000000
242892.000000
243786.000000
244698.000000
245601.000000
246469.000000
247364.000000
248363.000000
249336.000000
250264.000000
251239.000000
252210.000000
253145.000000
254116.000000
255093.000000
256009.000000
256957.000000
257912.000000
258858.000000
259778.000000
260763.000000
261765.000000
262715.000000
263688.000000
264654.000000
265598.000000
266576.000000
267580.000000
268512.000000
269469.000000
270462.000000
271416.000000
272319.000000
273252.000000
274192.000000
275085.000000
276040.000000
277037.000000
277970.000000
278946.000000
279943.000000
280874.000000
281822.000000
282763.000000
283647.000000
284521.000000
285465.000000
286385.000000
287264.000000
288252.000000
289228.000000
290108.000000
290981.000000
291880.000000
292732.000000
293627.000000
294651.000000
295583.000000
296530.000000
297544.000000
298515.000000
299520.000000
300527.000000
301460.000000
302411.000000
303340.000000
304201.000000
305080.000000
305973.000000
306823.000000
307700.000000
308589.000000
309438.000000
310340.000000
311310.000000
312185.000000
313107.000000
314066.000000
314970.000000
315908.000000
316887.000000
317799.000000
318782.000000
319710.000000
320589.000000
321482.000000
322360.000000
323210.000000
324103.000000
325083.000000
325985.000000
326932.000000
327958.000000
328952.000000
329896.000000
330842.000000
331776.000000
332671.000000
333615.000000
334572.000000
335492.000000
336441.000000
337447.000000
338384.000000
339333.000000
340303.000000
341226.000000
342142.000000
343098.000000
344070.000000
345018.000000
346024.000000
347028.000000
347977.000000
348942.000000
349910.000000
350843.000000
351833.000000
352865.000000
353843.000000
354859.000000
355878.000000
356831.000000
357812.000000
358768.000000
359668.000000
360591.000000
361546.000000
362474.000000
363464.000000
364505.000000
365475.000000
366507.000000
367539.000000
368504.000000
369504.000000
370483.000000
371417.000000
372394.000000
373386.000000
374310.000000
375271.000000
376271.000000
377221.000000
378195.000000
379227.000000
380175.000000
381120.000000
382076.000000
383008.000000
383958.000000
385006.000000
386027.000000
386993.000000
388024.000000
389033.000000
389957.000000
390914.000000
391834.000000
392686.000000
393611.000000
394536.000000
395403.000000
396355.000000
397319.000000
398184.000000
399088.000000
400061.000000
400949.000000
401850.000000
402777.000000
403655.000000
404550.000000
405519.000000
406425.000000
407357.000000
408349.000000
409329.000000
410284.000000
411245.000000
412144.000000
413046.000000
413970.000000
414865.000000
415756.000000
416656.000000
417576.000000
418441.000000
419352.000000
420295.000000
421211.000000
422180.000000
423199.000000
424137.000000
425048.000000
425959.000000
426922.000000
427834.000000
428834.000000
429882.000000
430861.000000
431911.000000
432934.000000
433878.000000
434874.000000
435847.000000
436740.000000
437709.000000
438736.000000
439712.000000
440668.000000
441673.000000
442651.000000
443617.000000
444642.000000
445656.000000
446629.000000
447670.000000
448694.000000
449680.000000
450706.000000
451726.000000
452714.000000
453735.000000
454748.000000
455718.000000
456744.000000
457782.000000
458762.000000
459751.000000
460782.000000
461766.000000
462777.000000
463807.000000
464793.000000
465799.000000
466813.000000
467778.000000
468785.000000
469802.000000
470771.000000
471745.000000
472742.000000
473665.000000
474590.000000
475627.000000
476645.000000
477608.000000
478618.000000
479641.000000
480598.000000
481595.000000
482603.000000
483546.000000
484500.000000
485471.000000
486373.000000
487260.000000
488208.000000
489169.000000
490125.000000
491096.000000
492118.000000
493086.000000
494043.000000
495024.000000
495996.000000
496918.000000
497874.000000
498851.000000
499763.000000
500709.000000
501704.000000
502686.000000
503639.000000
504626.000000
505598.000000
506505.000000
507445.000000
508398.000000
509336.000000
510311.000000
511370.000000
512370.000000
513423.000000
514464.000000
515464.000000
516415.000000
517466.000000
518505.000000
519474.000000
520504.000000
521489.000000
522421.000000
523410.000000
524363.000000
525267.000000
526271.000000
527274.000000
528227.000000
529142.000000
530099.000000
531064.000000
532042.000000
533099.000000
534106.000000
535142.000000
536148.000000
537108.000000
538087.000000
539074.000000
540026.000000
541040.000000
542032.000000
542985.000000
543975.000000
544961.000000
545898.000000
546867.000000
547846.000000
548783.000000
549741.000000
550734.000000
551709.000000
552692.000000
553694.000000
554700.000000
555654.000000
556613.000000
557558.000000
558446.000000
559377.000000
560358.000000
561311.000000
562291.000000
563291.000000
564255.000000
565200.000000
566169.000000
567089.000000
567956.000000
568936.000000
569935.000000
570843.000000
571820.000000
572819.000000
573781.000000
574724.000000
575711.000000
576699.000000
577629.000000
578614.000000
579633.000000
580617.000000
581627.000000
582638.000000
583580.000000
584522.000000
585505.000000
586431.000000
587393.000000
588431.000000
589424.000000
590427.000000
591435.000000
592406.000000
593359.000000
594347.000000
595322.000000
596252.000000
597266.000000
598269.000000
599205.000000
600204.000000
601195.000000
602139.000000
603148.000000
604163.000000
605099.000000
606038.000000
606964.000000
607830.000000
608708.000000
609689.000000
610661.000000
611613.000000
612649.000000
613647.000000
614575.000000
615544.000000
616568.000000
617530.000000
618475.000000
619438.000000
620374.000000
621298.000000
622277.000000
623257.000000
624108.000000
624917.000000
625835.000000
626847.000000
627763.000000
628708.000000
629788.000000
630827.000000
631830.000000
632896.000000
633948.000000
634962.000000
636014.000000
637029.000000
638004.000000
639003.000000
640048.000000
641037.000000
642054.000000
643072.000000
644039.000000
645039.000000
646070.000000
647095.000000
648108.000000
649155.000000
650200.000000
651162.000000
652187.000000
653219.000000
654168.000000
655179.000000
656210.000000
657184.000000
658217.000000
659242.000000
660181.000000
661161.000000
662123.000000
663003.000000
663966.000000
664991.000000
665957.000000
666980.000000
668007.000000
669007.000000
670031.000000
671034.000000
671977.000000
672952.000000
673956.000000
674897.000000
675839.000000
676814.000000
677755.000000
678643.000000
679563.000000
680551.000000
681477.000000
682450.000000
683445.000000
684373.000000
685297.000000
686278.000000
687224.000000
688112.000000
689004.000000
689878.000000
690716.000000
691580.000000
692440.000000
693235.000000
694099.000000
695173.000000
696234.000000
697167.000000
698142.000000
699102.000000
700000.000000
700909.000000
701865.000000
702854.000000
703764.000000
704702.000000
705611.000000
706468.000000
707308.000000
708107.000000
708883.000000
709721.000000
710541.000000
711420.000000
712361.000000
713263.000000
714115.000000
715045.000000
716034.000000
716981.000000
717885.000000
718833.000000
719825.000000
720749.000000
721694.000000
722723.000000
723701.000000
724591.000000
725532.000000
726542.000000
727458.000000
728378.000000
729362.000000
730293.000000
731347.000000
732450.000000
733422.000000
734453.000000
735498.000000
736471.000000
737472.000000
738470.000000
739418.000000
740324.000000
741307.000000
742349.000000
743329.000000
744333.000000
745388.000000
746409.000000
747349.000000
748301.000000
749279.000000
750208.000000
751121.000000
752103.000000
753105.000000
754072.000000
755094.000000
756141.000000
757088.000000
757946.000000
758754.000000
759588.000000
760616.000000
761691.000000
762673.000000
763657.000000
764727.000000
765718.000000
766729.000000
767759.000000
768776.000000
769765.000000
770789.000000
771814.000000
772800.000000
773812.000000
774805.000000
775791.000000
776771.000000
777799.000000
778791.000000
779772.000000
780761.000000
781752.000000
782723.000000
783712.000000
784685.000000
785631.000000
786584.000000
787554.000000
788484.000000
789391.000000
790302.000000
791165.000000
791967.000000
792868.000000
793826.000000
794712.000000
795766.000000
796788.000000
797744.000000
798781.000000
799780.000000
800689.000000
801614.000000
802581.000000
803484.000000
804415.000000
805417.000000
806414.000000
807370.000000
808373.000000
809407.000000
810335.000000
811262.000000
812233.000000
813295.000000
814290.000000
815287.000000
816240.000000
817159.000000
818157.000000
819131.000000
820035.000000
821058.000000
822112.000000
823080.000000
824050.000000
825070.000000
826027.000000
827032.000000
828122.000000
829171.000000
830165.000000
831203.000000
832254.000000
833260.000000
834264.000000
835258.000000
836136.000000
836973.000000
837855.000000
838897.000000
839907.000000
840991.000000
842091.000000
843110.000000
844072.000000
845050.000000
846015.000000
846931.000000
847902.000000
848941.000000
849945.000000
850887.000000
851875.000000
852858.000000
853760.000000
854678.000000
855660.000000
856600.000000
857546.000000
858615.000000
859675.000000
860662.000000
861666.000000
862694.000000
863691.000000
864638.000000
865650.000000
866650.000000
867610.000000
868578.000000
869587.000000
870567.000000
871557.000000
872598.000000
873616.000000
874609.000000
875631.000000
876619.000000
877500.000000
878381.000000
879259.000000
880101.000000
880977.000000
881966.000000
882936.000000
883978.000000
885059.000000
886020.000000
887040.000000
888066.000000
888976.000000
889893.000000
890899.000000
891859.000000
892814.000000
893842.000000
894824.000000
895729.000000
896711.000000
897722.000000
898633.000000
899520.000000
900508.000000
901556.000000
902564.000000
903651.000000
904720.000000
905741.000000
906798.000000
907835.000000
908813.000000
909848.000000
910893.000000
911916.000000
912966.000000
913999.000000
914977.000000
915968.000000
916987.000000
917979.000000
919034.000000
920090.000000
921092.000000
922133.000000
923221.000000
924199.000000
925151.000000
926125.000000
927130.000000
928091.000000
929075.000000
930094.000000
931040.000000
931947.000000
932911.000000
933888.000000
934816.000000
935857.000000
936886.000000
937871.000000
938880.000000
939934.000000
940939.000000
941973.000000
943028.000000
944059.000000
944984.000000
945904.000000
946854.000000
947725.000000
948596.000000
949767.000000
950868.000000
951909.000000
953042.000000
954111.000000
955134.000000
956208.000000
957238.000000
958222.000000
959199.000000
960213.000000
961169.000000
962097.000000
963037.000000
963967.000000
964862.000000
965863.000000
966946.000000
967983.000000
969070.000000
970148.000000
971181.000000
972217.000000
973258.000000
974257.000000
975300.000000
976352.000000
977370.000000
978324.000000
979327.000000
980376.000000
981370.000000
982396.000000
983462.000000
984466.000000
985444.000000
986449.000000
987450.000000
988421.000000
989431.000000
990429.000000
991354.000000
992314.000000
993321.000000
994263.000000
995270.000000
996288.000000
997226.000000
998196.000000
999194.000000
1000136.000000
1001102.000000
1002081.000000
1003042.000000
1003992.000000
1005098.000000
1006125.000000
1007087.000000
1008108.000000
1009145.000000
1010147.000000
1011170.000000
1012186.000000
1013147.000000
1014139.000000
1015156.000000
1016127.000000
1017086.000000
1018092.000000
1019067.000000
1020044.000000
1021095.000000
1022128.000000
1023093.000000
1024073.000000
1025065.000000
1026061.000000
1027087.000000
1028138.000000
1029136.000000
1030159.000000
1031182.000000
1032141.000000
1033133.000000
1034145.000000
1035126.000000
1036112.000000
1037122.000000
1038088.000000
1038956.000000
1039851.000000
1040748.000000
1041583.000000
1042434.000000
1043299.000000
1044161.000000
1045018.000000
1046054.000000
1047023.000000
1047920.000000
1048871.000000
1049832.000000
1050712.000000
1051664.000000
1052672.000000
1053607.000000
1054521.000000
1055486.000000
1056404.000000
1057215.000000
1057985.000000
1058713.000000
1059514.000000
1060371.000000
1061268.000000
1062201.000000
1063130.000000
1064172.000000
1065215.000000
1066162.000000
1067121.000000
1068094.000000
1069012.000000
1069905.000000
1070791.000000
1071666.000000
1072514.000000
1073473.000000
1074489.000000
1075429.000000
1076425.000000
1077392.000000
1078308.000000
1079245.000000
1080149.000000
1080993.000000
1081878.000000
1082810.000000
1083728.000000
1084769.000000
1085829.000000
1086802.000000
1087815.000000
1088807.000000
1089694.000000
1090591.000000
1091544.000000
1092457.000000
1093420.000000
1094457.000000
1095455.000000
1096439.000000
1097434.000000
1098374.000000
1099238.000000
1100037.000000
1100834.000000
1101828.000000
1102762.000000
1103666.000000
1104703.000000
1105723.000000
1106626.000000
1107551.000000
1108484.000000
1109330.000000
1110226.000000
1111114.000000
1111920.000000
1112807.000000
1113773.000000
1114646.000000
1115575.000000
1116591.000000
1117510.000000
1118382.000000
1119351.000000
1120265.000000
1121236.000000
1122222.000000
1123138.000000
1124122.000000
1125090.000000
1126094.000000
1127086.000000
1128109.000000
1129081.000000
1130055.000000
1130977.000000
1131957.000000
1132951.000000
1133985.000000
1134966.000000
1135981.000000
1136948.000000
1137954.000000
1138925.000000
1139917.000000
1140932.000000
1142008.000000
1143068.000000
1144097.000000
1145117.000000
1146099.000000
1147058.000000
1148056.000000
1149102.000000
1150129.000000
1151134.000000
1152189.000000
1153196.000000
1154205.000000
1155157.000000
1156073.000000
1156966.000000
1157958.000000
1158944.000000
1160004.000000
1161046.000000
1162091.000000
1163126.000000
1164171.000000
1165171.000000
1166165.000000
1167151.000000
1168110.000000
1169088.000000
1170090.000000
1171091.000000
1172076.000000
1173062.000000
1174041.000000
1174919.000000
1175718.000000
1176488.000000
1177285.000000
1178537.000000
1179556.000000
1180582.000000
1181506.000000
1182378.000000
1183311.000000
1184214.000000
1185066.000000
1185911.000000
1186822.000000
1187720.000000
1188610.000000
1189492.000000
1190446.000000
1191434.000000
1192423.000000
1193404.000000
1194388.000000
