ECG (ms)
380.000000
1108.000000
1854.000000
2616.000000
3390.000000
4155.000000
4933.000000
5725.000000
6513.000000
7297.000000
8090.000000
8882.000000
9680.000000
10468.000000
11221.000000
11941.000000
12658.000000
13397.000000
14262.000000
15142.000000
15964.000000
16758.000000
17554.000000
18351.000000
19153.000000
19982.000000
20774.000000
21551.000000
22377.000000
23226.000000
24067.000000
24871.000000
25619.000000
26359.000000
27113.000000
27925.000000
28791.000000
29691.000000
30578.000000
31440.000000
32313.000000
33120.000000
33956.000000
34793.000000
35645.000000
36446.000000
37325.000000
38182.000000
39056.000000
39845.000000
40618.000000
41414.000000
42271.000000
43125.000000
43943.000000
44717.000000
45529.000000
46399.000000
47310.000000
48141.000000
48900.000000
49649.000000
50407.000000
51174.000000
52021.000000
52903.000000
53840.000000
54749.000000
55579.000000
56363.000000
57156.000000
58006.000000
58901.000000
59741.000000
60528.000000
61301.000000
62105.000000
62924.000000
63738.000000
64572.000000
65439.000000
66326.000000
67141.000000
67920.000000
68705.000000
69507.000000
70357.000000
71225.000000
72028.000000
72811.000000
73636.000000
74512.000000
75336.000000
76153.000000
76992.000000
77806.000000
78585.000000
79339.000000
80120.000000
80942.000000
81791.000000
82621.000000
83398.000000
84174.000000
84987.000000
85845.000000
86741.000000
87656.000000
88485.000000
89257.000000
90067.000000
90871.000000
91679.000000
92477.000000
93280.000000
94088.000000
94882.000000
95649.000000
96408.000000
97211.000000
98113.000000
99034.000000
99961.000000
100806.000000
101592.000000
102369.000000
103140.000000
103909.000000
104693.000000
105480.000000
106265.000000
107146.000000
108074.000000
108973.000000
109793.000000
110547.000000
111270.000000
111965.000000
112666.000000
113443.000000
114389.000000
115354.000000
116293.000000
117152.000000
117967.000000
118728.000000
119476.000000
120214.000000
121007.000000
121930.000000
122963.000000
123934.000000
124812.000000
125641.000000
126447.000000
127236.000000
128002.000000
128795.000000
129603.000000
130434.000000
131242.000000
132040.000000
132918.000000
133816.000000
134710.000000
135527.000000
136339.000000
137136.000000
137913.000000
138677.000000
139488.000000
140375.000000
141222.000000
142064.000000
142925.000000
143758.000000
144539.000000
145325.000000
146110.000000
146883.000000
147680.000000
148698.000000
149674.000000
150508.000000
151305.000000
152147.000000
153018.000000
153817.000000
154655.000000
155517.000000
156362.000000
157144.000000
157946.000000
158778.000000
159566.000000
160317.000000
161069.000000
161825.000000
162609.000000
163359.000000
164102.000000
164865.000000
165637.000000
166398.000000
167136.000000
167847.000000
168527.000000
169208.000000
169907.000000
170602.000000
171320.000000
172063.000000
172827.000000
173577.000000
174319.000000
175077.000000
175845.000000
176613.000000
177347.000000
178071.000000
178808.000000
179574.000000
180358.000000
181150.000000
181919.000000
182679.000000
183457.000000
184237.000000
185048.000000
185896.000000
186672.000000
187416.000000
188191.000000
189069.000000
190022.000000
190934.000000
191739.000000
192551.000000
193336.000000
194110.000000
194888.000000
195642.000000
196383.000000
197138.000000
197925.000000
198765.000000
199595.000000
200476.000000
201342.000000
202185.000000
202972.000000
203724.000000
204507.000000
205322.000000
206220.000000
207085.000000
207867.000000
208677.000000
209483.000000
210284.000000
211062.000000
211811.000000
212596.000000
213552.000000
214652.000000
215669.000000
216600.000000
217502.000000
218359.000000
219227.000000
220030.000000
220801.000000
221599.000000
222438.000000
223312.000000
224143.000000
225113.000000
226111.000000
227036.000000
227852.000000
228627.000000
229438.000000
230298.000000
231193.000000
232108.000000
232965.000000
233820.000000
234706.000000
235567.000000
236383.000000
237158.000000
237931.000000
238739.000000
239676.000000
240615.000000
241547.000000
242378.000000
243193.000000
244014.000000
244847.000000
245699.000000
246483.000000
247241.000000
248026.000000
248927.000000
249912.000000
250805.000000
251607.000000
252411.000000
253229.000000
254029.000000
254802.000000
255581.000000
256394.000000
257294.000000
258149.000000
259020.000000
259948.000000
260852.000000
261745.000000
262570.000000
263348.000000
264139.000000
264962.000000
265859.000000
266817.000000
267679.000000
268503.000000
269314.000000
270132.000000
270936.000000
271757.000000
272619.000000
273527.000000
274372.000000
275155.000000
275953.000000
276735.000000
277502.000000
278285.000000
279159.000000
280082.000000
280949.000000
281802.000000
282717.000000
283629.000000
284434.000000
285247.000000
286058.000000
286876.000000
287677.000000
288579.000000
289563.000000
290541.000000
291377.000000
292171.000000
292976.000000
293785.000000
294569.000000
295351.000000
296201.000000
297071.000000
297895.000000
298707.000000
299525.000000
300318.000000
301083.000000
301859.000000
302672.000000
303496.000000
304287.000000
305124.000000
305984.000000
306811.000000
307582.000000
308339.000000
309120.000000
309950.000000
310834.000000
311647.000000
312409.000000
313170.000000
313975.000000
314859.000000
315766.000000
316638.000000
317569.000000
318517.000000
319390.000000
320217.000000
321063.000000
321910.000000
322783.000000
323646.000000
324452.000000
325229.000000
325978.000000
326741.000000
327683.000000
328645.000000
329598.000000
330468.000000
331277.000000
332087.000000
332899.000000
333682.000000
334435.000000
335188.000000
335966.000000
336807.000000
337697.000000
338589.000000
339411.000000
340249.000000
341090.000000
341905.000000
342692.000000
343469.000000
344267.000000
345109.000000
345888.000000
346665.000000
347489.000000
348382.000000
349262.000000
350089.000000
350948.000000
351812.000000
352639.000000
353442.000000
354271.000000
355115.000000
355910.000000
356713.000000
357565.000000
358429.000000
359239.000000
360034.000000
360887.000000
361738.000000
362562.000000
363369.000000
364204.000000
365037.000000
365821.000000
366639.000000
367478.000000
368374.000000
369240.000000
370111.000000
370983.000000
371799.000000
372577.000000
373382.000000
374192.000000
375008.000000
375797.000000
376623.000000
377474.000000
378291.000000
379059.000000
379847.000000
380657.000000
381473.000000
382260.000000
383065.000000
383911.000000
384742.000000
385539.000000
386349.000000
387192.000000
388075.000000
388906.000000
389701.000000
390518.000000
391344.000000
392143.000000
392922.000000
393725.000000
394574.000000
395401.000000
396191.000000
396934.000000
397657.000000
398365.000000
399098.000000
399952.000000
400925.000000
401870.000000
402765.000000
403615.000000
404443.000000
405268.000000
406099.000000
406958.000000
407834.000000
408626.000000
409463.000000
410333.000000
411215.000000
412069.000000
413008.000000
413967.000000
414849.000000
415638.000000
416432.000000
417237.000000
418107.000000
418973.000000
419913.000000
420860.000000
421759.000000
422629.000000
423501.000000
424313.000000
425081.000000
425844.000000
426655.000000
427548.000000
428493.000000
429356.000000
430214.000000
431103.000000
431966.000000
432768.000000
433614.000000
434511.000000
435401.000000
436247.000000
437145.000000
438078.000000
438952.000000
439749.000000
440591.000000
441446.000000
442340.000000
443174.000000
444072.000000
445010.000000
445869.000000
446711.000000
447563.000000
448424.000000
449227.000000
450023.000000
450875.000000
451812.000000
452697.000000
453612.000000
454557.000000
455401.000000
456209.000000
457042.000000
457876.000000
458681.000000
459508.000000
460373.000000
461227.000000
462053.000000
462885.000000
463762.000000
464622.000000
465450.000000
466304.000000
467153.000000
467974.000000
468748.000000
469513.000000
470304.000000
471137.000000
472018.000000
472853.000000
473687.000000
474591.000000
475496.000000
476330.000000
477169.000000
478001.000000
478807.000000
479633.000000
480562.000000
481531.000000
482454.000000
483271.000000
484085.000000
484892.000000
485692.000000
486479.000000
487330.000000
488267.000000
489134.000000
489953.000000
490785.000000
491617.000000
492430.000000
493189.000000
493944.000000
494732.000000
495580.000000
496448.000000
497310.000000
498240.000000
499159.000000
499991.000000
500806.000000
501651.000000
502525.000000
503346.000000
504132.000000
504956.000000
505808.000000
506666.000000
507479.000000
508346.000000
509261.000000
510106.000000
510943.000000
511818.000000
512712.000000
513550.000000
514330.000000
515128.000000
515936.000000
516765.000000
517618.000000
518439.000000
519285.000000
520211.000000
521164.000000
522042.000000
522916.000000
523811.000000
524666.000000
525455.000000
526197.000000
526936.000000
527774.000000
528801.000000
529795.000000
530705.000000
531619.000000
532514.000000
533326.000000
534125.000000
534951.000000
535826.000000
536667.000000
537473.000000
538313.000000
539205.000000
540065.000000
540913.000000
541775.000000
542637.000000
543455.000000
544260.000000
545134.000000
546031.000000
546965.000000
547834.000000
548618.000000
549430.000000
550275.000000
551205.000000
552116.000000
552928.000000
553768.000000
554629.000000
555510.000000
556339.000000
557218.000000
558117.000000
558993.000000
559801.000000
560655.000000
561544.000000
562419.000000
563217.000000
564050.000000
564908.000000
565745.000000
566551.000000
567412.000000
568306.000000
569157.000000
569985.000000
570847.000000
571719.000000
572535.000000
573376.000000
574233.000000
575117.000000
575909.000000
576713.000000
577528.000000
578361.000000
579155.000000
579987.000000
580860.000000
581693.000000
582466.000000
583227.000000
584021.000000
584880.000000
585773.000000
586601.000000
587464.000000
588351.000000
589228.000000
590063.000000
590879.000000
591761.000000
592706.000000
593607.000000
594558.000000
595539.000000
596433.000000
597216.000000
597994.000000
598769.000000
599587.000000
600421.000000
601286.000000
602371.000000
603483.000000
604526.000000
605546.000000
606505.000000
607325.000000
608107.000000
608905.000000
609758.000000
610600.000000
611403.000000
612241.000000
613078.000000
613911.000000
614775.000000
615852.000000
616964.000000
617976.000000
618864.000000
619652.000000
620460.000000
621294.000000
622204.000000
623100.000000
623928.000000
624757.000000
625622.000000
626502.000000
627322.000000
628139.000000
628984.000000
629878.000000
630710.000000
631540.000000
632393.000000
633192.000000
633981.000000
634798.000000
635630.000000
636455.000000
637295.000000
638150.000000
638976.000000
639753.000000
640548.000000
641366.000000
642174.000000
642955.000000
643765.000000
644565.000000
645342.000000
646101.000000
646891.000000
647701.000000
648527.000000
649309.000000
650102.000000
650919.000000
651797.000000
652651.000000
653460.000000
654305.000000
655171.000000
656023.000000
656815.000000
657628.000000
658495.000000
659381.000000
660251.000000
661056.000000
661833.000000
662658.000000
663582.000000
664589.000000
665502.000000
666417.000000
667380.000000
668278.000000
669040.000000
669798.000000
670582.000000
671405.000000
672247.000000
673163.000000
674123.000000
674988.000000
675761.000000
676495.000000
677206.000000
677942.000000
678829.000000
679872.000000
680919.000000
681939.000000
682858.000000
683767.000000
684637.000000
685457.000000
686301.000000
687191.000000
688192.000000
689108.000000
690042.000000
691029.000000
692000.000000
692855.000000
693669.000000
694497.000000
695294.000000
696065.000000
696838.000000
697647.000000
698510.000000
699363.000000
700215.000000
701162.000000
702101.000000
702990.000000
703784.000000
704586.000000
705405.000000
706232.000000
707024.000000
707785.000000
708553.000000
709397.000000
710296.000000
711146.000000
712003.000000
712874.000000
713691.000000
714519.000000
715344.000000
716149.000000
716926.000000
717745.000000
718583.000000
719451.000000
720271.000000
721129.000000
722012.000000
722835.000000
723614.000000
724389.000000
725190.000000
726028.000000
726842.000000
727704.000000
728605.000000
729463.000000
730277.000000
731131.000000
732000.000000
732830.000000
733625.000000
734476.000000
735390.000000
736267.000000
737088.000000
737994.000000
738929.000000
739835.000000
740707.000000
741607.000000
742586.000000
743538.000000
744422.000000
745310.000000
746251.000000
747186.000000
747976.000000
748768.000000
749551.000000
750316.000000
751060.000000
751784.000000
752524.000000
753330.000000
754196.000000
754998.000000
755815.000000
756655.000000
757477.000000
758248.000000
759035.000000
759837.000000
760654.000000
761477.000000
762256.000000
763014.000000
763797.000000
764627.000000
765505.000000
766380.000000
767262.000000
768180.000000
769129.000000
770057.000000
770911.000000
771721.000000
772558.000000
773455.000000
774407.000000
775301.000000
776110.000000
776967.000000
777881.000000
778825.000000
779720.000000
780608.000000
781513.000000
782378.000000
783184.000000
783972.000000
784725.000000
785454.000000
786231.000000
787037.000000
787836.000000
788749.000000
789743.000000
790647.000000
791496.000000
792343.000000
793227.000000
794050.000000
794832.000000
795680.000000
796679.000000
797731.000000
798658.000000
799606.000000
800598.000000
801568.000000
802425.000000
803305.000000
804243.000000
805140.000000
805969.000000
806864.000000
807772.000000
808688.000000
809556.000000
810440.000000
811372.000000
812228.000000
813088.000000
813994.000000
814895.000000
815777.000000
816711.000000
817672.000000
818521.000000
819364.000000
820224.000000
821070.000000
821882.000000
822753.000000
823703.000000
824606.000000
825417.000000
826281.000000
827232.000000
828188.000000
829091.000000
829904.000000
830688.000000
831599.000000
832743.000000
833801.000000
834789.000000
835615.000000
836416.000000
837244.000000
838086.000000
838943.000000
839845.000000
840826.000000
841725.000000
842542.000000
843399.000000
844295.000000
845273.000000
846292.000000
847222.000000
848174.000000
849076.000000
849969.000000
850813.000000
851628.000000
852551.000000
853626.000000
854633.000000
855645.000000
856657.000000
857559.000000
858378.000000
859210.000000
860102.000000
861014.000000
861878.000000
862774.000000
863742.000000
864688.000000
865548.000000
866426.000000
867338.000000
868228.000000
869063.000000
869936.000000
870842.000000
871756.000000
872605.000000
873581.000000
874561.000000
875487.000000
876345.000000
877216.000000
878124.000000
879004.000000
879824.000000
880624.000000
881449.000000
882325.000000
883164.000000
883960.000000
884789.000000
885655.000000
886593.000000
887506.000000
888362.000000
889183.000000
889962.000000
890735.000000
891540.000000
892450.000000
893307.000000
894126.000000
894995.000000
895879.000000
896714.000000
897559.000000
898417.000000
899248.000000
900032.000000
