ECG (ms)
450.000000
1654.000000
2914.000000
3994.000000
5156.000000
6365.000000
7476.000000
8639.000000
9911.000000
11148.000000
12274.000000
13433.000000
14706.000000
15933.000000
17174.000000
18423.000000
19637.000000
20752.000000
21927.000000
23122.000000
24241.000000
25541.000000
26855.000000
27975.000000
29161.000000
30440.000000
31621.000000
32824.000000
34095.000000
35392.000000
36603.000000
37810.000000
39103.000000
40334.000000
41417.000000
42666.000000
43911.000000
45041.000000
46315.000000
47588.000000
48788.000000
50089.000000
51369.000000
52595.000000
53841.000000
55099.000000
56252.000000
57505.000000
58694.000000
59827.000000
61072.000000
62396.000000
63650.000000
64815.000000
65968.000000
67199.000000
68355.000000
69441.000000
70655.000000
71813.000000
72923.000000
74111.000000
75295.000000
76405.000000
77539.000000
78686.000000
79739.000000
80723.000000
81748.000000
82838.000000
83876.000000
84969.000000
86107.000000
87142.000000
88215.000000
89349.000000
90342.000000
91372.000000
92457.000000
93481.000000
94524.000000
95637.000000
96711.000000
97682.000000
98696.000000
99756.000000
100722.000000
101727.000000
102804.000000
103901.000000
104909.000000
105974.000000
107103.000000
108235.000000
109309.000000
110420.000000
111499.000000
112589.000000
113643.000000
114702.000000
115822.000000
116962.000000
118095.000000
119293.000000
120451.000000
121489.000000
122608.000000
123735.000000
124812.000000
125927.000000
127081.000000
128112.000000
129097.000000
130185.000000
131268.000000
132266.000000
133372.000000
134475.000000
135442.000000
136379.000000
137443.000000
138529.000000
139526.000000
140638.000000
141761.000000
142797.000000
143853.000000
144945.000000
145919.000000
146872.000000
148001.000000
149101.000000
150096.000000
151159.000000
152263.000000
153282.000000
154324.000000
155407.000000
156430.000000
157420.000000
158485.000000
159608.000000
160589.000000
161545.000000
162620.000000
163616.000000
164613.000000
165813.000000
166926.000000
167933.000000
169004.000000
170102.000000
171079.000000
172100.000000
173211.000000
174320.000000
175314.000000
176284.000000
177332.000000
178469.000000
179575.000000
180814.000000
181997.000000
183040.000000
184136.000000
185264.000000
186335.000000
187433.000000
188575.000000
189649.000000
190718.000000
191837.000000
192895.000000
193952.000000
195130.000000
196274.000000
197349.000000
198535.000000
199689.000000
200756.000000
201907.000000
203054.000000
204131.000000
205237.000000
206383.000000
207509.000000
208573.000000
209732.000000
210890.000000
211940.000000
213033.000000
214201.000000
215290.000000
216422.000000
217599.000000
218671.000000
219751.000000
220935.000000
221993.000000
223025.000000
224195.000000
225310.000000
226338.000000
227481.000000
228602.000000
229636.000000
230686.000000
231771.000000
232901.000000
233953.000000
235048.000000
236209.000000
237307.000000
238375.000000
239462.000000
240562.000000
241591.000000
242658.000000
243790.000000
244895.000000
245959.000000
247108.000000
248188.000000
249215.000000
250269.000000
251454.000000
252632.000000
253680.000000
254719.000000
255806.000000
256859.000000
257916.000000
259040.000000
260154.000000
261214.000000
262367.000000
263460.000000
264454.000000
265511.000000
266660.000000
267745.000000
268816.000000
269924.000000
270869.000000
271663.000000
272394.000000
273174.000000
274168.000000
275283.000000
276304.000000
277146.000000
277896.000000
278658.000000
279554.000000
280702.000000
281826.000000
282835.000000
283852.000000
284875.000000
285877.000000
286819.000000
287781.000000
288785.000000
289761.000000
290698.000000
291706.000000
292786.000000
293803.000000
294854.000000
295988.000000
297110.000000
298111.000000
299092.000000
300146.000000
301267.000000
302368.000000
303450.000000
304589.000000
305745.000000
306817.000000
307897.000000
309038.000000
310177.000000
311265.000000
312380.000000
313548.000000
314664.000000
315716.000000
316872.000000
318127.000000
319307.000000
320424.000000
321551.000000
322742.000000
323846.000000
324983.000000
326184.000000
327341.000000
328414.000000
329498.000000
330662.000000
331792.000000
332943.000000
334139.000000
335173.000000
336122.000000
337129.000000
338328.000000
339368.000000
340411.000000
341623.000000
342706.000000
343761.000000
344894.000000
346013.000000
347019.000000
348082.000000
349194.000000
350196.000000
351175.000000
352228.000000
353300.000000
354300.000000
355319.000000
356425.000000
357458.000000
358495.000000
359588.000000
360655.000000
361657.000000
362739.000000
363901.000000
365070.000000
366165.000000
367256.000000
368383.000000
369507.000000
370614.000000
371644.000000
372670.000000
373788.000000
374874.000000
375921.000000
377044.000000
378200.000000
379306.000000
380346.000000
381464.000000
382592.000000
383662.000000
384661.000000
385732.000000
386805.000000
387843.000000
388984.000000
390171.000000
391313.000000
392352.000000
393428.000000
394551.000000
395634.000000
396693.000000
397850.000000
398993.000000
400052.000000
401155.000000
402272.000000
403318.000000
404348.000000
405397.000000
406446.000000
407487.000000
408637.000000
409771.000000
410850.000000
411964.000000
413087.000000
414166.000000
415169.000000
416205.000000
417308.000000
418329.000000
419346.000000
420434.000000
421529.000000
422519.000000
423575.000000
424667.000000
425720.000000
426746.000000
427892.000000
428991.000000
430019.000000
431076.000000
432160.000000
433254.000000
434296.000000
435350.000000
436430.000000
437456.000000
438491.000000
439575.000000
440659.000000
441678.000000
442719.000000
443830.000000
444957.000000
446024.000000
447094.000000
448175.000000
449266.000000
450278.000000
451361.000000
452484.000000
453562.000000
454680.000000
455841.000000
456953.000000
458009.000000
459158.000000
460343.000000
461493.000000
462628.000000
463848.000000
465070.000000
466232.000000
467415.000000
468575.000000
469740.000000
470873.000000
472093.000000
473224.000000
474282.000000
475405.000000
476684.000000
477876.000000
479019.000000
480212.000000
481406.000000
482548.000000
483602.000000
484782.000000
485956.000000
487103.000000
488264.000000
489447.000000
490498.000000
491509.000000
492672.000000
493854.000000
494926.000000
495977.000000
497077.000000
498195.000000
499241.000000
500283.000000
501428.000000
502533.000000
503622.000000
504773.000000
505950.000000
507072.000000
508171.000000
509284.000000
510374.000000
511496.000000
512638.000000
513771.000000
514855.000000
515941.000000
517083.000000
518284.000000
519429.000000
520439.000000
521506.000000
522787.000000
523946.000000
524998.000000
526135.000000
527382.000000
528554.000000
529658.000000
530870.000000
532089.000000
533268.000000
534299.000000
535281.000000
536480.000000
537801.000000
538918.000000
540072.000000
541350.000000
542550.000000
543703.000000
544920.000000
546150.000000
547322.000000
548419.000000
549539.000000
550736.000000
551930.000000
553070.000000
554137.000000
555229.000000
556375.000000
557589.000000
558695.000000
559826.000000
561037.000000
562203.000000
563411.000000
564680.000000
565856.000000
566951.000000
568087.000000
569248.000000
570423.000000
571558.000000
572571.000000
573605.000000
574743.000000
575960.000000
577080.000000
578235.000000
579439.000000
580645.000000
581800.000000
582872.000000
584027.000000
585198.000000
586350.000000
587448.000000
588588.000000
589829.000000
591013.000000
592116.000000
593168.000000
594348.000000
595554.000000
596701.000000
597844.000000
599057.000000
600238.000000
601377.000000
602406.000000
603443.000000
604549.000000
605742.000000
606845.000000
608186.000000
609415.000000
610588.000000
611676.000000
612856.000000
614002.000000
615095.000000
616080.000000
617121.000000
618303.000000
619477.000000
620613.000000
621678.000000
622773.000000
623913.000000
625083.000000
626193.000000
627278.000000
628434.000000
629614.000000
630711.000000
631751.000000
632858.000000
634000.000000
635146.000000
636199.000000
637264.000000
638428.000000
639513.000000
640602.000000
641656.000000
642795.000000
643991.000000
645154.000000
646211.000000
647243.000000
648444.000000
649639.000000
650801.000000
651872.000000
653005.000000
654128.000000
655231.000000
656309.000000
657502.000000
658677.000000
659792.000000
660969.000000
662158.000000
663325.000000
664383.000000
665358.000000
666447.000000
667626.000000
668761.000000
669810.000000
670771.000000
671828.000000
672977.000000
674091.000000
675221.000000
676372.000000
677501.000000
678587.000000
679555.000000
680548.000000
681646.000000
682858.000000
683972.000000
684997.000000
686200.000000
687402.000000
688535.000000
689572.000000
690553.000000
691696.000000
693108.000000
694265.000000
695341.000000
696703.000000
697948.000000
699101.000000
700194.000000
701477.000000
702752.000000
703911.000000
705006.000000
705993.000000
707077.000000
708305.000000
709555.000000
710748.000000
711835.000000
713015.000000
714255.000000
715443.000000
716543.000000
717494.000000
718381.000000
719712.000000
720870.000000
722059.000000
723367.000000
724626.000000
725760.000000
726963.000000
728194.000000
729408.000000
730587.000000
731730.000000
732761.000000
733882.000000
735107.000000
736343.000000
737489.000000
738582.000000
739684.000000
740819.000000
741954.000000
743142.000000
744331.000000
745459.000000
746485.000000
747425.000000
748433.000000
749618.000000
750731.000000
751781.000000
752905.000000
754130.000000
755266.000000
756320.000000
757395.000000
758567.000000
759727.000000
760831.000000
761876.000000
762989.000000
764126.000000
765308.000000
766395.000000
767403.000000
768507.000000
769669.000000
770822.000000
771849.000000
772845.000000
773992.000000
775243.000000
776486.000000
777542.000000
778588.000000
779825.000000
781055.000000
782164.000000
783200.000000
784420.000000
785690.000000
786850.000000
787974.000000
789003.000000
790065.000000
791295.000000
792478.000000
793555.000000
794517.000000
795619.000000
796945.000000
798132.000000
799197.000000
800188.000000
801272.000000
802300.000000
803161.000000
803937.000000
804655.000000
805442.000000
806644.000000
807574.000000
808501.000000
809522.000000
810515.000000
811538.000000
812523.000000
813489.000000
814395.000000
815344.000000
816293.000000
817161.000000
818022.000000
818879.000000
819726.000000
820573.000000
821439.000000
822367.000000
823276.000000
824168.000000
825106.000000
826077.000000
827024.000000
827996.000000
829000.000000
829981.000000
830933.000000
831888.000000
832827.000000
833759.000000
834692.000000
835573.000000
836410.000000
837241.000000
838016.000000
838765.000000
839451.000000
840117.000000
840828.000000
841596.000000
842438.000000
843373.000000
844323.000000
845229.000000
846102.000000
846988.000000
847919.000000
848822.000000
849689.000000
850539.000000
851455.000000
852430.000000
853392.000000
854320.000000
855300.000000
856329.000000
857366.000000
858319.000000
859247.000000
860261.000000
861298.000000
862289.000000
863232.000000
864220.000000
865246.000000
866227.000000
867174.000000
868188.000000
869271.000000
870302.000000
871245.000000
872152.000000
873187.000000
874264.000000
875275.000000
876263.000000
877298.000000
878356.000000
879366.000000
880310.000000
881305.000000
882341.000000
883357.000000
884368.000000
885405.000000
886467.000000
887536.000000
888535.000000
889492.000000
890491.000000
891542.000000
892584.000000
893665.000000
894792.000000
895897.000000
896934.000000
897913.000000
898928.000000
899953.000000
900971.000000
901917.000000
902878.000000
903956.000000
904985.000000
905948.000000
906953.000000
908084.000000
909210.000000
910328.000000
911457.000000
912585.000000
913652.000000
914642.000000
915654.000000
916772.000000
917904.000000
918972.000000
919962.000000
921010.000000
922136.000000
923224.000000
924313.000000
925451.000000
926655.000000
927815.000000
928903.000000
929963.000000
931092.000000
932206.000000
933358.000000
934395.000000
935351.000000
936417.000000
937508.000000
938486.000000
939494.000000
940615.000000
941679.000000
942768.000000
943841.000000
944884.000000
945903.000000
947033.000000
948182.000000
949298.000000
950394.000000
951543.000000
952714.000000
953830.000000
954891.000000
955977.000000
957089.000000
958204.000000
959330.000000
960447.000000
961506.000000
962691.000000
963862.000000
964990.000000
966043.000000
967114.000000
968260.000000
969472.000000
970607.000000
971613.000000
972666.000000
973829.000000
974993.000000
976089.000000
977192.000000
978398.000000
979581.000000
980697.000000
981758.000000
982759.000000
983829.000000
985104.000000
986294.000000
987409.000000
988438.000000
989611.000000
990822.000000
991997.000000
993128.000000
994160.000000
995344.000000
996559.000000
997761.000000
998868.000000
999907.000000
1000966.000000
1002041.000000
1003051.000000
1004119.000000
1005170.000000
1006160.000000
1007213.000000
1008144.000000
1008912.000000
1009665.000000
1010511.000000
1011566.000000
1012695.000000
1013732.000000
1014747.000000
1015809.000000
1016788.000000
1017776.000000
1018831.000000
1019874.000000
1020884.000000
1021905.000000
1022972.000000
1024041.000000
1025110.000000
1026172.000000
1027202.000000
1028267.000000
1029355.000000
1030435.000000
1031451.000000
1032450.000000
1033459.000000
1034401.000000
1035354.000000
1036399.000000
1037472.000000
1038441.000000
1039383.000000
1040400.000000
1041408.000000
1042318.000000
1043259.000000
1044224.000000
1045092.000000
1045898.000000
1046641.000000
1047358.000000
1048192.000000
1049180.000000
1050148.000000
1051141.000000
1052162.000000
1053128.000000
1054146.000000
1055147.000000
1056125.000000
1057030.000000
1057940.000000
1058927.000000
1059938.000000
1060881.000000
1061793.000000
1062729.000000
1063730.000000
1064712.000000
1065623.000000
1066544.000000
1067470.000000
1068361.000000
1069239.000000
1070189.000000
1071213.000000
1072182.000000
1073055.000000
1073812.000000
1074536.000000
1075263.000000
1075995.000000
1076706.000000
1077391.000000
1078124.000000
1079029.000000
1080008.000000
1080990.000000
1081920.000000
1082832.000000
1083722.000000
1084622.000000
1085476.000000
1086286.000000
1087100.000000
1087951.000000
1088840.000000
1089728.000000
1090671.000000
1091616.000000
1092524.000000
1093454.000000
1094412.000000
1095377.000000
1096317.000000
1097213.000000
1098160.000000
1099112.000000
1100083.000000
1101002.000000
1101913.000000
1102879.000000
1103880.000000
1104865.000000
1105815.000000
1106754.000000
1107726.000000
1108685.000000
1109619.000000
1110486.000000
1111398.000000
1112382.000000
1113386.000000
1114369.000000
1115314.000000
1116293.000000
1117317.000000
1118331.000000
1119282.000000
1120213.000000
1121257.000000
1122364.000000
1123447.000000
1124470.000000
1125451.000000
1126485.000000
1127570.000000
1128669.000000
1129783.000000
1130917.000000
1132008.000000
1133050.000000
1134172.000000
1135310.000000
1136395.000000
1137367.000000
1138385.000000
1139450.000000
1140405.000000
1141343.000000
1142358.000000
1143428.000000
1144460.000000
1145495.000000
1146552.000000
1147554.000000
1148485.000000
1149469.000000
1150533.000000
1151584.000000
1152589.000000
1153634.000000
1154696.000000
1155735.000000
1156742.000000
1157781.000000
1158842.000000
1159941.000000
1160989.000000
1161987.000000
1162970.000000
1163947.000000
1164886.000000
1165845.000000
1166871.000000
1167904.000000
1168871.000000
1169821.000000
1170816.000000
1171848.000000
1172823.000000
1173777.000000
1174778.000000
1175834.000000
1176850.000000
1177790.000000
1178709.000000
1179655.000000
1180622.000000
1181522.000000
1182423.000000
1183360.000000
1184286.000000
1185181.000000
1186091.000000
1187051.000000
1188021.000000
1188954.000000
1189885.000000
1190872.000000
1191925.000000
1192970.000000
1193968.000000
1194953.000000
1195975.000000
1197000.000000
1198035.000000
1199071.000000
1200140.000000
1201196.000000
1202252.000000
1203281.000000
1204391.000000
1205570.000000
1206734.000000
1207839.000000
1208895.000000
1209960.000000
1211051.000000
1212140.000000
1213259.000000
1214493.000000
1215671.000000
1216748.000000
1217828.000000
1218981.000000
1220188.000000
1221349.000000
1222503.000000
1223712.000000
1224847.000000
1225919.000000
1226891.000000
1227906.000000
1229066.000000
1230157.000000
1231163.000000
1232286.000000
1233480.000000
1234546.000000
1235628.000000
1236745.000000
1237821.000000
1238819.000000
1239854.000000
1240922.000000
1242002.000000
1243078.000000
1244215.000000
1245381.000000
1246537.000000
1247641.000000
1248728.000000
1249842.000000
1250975.000000
1252068.000000
1253091.000000
1254180.000000
1255291.000000
1256430.000000
1257494.000000
1258598.000000
1259797.000000
1260978.000000
1262105.000000
1263151.000000
1264235.000000
1265380.000000
1266456.000000
1267521.000000
1268620.000000
1269736.000000
1270785.000000
1271790.000000
1272869.000000
1273965.000000
1275050.000000
1276106.000000
1277162.000000
1278265.000000
1279385.000000
1280431.000000
1281540.000000
1282630.000000
1283716.000000
1284760.000000
1285836.000000
1286948.000000
1287997.000000
1288959.000000
1289887.000000
1290944.000000
1292150.000000
1293297.000000
1294359.000000
1295498.000000
1296753.000000
1297912.000000
1299011.000000
1300118.000000
1301309.000000
1302423.000000
1303482.000000
1304525.000000
1305639.000000
1306792.000000
1307908.000000
1308969.000000
1309951.000000
1311004.000000
1312136.000000
1313263.000000
1314306.000000
1315314.000000
1316445.000000
1317628.000000
1318736.000000
1319803.000000
1320860.000000
1321897.000000
1322937.000000
1323972.000000
1324952.000000
1325975.000000
1327090.000000
1328220.000000
1329253.000000
1330253.000000
1331277.000000
1332346.000000
1333383.000000
1334376.000000
1335496.000000
1336677.000000
1337876.000000
1338945.000000
1339983.000000
1341102.000000
1342197.000000
1343279.000000
1344319.000000
1345454.000000
1346550.000000
1347666.000000
1348750.000000
1349783.000000
1350873.000000
1352000.000000
1353126.000000
1354227.000000
1355364.000000
1356534.000000
1357643.000000
1358713.000000
1359737.000000
1360783.000000
1361897.000000
1363016.000000
1364032.000000
1365006.000000
1366119.000000
1367400.000000
1368605.000000
1369684.000000
1370771.000000
1371980.000000
1373209.000000
1374336.000000
1375423.000000
1376414.000000
1377486.000000
1378632.000000
1379874.000000
1381023.000000
1382145.000000
1383356.000000
1384526.000000
1385714.000000
1386915.000000
1388072.000000
1389162.000000
1390229.000000
1391440.000000
1392624.000000
1393774.000000
1394874.000000
1395943.000000
1397138.000000
1398278.000000
1399295.000000
1400255.000000
1401351.000000
1402528.000000
1403622.000000
1404769.000000
1405906.000000
1407035.000000
1408099.000000
1409118.000000
1410165.000000
1411246.000000
1412369.000000
1413456.000000
1414516.000000
1415576.000000
1416665.000000
1417754.000000
1418768.000000
1419714.000000
1420746.000000
1421932.000000
1423005.000000
1424034.000000
1424979.000000
1425992.000000
1427075.000000
1428155.000000
1429183.000000
1430300.000000
1431384.000000
1432422.000000
1433403.000000
1434414.000000
1435536.000000
1436670.000000
1437788.000000
1438861.000000
1439890.000000
1440997.000000
1442161.000000
1443252.000000
1444333.000000
1445448.000000
1446577.000000
1447693.000000
1448749.000000
1449763.000000
1450863.000000
1452085.000000
1453244.000000
1454272.000000
1455373.000000
1456547.000000
1457646.000000
1458677.000000
1459695.000000
1460824.000000
1461945.000000
1463033.000000
1464048.000000
1465032.000000
1466121.000000
1467257.000000
1468383.000000
1469457.000000
1470419.000000
1471404.000000
1472533.000000
1473676.000000
1474755.000000
1475732.000000
1476693.000000
1477667.000000
1478538.000000
1479283.000000
1479998.000000
1480701.000000
1481626.000000
1482567.000000
1483576.000000
1484596.000000
1485543.000000
1486516.000000
1487522.000000
1488449.000000
1489357.000000
1490326.000000
1491248.000000
1492214.000000
1493225.000000
1494173.000000
1495133.000000
1496160.000000
1497166.000000
1498199.000000
1499254.000000
1500323.000000
1501374.000000
1502413.000000
1503427.000000
1504468.000000
1505529.000000
1506586.000000
1507645.000000
1508666.000000
1509745.000000
1510861.000000
1511952.000000
1512974.000000
1514034.000000
1515178.000000
1516298.000000
1517352.000000
1518331.000000
1519423.000000
1520533.000000
1521574.000000
1522583.000000
1523603.000000
1524672.000000
1525711.000000
1526766.000000
1527879.000000
1528923.000000
1529924.000000
1530920.000000
1532084.000000
1533227.000000
1534348.000000
1535422.000000
1536500.000000
1537604.000000
1538682.000000
1539725.000000
1540709.000000
1541765.000000
1542932.000000
1544016.000000
1544988.000000
1546086.000000
1547302.000000
1548395.000000
1549522.000000
1550750.000000
1551906.000000
1552987.000000
1554062.000000
1555239.000000
1556420.000000
1557571.000000
1558677.000000
1559788.000000
1560900.000000
1562023.000000
1563178.000000
1564266.000000
1565291.000000
1566303.000000
1567351.000000
1568455.000000
1569519.000000
1570577.000000
1571763.000000
1572889.000000
1573994.000000
1575148.000000
1576322.000000
1577467.000000
1578531.000000
1579566.000000
1580711.000000
1581830.000000
1582889.000000
1583950.000000
1584934.000000
1586004.000000
1587140.000000
1588255.000000
1589333.000000
1590513.000000
1591684.000000
1592798.000000
1593810.000000
1594760.000000
1595607.000000
1596345.000000
1597107.000000
1598428.000000
1599570.000000
1600711.000000
1601883.000000
1603004.000000
1604081.000000
1605302.000000
1606510.000000
1607715.000000
1608831.000000
1609921.000000
1611052.000000
1612219.000000
1613383.000000
1614485.000000
1615599.000000
1616771.000000
1617913.000000
1618993.000000
1619992.000000
1621052.000000
1622285.000000
1623460.000000
1624575.000000
1625795.000000
1626951.000000
1628024.000000
1629154.000000
1630342.000000
1631483.000000
1632582.000000
1633631.000000
1634710.000000
1635878.000000
1637036.000000
1638129.000000
1639148.000000
1640154.000000
1641240.000000
1642383.000000
1643476.000000
1644490.000000
1645456.000000
1646479.000000
1647600.000000
1648677.000000
1649716.000000
1650800.000000
1651935.000000
1653041.000000
1654120.000000
1655161.000000
1656182.000000
1657393.000000
1658580.000000
1659750.000000
1660924.000000
1661964.000000
1663027.000000
1664136.000000
1665350.000000
1666448.000000
1667472.000000
1668647.000000
1669918.000000
1671096.000000
1672260.000000
1673465.000000
1674649.000000
1675819.000000
1676947.000000
1678018.000000
1679088.000000
1680231.000000
1681261.000000
1682308.000000
1683673.000000
1684855.000000
1685929.000000
1686967.000000
1688151.000000
1689334.000000
1690426.000000
1691440.000000
1692536.000000
1693645.000000
1694716.000000
1695776.000000
1696885.000000
1698020.000000
1699165.000000
1700237.000000
1701245.000000
1702327.000000
1703397.000000
1704486.000000
1705543.000000
1706621.000000
1707709.000000
1708829.000000
1709908.000000
1710903.000000
1711702.000000
1712430.000000
1713132.000000
1713819.000000
1714656.000000
1715481.000000
1716394.000000
1717368.000000
1718304.000000
1719320.000000
1720442.000000
1721493.000000
1722451.000000
1723504.000000
1724535.000000
1725505.000000
1726488.000000
1727466.000000
1728400.000000
1729451.000000
1730600.000000
1731712.000000
1732773.000000
1733875.000000
1735017.000000
1736168.000000
1737300.000000
1738359.000000
1739399.000000
1740474.000000
1741574.000000
1742685.000000
1743744.000000
1744747.000000
1745684.000000
1746757.000000
1747876.000000
1749017.000000
1750039.000000
1751008.000000
1752136.000000
1753379.000000
1754524.000000
1755581.000000
1756561.000000
1757512.000000
1758397.000000
1759257.000000
1760119.000000
1760879.000000
1761615.000000
1762456.000000
1763387.000000
1764456.000000
1765535.000000
1766537.000000
1767527.000000
1768541.000000
1769559.000000
1770499.000000
1771448.000000
1772417.000000
1773345.000000
1774295.000000
1775276.000000
1776244.000000
1777147.000000
1778051.000000
1778963.000000
1779871.000000
1780794.000000
1781808.000000
1782814.000000
1783814.000000
1784827.000000
1785821.000000
1786772.000000
1787762.000000
1788772.000000
1789710.000000
1790639.000000
1791607.000000
1792572.000000
1793516.000000
1794524.000000
1795532.000000
1796472.000000
1797331.000000
1798181.000000
1799038.000000
1799901.000000
