ECG (ms)
77.000000
679.000000
1277.000000
1875.000000
2477.000000
3091.000000
3687.000000
4247.000000
4806.000000
5371.000000
5944.000000
6520.000000
7095.000000
7684.000000
8315.000000
8926.000000
9537.000000
10170.000000
10829.000000
11454.000000
12079.000000
12714.000000
13360.000000
13974.000000
14566.000000
15154.000000
15755.000000
16365.000000
16954.000000
17548.000000
18182.000000
18864.000000
19520.000000
20139.000000
20746.000000
21397.000000
22111.000000
22794.000000
23438.000000
24075.000000
24742.000000
25415.000000
26084.000000
26726.000000
27335.000000
27939.000000
28574.000000
29241.000000
29930.000000
30612.000000
31255.000000
31880.000000
32518.000000
33236.000000
33930.000000
34597.000000
35277.000000
35960.000000
36646.000000
37287.000000
37930.000000
38580.000000
39240.000000
39872.000000
40500.000000
41150.000000
41840.000000
42505.000000
43178.000000
43875.000000
44597.000000
45288.000000
45954.000000
46630.000000
47287.000000
47898.000000
48484.000000
49063.000000
49644.000000
50212.000000
50784.000000
51402.000000
52113.000000
52864.000000
53546.000000
54184.000000
54793.000000
55404.000000
56068.000000
56771.000000
57487.000000
58144.000000
58780.000000
59415.000000
60067.000000
60715.000000
61346.000000
61954.000000
62568.000000
63194.000000
63826.000000
64454.000000
65069.000000
65683.000000
66321.000000
67001.000000
67680.000000
68344.000000
69031.000000
69734.000000
70457.000000
71127.000000
71817.000000
72513.000000
73202.000000
73864.000000
74528.000000
75219.000000
75903.000000
76562.000000
77207.000000
77860.000000
78551.000000
79262.000000
79937.000000
80607.000000
81289.000000
81980.000000
82643.000000
83293.000000
83911.000000
84524.000000
85178.000000
85869.000000
86585.000000
87254.000000
87918.000000
88606.000000
89307.000000
89985.000000
90646.000000
91304.000000
91975.000000
92648.000000
93288.000000
93903.000000
94521.000000
95155.000000
95824.000000
96520.000000
97208.000000
97919.000000
98679.000000
99439.000000
100147.000000
100871.000000
101603.000000
102322.000000
102993.000000
103653.000000
104310.000000
104961.000000
105580.000000
106174.000000
106767.000000
107410.000000
108149.000000
108892.000000
109590.000000
110283.000000
110979.000000
111682.000000
112370.000000
113017.000000
113658.000000
114296.000000
114935.000000
115568.000000
116194.000000
116830.000000
117492.000000
118168.000000
118836.000000
119503.000000
120183.000000
120891.000000
121580.000000
122233.000000
122886.000000
123548.000000
124232.000000
124890.000000
125530.000000
126173.000000
126838.000000
127512.000000
128168.000000
128811.000000
129459.000000
130124.000000
130782.000000
131414.000000
132044.000000
132685.000000
133357.000000
134039.000000
134710.000000
135391.000000
136076.000000
136773.000000
137448.000000
138111.000000
138765.000000
139422.000000
140071.000000
140702.000000
141309.000000
141925.000000
142638.000000
143402.000000
144134.000000
144852.000000
145588.000000
146326.000000
147019.000000
147674.000000
148317.000000
148966.000000
149614.000000
150254.000000
150891.000000
151532.000000
152202.000000
152858.000000
153492.000000
154124.000000
154766.000000
155423.000000
156066.000000
156697.000000
157343.000000
158012.000000
158691.000000
159346.000000
159981.000000
160593.000000
161220.000000
161852.000000
162479.000000
163113.000000
163774.000000
164439.000000
165086.000000
165712.000000
166345.000000
166993.000000
167647.000000
168280.000000
168898.000000
169517.000000
170136.000000
170753.000000
171358.000000
171966.000000
172589.000000
173235.000000
173898.000000
174534.000000
175171.000000
175817.000000
176496.000000
177145.000000
177762.000000
178380.000000
179030.000000
179728.000000
180416.000000
181070.000000
181712.000000
182361.000000
183041.000000
183709.000000
184344.000000
184978.000000
185618.000000
186278.000000
186927.000000
187567.000000
188225.000000
188908.000000
189615.000000
190283.000000
190946.000000
191609.000000
192290.000000
192956.000000
193600.000000
194241.000000
194892.000000
195552.000000
196191.000000
196834.000000
197486.000000
198160.000000
198804.000000
199438.000000
200079.000000
200751.000000
201413.000000
202050.000000
202694.000000
203357.000000
204029.000000
204678.000000
205313.000000
205955.000000
206611.000000
207271.000000
207908.000000
208527.000000
209138.000000
209766.000000
210438.000000
211139.000000
211825.000000
212483.000000
213152.000000
213837.000000
214521.000000
215183.000000
215825.000000
216469.000000
217121.000000
217777.000000
218413.000000
219051.000000
219692.000000
220374.000000
221070.000000
221773.000000
222515.000000
223298.000000
224034.000000
224745.000000
225444.000000
226141.000000
226808.000000
227457.000000
228113.000000
228785.000000
229457.000000
230111.000000
230760.000000
231420.000000
232114.000000
232786.000000
233432.000000
234055.000000
234693.000000
235369.000000
236058.000000
236726.000000
237373.000000
238029.000000
238699.000000
239371.000000
240019.000000
240657.000000
241301.000000
241959.000000
242629.000000
243278.000000
243917.000000
244558.000000
245223.000000
245892.000000
246536.000000
247177.000000
247825.000000
248494.000000
249164.000000
249801.000000
250436.000000
251066.000000
251715.000000
252361.000000
252988.000000
253617.000000
254263.000000
254931.000000
255587.000000
256257.000000
256933.000000
257628.000000
258293.000000
258941.000000
259592.000000
260248.000000
260890.000000
261518.000000
262153.000000
262802.000000
263445.000000
264066.000000
264685.000000
265316.000000
265991.000000
266663.000000
267318.000000
267980.000000
268668.000000
269339.000000
269973.000000
270598.000000
271240.000000
271899.000000
272537.000000
273154.000000
273777.000000
274408.000000
275057.000000
275689.000000
276312.000000
276947.000000
277606.000000
278277.000000
278910.000000
279527.000000
280143.000000
280767.000000
281393.000000
282014.000000
282642.000000
283278.000000
283950.000000
284611.000000
285256.000000
285912.000000
286576.000000
287230.000000
287864.000000
288502.000000
289151.000000
289796.000000
290420.000000
291042.000000
291673.000000
292340.000000
292998.000000
293639.000000
294289.000000
294953.000000
295631.000000
296278.000000
296914.000000
297556.000000
298212.000000
298864.000000
299497.000000
300135.000000
300783.000000
301454.000000
302102.000000
302739.000000
303391.000000
304065.000000
304726.000000
305369.000000
306017.000000
306680.000000
307360.000000
308019.000000
308661.000000
309307.000000
309966.000000
310614.000000
311251.000000
311895.000000
312567.000000
313254.000000
313914.000000
314575.000000
315248.000000
315939.000000
316604.000000
317251.000000
317900.000000
318566.000000
319234.000000
319883.000000
320532.000000
321191.000000
321884.000000
322573.000000
323231.000000
323898.000000
324572.000000
325261.000000
325931.000000
326598.000000
327272.000000
327958.000000
328620.000000
329283.000000
329950.000000
330640.000000
331306.000000
331964.000000
332624.000000
333298.000000
333958.000000
334594.000000
335229.000000
335893.000000
336595.000000
337273.000000
337923.000000
338582.000000
339251.000000
339939.000000
340619.000000
341273.000000
341923.000000
342580.000000
343238.000000
343877.000000
344508.000000
345146.000000
345808.000000
346491.000000
347151.000000
347814.000000
348494.000000
349196.000000
349870.000000
350524.000000
351181.000000
351859.000000
352541.000000
353195.000000
353851.000000
354514.000000
355185.000000
355829.000000
356464.000000
357102.000000
357765.000000
358442.000000
359113.000000
359802.000000
360510.000000
361237.000000
361931.000000
362606.000000
363296.000000
364000.000000
364707.000000
365378.000000
366043.000000
366709.000000
367387.000000
368060.000000
368726.000000
369413.000000
370137.000000
370866.000000
371561.000000
372264.000000
372979.000000
373675.000000
374328.000000
374959.000000
375587.000000
376229.000000
376869.000000
377500.000000
378128.000000
378792.000000
379552.000000
380335.000000
381070.000000
381738.000000
382405.000000
383078.000000
383752.000000
384402.000000
385023.000000
385621.000000
386225.000000
386843.000000
387487.000000
388137.000000
388760.000000
389390.000000
390032.000000
390688.000000
391320.000000
391931.000000
392545.000000
393168.000000
393803.000000
394435.000000
395048.000000
395658.000000
396282.000000
396911.000000
397541.000000
398147.000000
398752.000000
399359.000000
399976.000000
400589.000000
401194.000000
401811.000000
402444.000000
403094.000000
403750.000000
404378.000000
404975.000000
405571.000000
406190.000000
406849.000000
407526.000000
408204.000000
408857.000000
409477.000000
410077.000000
410691.000000
411322.000000
411969.000000
412617.000000
413240.000000
413847.000000
414460.000000
415078.000000
415682.000000
416276.000000
416876.000000
417495.000000
418142.000000
418779.000000
419403.000000
420017.000000
420634.000000
421265.000000
421890.000000
422506.000000
423130.000000
423775.000000
424422.000000
425050.000000
425665.000000
426279.000000
426911.000000
427562.000000
428198.000000
428814.000000
429432.000000
430067.000000
430713.000000
431350.000000
431995.000000
432653.000000
433336.000000
434021.000000
434676.000000
435327.000000
435995.000000
436673.000000
437325.000000
437957.000000
438588.000000
439235.000000
439896.000000
440540.000000
441175.000000
441820.000000
442495.000000
443193.000000
443861.000000
444521.000000
445179.000000
445853.000000
446507.000000
447141.000000
447780.000000
448434.000000
449130.000000
449814.000000
450463.000000
451121.000000
451797.000000
452492.000000
453145.000000
453762.000000
454374.000000
455010.000000
455683.000000
456373.000000
457039.000000
457688.000000
458349.000000
459035.000000
459722.000000
460386.000000
461021.000000
461657.000000
462300.000000
462947.000000
463584.000000
464208.000000
464850.000000
465541.000000
466287.000000
466977.000000
467637.000000
468303.000000
468987.000000
469676.000000
470343.000000
470987.000000
471630.000000
472277.000000
472923.000000
473559.000000
474184.000000
474814.000000
475455.000000
476112.000000
476743.000000
477368.000000
477996.000000
478648.000000
479332.000000
479993.000000
480658.000000
481352.000000
482101.000000
482812.000000
483498.000000
484188.000000
484893.000000
485590.000000
486227.000000
486840.000000
487438.000000
488040.000000
488664.000000
489280.000000
489892.000000
490518.000000
491164.000000
491808.000000
492426.000000
493044.000000
493694.000000
494448.000000
495191.000000
495898.000000
496634.000000
497405.000000
498124.000000
498806.000000
499498.000000
500197.000000
500897.000000
501557.000000
502206.000000
502871.000000
503578.000000
504298.000000
504986.000000
505703.000000
506458.000000
507245.000000
507954.000000
508642.000000
509345.000000
510081.000000
510790.000000
511450.000000
512103.000000
512772.000000
513467.000000
514137.000000
514790.000000
515450.000000
516132.000000
516835.000000
517497.000000
518144.000000
518805.000000
519477.000000
520140.000000
520786.000000
521434.000000
522099.000000
522780.000000
523441.000000
524070.000000
524668.000000
525260.000000
525868.000000
526520.000000
527216.000000
527864.000000
528493.000000
529168.000000
529886.000000
530608.000000
531296.000000
531951.000000
532606.000000
533271.000000
533927.000000
534560.000000
535175.000000
535778.000000
536394.000000
537026.000000
537681.000000
538320.000000
538946.000000
539580.000000
540232.000000
540901.000000
541565.000000
542208.000000
542846.000000
543506.000000
544176.000000
544865.000000
545535.000000
546190.000000
546849.000000
547512.000000
548178.000000
548825.000000
549461.000000
550105.000000
550770.000000
551459.000000
552142.000000
552808.000000
553488.000000
554190.000000
554901.000000
555574.000000
556228.000000
556874.000000
557536.000000
558213.000000
558872.000000
559521.000000
560185.000000
560876.000000
561585.000000
562259.000000
562923.000000
563588.000000
564262.000000
564928.000000
565580.000000
566229.000000
566886.000000
567550.000000
568194.000000
568839.000000
569492.000000
570162.000000
570830.000000
571481.000000
572139.000000
572814.000000
573494.000000
574139.000000
574791.000000
575451.000000
576132.000000
576795.000000
577456.000000
578124.000000
578805.000000
579481.000000
580138.000000
580798.000000
581472.000000
582157.000000
582820.000000
583463.000000
584116.000000
584801.000000
585507.000000
586199.000000
586886.000000
587589.000000
588306.000000
588996.000000
589666.000000
590337.000000
591017.000000
591683.000000
592333.000000
592986.000000
593668.000000
594412.000000
595131.000000
595817.000000
596523.000000
597257.000000
597985.000000
598675.000000
599337.000000
600007.000000
600695.000000
601375.000000
602037.000000
602674.000000
603306.000000
603954.000000
604626.000000
605304.000000
605958.000000
606612.000000
607286.000000
607979.000000
608640.000000
609268.000000
609905.000000
610581.000000
611266.000000
611928.000000
612565.000000
613206.000000
613857.000000
614512.000000
615151.000000
615777.000000
616418.000000
617085.000000
617779.000000
618443.000000
619080.000000
619709.000000
620375.000000
621080.000000
621786.000000
622452.000000
623092.000000
623742.000000
624413.000000
625091.000000
625767.000000
626427.000000
627083.000000
627752.000000
628445.000000
629132.000000
629793.000000
630445.000000
631108.000000
631795.000000
632485.000000
633152.000000
633815.000000
634495.000000
635193.000000
635891.000000
636561.000000
637210.000000
637862.000000
638538.000000
639238.000000
639921.000000
640580.000000
641242.000000
641928.000000
642639.000000
643352.000000
644022.000000
644684.000000
645361.000000
646055.000000
646753.000000
647427.000000
648088.000000
648756.000000
649441.000000
650142.000000
650835.000000
651507.000000
652176.000000
652858.000000
653558.000000
654238.000000
654895.000000
655556.000000
656238.000000
656942.000000
657620.000000
658276.000000
658936.000000
659599.000000
660260.000000
660909.000000
661541.000000
662179.000000
662828.000000
663515.000000
664196.000000
664862.000000
665540.000000
666248.000000
666947.000000
667601.000000
668241.000000
668895.000000
669568.000000
670242.000000
670889.000000
671534.000000
672186.000000
672851.000000
673503.000000
674139.000000
674783.000000
675453.000000
676137.000000
676797.000000
677457.000000
678131.000000
678831.000000
679499.000000
680146.000000
680803.000000
681481.000000
682160.000000
682810.000000
683457.000000
684102.000000
684750.000000
685384.000000
685992.000000
686578.000000
687185.000000
687914.000000
688789.000000
689575.000000
690320.000000
691058.000000
691815.000000
692551.000000
693268.000000
693948.000000
694589.000000
695223.000000
695884.000000
696569.000000
697256.000000
697914.000000
698574.000000
699232.000000
699890.000000
700538.000000
701164.000000
701781.000000
702403.000000
703039.000000
703691.000000
704340.000000
704976.000000
705616.000000
706277.000000
706939.000000
707591.000000
708226.000000
708870.000000
709525.000000
710199.000000
710869.000000
711505.000000
712140.000000
712782.000000
713443.000000
714089.000000
714714.000000
715348.000000
716009.000000
716688.000000
717337.000000
717967.000000
718613.000000
719288.000000
719977.000000
720658.000000
721311.000000
721969.000000
722632.000000
723302.000000
723956.000000
724596.000000
725242.000000
725897.000000
726567.000000
727235.000000
727879.000000
728534.000000
729199.000000
729888.000000
730561.000000
731205.000000
731846.000000
732496.000000
733167.000000
733824.000000
734455.000000
735092.000000
735745.000000
736422.000000
737079.000000
737737.000000
738424.000000
739149.000000
739849.000000
740505.000000
741148.000000
741799.000000
742475.000000
743144.000000
743792.000000
744440.000000
745094.000000
745747.000000
746382.000000
747001.000000
747618.000000
748261.000000
748948.000000
749619.000000
750278.000000
750948.000000
751639.000000
752326.000000
752980.000000
753622.000000
754271.000000
754938.000000
755578.000000
756206.000000
756840.000000
757490.000000
758144.000000
758777.000000
759397.000000
760021.000000
760654.000000
761291.000000
761910.000000
762508.000000
763102.000000
763716.000000
764389.000000
765101.000000
765778.000000
766421.000000
767066.000000
767732.000000
768403.000000
769060.000000
769693.000000
770322.000000
770949.000000
771580.000000
772206.000000
772827.000000
773468.000000
774150.000000
774864.000000
775567.000000
776243.000000
776927.000000
777620.000000
778299.000000
778948.000000
779591.000000
780235.000000
780874.000000
781499.000000
782121.000000
782755.000000
783402.000000
784065.000000
784711.000000
785349.000000
785999.000000
786673.000000
787344.000000
787989.000000
788646.000000
789316.000000
790003.000000
790669.000000
791324.000000
791991.000000
792685.000000
793377.000000
794040.000000
794692.000000
795351.000000
796012.000000
796665.000000
797302.000000
797928.000000
798584.000000
799321.000000
800077.000000
800790.000000
801468.000000
802143.000000
802828.000000
803531.000000
804212.000000
804859.000000
805503.000000
806165.000000
806857.000000
807554.000000
808220.000000
808887.000000
809582.000000
810308.000000
811015.000000
811695.000000
812381.000000
813079.000000
813787.000000
814455.000000
815101.000000
815755.000000
816445.000000
817143.000000
817802.000000
818449.000000
819098.000000
819770.000000
820448.000000
821106.000000
821765.000000
822431.000000
823104.000000
823774.000000
824431.000000
825093.000000
825764.000000
826447.000000
827112.000000
827754.000000
828395.000000
829044.000000
829715.000000
830383.000000
831030.000000
831672.000000
832342.000000
833052.000000
833761.000000
834432.000000
835107.000000
835780.000000
836458.000000
837104.000000
837720.000000
838317.000000
838920.000000
839560.000000
840249.000000
840933.000000
841605.000000
842312.000000
843025.000000
843731.000000
844408.000000
845072.000000
845732.000000
846421.000000
847107.000000
847769.000000
848413.000000
849051.000000
849700.000000
850348.000000
850978.000000
851593.000000
852204.000000
852844.000000
853576.000000
854344.000000
855116.000000
855818.000000
856481.000000
857129.000000
857790.000000
858476.000000
859157.000000
859807.000000
860454.000000
861121.000000
861798.000000
862448.000000
863077.000000
863723.000000
864381.000000
865034.000000
865672.000000
866300.000000
866930.000000
867571.000000
868221.000000
868874.000000
869513.000000
870149.000000
870791.000000
871438.000000
872087.000000
872724.000000
873368.000000
874024.000000
874700.000000
875376.000000
876026.000000
876679.000000
877347.000000
878035.000000
878709.000000
879358.000000
880012.000000
880686.000000
881370.000000
882024.000000
882662.000000
883303.000000
883952.000000
884605.000000
885240.000000
885885.000000
886566.000000
887288.000000
887972.000000
888632.000000
889296.000000
889982.000000
890662.000000
891313.000000
891959.000000
892611.000000
893279.000000
893935.000000
894573.000000
895227.000000
895897.000000
896586.000000
897250.000000
897894.000000
898544.000000
899205.000000
899866.000000
900508.000000
901136.000000
901784.000000
902503.000000
903262.000000
903951.000000
904622.000000
905309.000000
906006.000000
906703.000000
907371.000000
908026.000000
