ECG (ms)
467.000000
1272.000000
2081.000000
2982.000000
3972.000000
4904.000000
5956.000000
6886.000000
7799.000000
8736.000000
9607.000000
10522.000000
11463.000000
12386.000000
13307.000000
14274.000000
15186.000000
16095.000000
17036.000000
17917.000000
18814.000000
19779.000000
20701.000000
21580.000000
22579.000000
23512.000000
24489.000000
25394.000000
26318.000000
27300.000000
28254.000000
29187.000000
30153.000000
31079.000000
31961.000000
32817.000000
33709.000000
34602.000000
35507.000000
36484.000000
37424.000000
38349.000000
39356.000000
40327.000000
41275.000000
42266.000000
43193.000000
44096.000000
45039.000000
45962.000000
46866.000000
47838.000000
48809.000000
49728.000000
50718.000000
51713.000000
52634.000000
53578.000000
54566.000000
55480.000000
56414.000000
57381.000000
58314.000000
59250.000000
60243.000000
61168.000000
62094.000000
63100.000000
64066.000000
65004.000000
66022.000000
66980.000000
67910.000000
68890.000000
69915.000000
70876.000000
71893.000000
72875.000000
73852.000000
74876.000000
75827.000000
76808.000000
77747.000000
78710.000000
79664.000000
80585.000000
81549.000000
82504.000000
83460.000000
84461.000000
85410.000000
86443.000000
87434.000000
88366.000000
89367.000000
90329.000000
91252.000000
92250.000000
93229.000000
94160.000000
95139.000000
96119.000000
97024.000000
97965.000000
98944.000000
99855.000000
100841.000000
101757.000000
102627.000000
103462.000000
104277.000000
105132.000000
106025.000000
106989.000000
107880.000000
108817.000000
109741.000000
110621.000000
111561.000000
112475.000000
113373.000000
114330.000000
115254.000000
116192.000000
117128.000000
118013.000000
118945.000000
119886.000000
120810.000000
121680.000000
122595.000000
123503.000000
124377.000000
125321.000000
126270.000000
127160.000000
128089.000000
129050.000000
129945.000000
130885.000000
131795.000000
132670.000000
133583.000000
134458.000000
135355.000000
136240.000000
137100.000000
138022.000000
138951.000000
139840.000000
140793.000000
141699.000000
142637.000000
143518.000000
144337.000000
145131.000000
145991.000000
146902.000000
147774.000000
148697.000000
149631.000000
150520.000000
151451.000000
152349.000000
153252.000000
154182.000000
155076.000000
155952.000000
156874.000000
157763.000000
158659.000000
159622.000000
160557.000000
161490.000000
162444.000000
163343.000000
164283.000000
165215.000000
166126.000000
167097.000000
168032.000000
168964.000000
169949.000000
170871.000000
171855.000000
172784.000000
173702.000000
174660.000000
175559.000000
176517.000000
177442.000000
178369.000000
179341.000000
180271.000000
181186.000000
182158.000000
183135.000000
184034.000000
184975.000000
185912.000000
186804.000000
187802.000000
188774.000000
189755.000000
190759.000000
191667.000000
192652.000000
193651.000000
194560.000000
195540.000000
196483.000000
197397.000000
198379.000000
199298.000000
200226.000000
201209.000000
202158.000000
203064.000000
204028.000000
204945.000000
205836.000000
206782.000000
207702.000000
208601.000000
209574.000000
210503.000000
211418.000000
212376.000000
213288.000000
214252.000000
215171.000000
216057.000000
216995.000000
217920.000000
218797.000000
219722.000000
220659.000000
221554.000000
222512.000000
223472.000000
224374.000000
225309.000000
226229.000000
227114.000000
228053.000000
228986.000000
229888.000000
230834.000000
231749.000000
232651.000000
233598.000000
234518.000000
235463.000000
236446.000000
237402.000000
238307.000000
239236.000000
240131.000000
241011.000000
241939.000000
242829.000000
243701.000000
244623.000000
245563.000000
246453.000000
247405.000000
248314.000000
249219.000000
250178.000000
251088.000000
252019.000000
252940.000000
253818.000000
254740.000000
255669.000000
256550.000000
257496.000000
258425.000000
259321.000000
260271.000000
261228.000000
262117.000000
263058.000000
264000.000000
264890.000000
265843.000000
266794.000000
267680.000000
268589.000000
269552.000000
270439.000000
271318.000000
272245.000000
273149.000000
274025.000000
274983.000000
275916.000000
276834.000000
277814.000000
278744.000000
279605.000000
280450.000000
281267.000000
282078.000000
282898.000000
283750.000000
284644.000000
285563.000000
286514.000000
287463.000000
288342.000000
289264.000000
290223.000000
291135.000000
292048.000000
293026.000000
293990.000000
294912.000000
295887.000000
296830.000000
297776.000000
298788.000000
299765.000000
300678.000000
301657.000000
302665.000000
303588.000000
304550.000000
305516.000000
306425.000000
307318.000000
308285.000000
309274.000000
310173.000000
311145.000000
312126.000000
313045.000000
314030.000000
314998.000000
315935.000000
316922.000000
317830.000000
318810.000000
319740.000000
320714.000000
321656.000000
322559.000000
323516.000000
324445.000000
325405.000000
326345.000000
327242.000000
328200.000000
329172.000000
330106.000000
331031.000000
332039.000000
333050.000000
333983.000000
334904.000000
335895.000000
336872.000000
337791.000000
338703.000000
339684.000000
340672.000000
341591.000000
342555.000000
343527.000000
344434.000000
345372.000000
346331.000000
347232.000000
348134.000000
349040.000000
349887.000000
350707.000000
351524.000000
352334.000000
353159.000000
354040.000000
354937.000000
355790.000000
356675.000000
357610.000000
358501.000000
359356.000000
360207.000000
361097.000000
361960.000000
362778.000000
363618.000000
364466.000000
365349.000000
366226.000000
367083.000000
367972.000000
368859.000000
369681.000000
370480.000000
371312.000000
372191.000000
373070.000000
373941.000000
374912.000000
375941.000000
376926.000000
377856.000000
378847.000000
379819.000000
380738.000000
381717.000000
382669.000000
383530.000000
384408.000000
385294.000000
386132.000000
386952.000000
387753.000000
388539.000000
389360.000000
390277.000000
391188.000000
392156.000000
393142.000000
394078.000000
395072.000000
396066.000000
397024.000000
398001.000000
399005.000000
399939.000000
400864.000000
401863.000000
402914.000000
403911.000000
404839.000000
405772.000000
406750.000000
407699.000000
408593.000000
409437.000000
410310.000000
411210.000000
412197.000000
413205.000000
414150.000000
415072.000000
416034.000000
417013.000000
417969.000000
418871.000000
419780.000000
420756.000000
421807.000000
422806.000000
423804.000000
424782.000000
425784.000000
426815.000000
427812.000000
428729.000000
429627.000000
430590.000000
431630.000000
432565.000000
433583.000000
434626.000000
435587.000000
436526.000000
437513.000000
438528.000000
439515.000000
440484.000000
441397.000000
442347.000000
443334.000000
444255.000000
445216.000000
446204.000000
447170.000000
448109.000000
449056.000000
450049.000000
450992.000000
451981.000000
452925.000000
453785.000000
454622.000000
455456.000000
456324.000000
457206.000000
458063.000000
458967.000000
459913.000000
460824.000000
461703.000000
462600.000000
463550.000000
464502.000000
465388.000000
466285.000000
467215.000000
468186.000000
469103.000000
469999.000000
470909.000000
471875.000000
472859.000000
473803.000000
474745.000000
475681.000000
476580.000000
477421.000000
478264.000000
479144.000000
480040.000000
480966.000000
481838.000000
482770.000000
483709.000000
484580.000000
485493.000000
486401.000000
487293.000000
488226.000000
489145.000000
490019.000000
490921.000000
491814.000000
492653.000000
493521.000000
494370.000000
495180.000000
495972.000000
496828.000000
497713.000000
498583.000000
499523.000000
500440.000000
501300.000000
502219.000000
503112.000000
503962.000000
504841.000000
505719.000000
506561.000000
507432.000000
508271.000000
509093.000000
509917.000000
510723.000000
511519.000000
512338.000000
513181.000000
514093.000000
515020.000000
515903.000000
516837.000000
517748.000000
518700.000000
519618.000000
520555.000000
521513.000000
522447.000000
523350.000000
524281.000000
525206.000000
526184.000000
527177.000000
528149.000000
529093.000000
530000.000000
530939.000000
531905.000000
532852.000000
533776.000000
534722.000000
535683.000000
536630.000000
537554.000000
538504.000000
539486.000000
540419.000000
541363.000000
542319.000000
543197.000000
544044.000000
544884.000000
545758.000000
546632.000000
547577.000000
548645.000000
549576.000000
550527.000000
551503.000000
552397.000000
553351.000000
554311.000000
555220.000000
556191.000000
557113.000000
558021.000000
558970.000000
559871.000000
560717.000000
561548.000000
562422.000000
563292.000000
564309.000000
565322.000000
566249.000000
567243.000000
568181.000000
569110.000000
570037.000000
570929.000000
571839.000000
572785.000000
573710.000000
574697.000000
575675.000000
576560.000000
577419.000000
578243.000000
579067.000000
579926.000000
580765.000000
581590.000000
582431.000000
583403.000000
584297.000000
585292.000000
586289.000000
587194.000000
588124.000000
589057.000000
589921.000000
590832.000000
591774.000000
592688.000000
593609.000000
594583.000000
595537.000000
596441.000000
597291.000000
598181.000000
599077.000000
599956.000000
600838.000000
601773.000000
602710.000000
603607.000000
604490.000000
605398.000000
606325.000000
607216.000000
608110.000000
609087.000000
610067.000000
611022.000000
611919.000000
612828.000000
613751.000000
614652.000000
615588.000000
616517.000000
617460.000000
618430.000000
619372.000000
620287.000000
621155.000000
622006.000000
622881.000000
623773.000000
624643.000000
625558.000000
626519.000000
627424.000000
628378.000000
629338.000000
630295.000000
631232.000000
632138.000000
633026.000000
633927.000000
634876.000000
635805.000000
636758.000000
637727.000000
638704.000000
639714.000000
640660.000000
641625.000000
642600.000000
643540.000000
644459.000000
645304.000000
646160.000000
647084.000000
648040.000000
648977.000000
649916.000000
650882.000000
651809.000000
652749.000000
653688.000000
654628.000000
655577.000000
656496.000000
657446.000000
658391.000000
659311.000000
660277.000000
661191.000000
662131.000000
663099.000000
664005.000000
664931.000000
665855.000000
666779.000000
667717.000000
668635.000000
669546.000000
670501.000000
671403.000000
672260.000000
673146.000000
674042.000000
674888.000000
675751.000000
676573.000000
677367.000000
678203.000000
679146.000000
680032.000000
681003.000000
682009.000000
682925.000000
683866.000000
684799.000000
685678.000000
686575.000000
687517.000000
688450.000000
689336.000000
690288.000000
691206.000000
692197.000000
693205.000000
694118.000000
695054.000000
695989.000000
696873.000000
697796.000000
698737.000000
699640.000000
700616.000000
701587.000000
702494.000000
703445.000000
704386.000000
705275.000000
706207.000000
707140.000000
708016.000000
708950.000000
709856.000000
710738.000000
711673.000000
712617.000000
713520.000000
714508.000000
715505.000000
716476.000000
717384.000000
718270.000000
719200.000000
720155.000000
721106.000000
721987.000000
722902.000000
723865.000000
724777.000000
725733.000000
726700.000000
727631.000000
728525.000000
729480.000000
730443.000000
731328.000000
732265.000000
733213.000000
734084.000000
734928.000000
735750.000000
736589.000000
737431.000000
738312.000000
739307.000000
740302.000000
741301.000000
742285.000000
743250.000000
744160.000000
745136.000000
746125.000000
747079.000000
748106.000000
749087.000000
750074.000000
751090.000000
752045.000000
753021.000000
754046.000000
754982.000000
755955.000000
756965.000000
757910.000000
758854.000000
759802.000000
760671.000000
761494.000000
762380.000000
763236.000000
764052.000000
764846.000000
765627.000000
766408.000000
767235.000000
768060.000000
768923.000000
769821.000000
770733.000000
771573.000000
772409.000000
773283.000000
774136.000000
775019.000000
775945.000000
776866.000000
777789.000000
778778.000000
779778.000000
780734.000000
781701.000000
782661.000000
783556.000000
784471.000000
785429.000000
786405.000000
787324.000000
788303.000000
789318.000000
790290.000000
791226.000000
792212.000000
793136.000000
794082.000000
795052.000000
796034.000000
796998.000000
797943.000000
798914.000000
799814.000000
800706.000000
801611.000000
802550.000000
803494.000000
804412.000000
805302.000000
806212.000000
807115.000000
807984.000000
808879.000000
809806.000000
810773.000000
811751.000000
812632.000000
813548.000000
814493.000000
815411.000000
816280.000000
817130.000000
818000.000000
818908.000000
819832.000000
820764.000000
821713.000000
822640.000000
823539.000000
824458.000000
825413.000000
826344.000000
827231.000000
828163.000000
829130.000000
830036.000000
830988.000000
831950.000000
832904.000000
833862.000000
834806.000000
835681.000000
836585.000000
837495.000000
838377.000000
839269.000000
840172.000000
841099.000000
842030.000000
842925.000000
843786.000000
844618.000000
845459.000000
846401.000000
847333.000000
848263.000000
849254.000000
850265.000000
851250.000000
852183.000000
853119.000000
854075.000000
855011.000000
855923.000000
856884.000000
857813.000000
858762.000000
859727.000000
860714.000000
861673.000000
862584.000000
863509.000000
864470.000000
865421.000000
866337.000000
867292.000000
868244.000000
869201.000000
870174.000000
871120.000000
872034.000000
872991.000000
873957.000000
874852.000000
875792.000000
876731.000000
877617.000000
878518.000000
879439.000000
880353.000000
881237.000000
882165.000000
883106.000000
883997.000000
884925.000000
885845.000000
886742.000000
887645.000000
888588.000000
889516.000000
890400.000000
891313.000000
892225.000000
893104.000000
893992.000000
894896.000000
895743.000000
896617.000000
897480.000000
898292.000000
899081.000000
899891.000000
900757.000000
901646.000000
902517.000000
903433.000000
904375.000000
905257.000000
906191.000000
907129.000000
908001.000000
908900.000000
909799.000000
910659.000000
911569.000000
912498.000000
913384.000000
914310.000000
915254.000000
916148.000000
917072.000000
917987.000000
918880.000000
919817.000000
920730.000000
921633.000000
922572.000000
923452.000000
924351.000000
925300.000000
926212.000000
927095.000000
928023.000000
928926.000000
929821.000000
930767.000000
931678.000000
932588.000000
933542.000000
934477.000000
935455.000000
936464.000000
937418.000000
938393.000000
939341.000000
940251.000000
941216.000000
942208.000000
943141.000000
944126.000000
945080.000000
945956.000000
946802.000000
947628.000000
948488.000000
949371.000000
950416.000000
951427.000000
952383.000000
953386.000000
954354.000000
955294.000000
956290.000000
957262.000000
958218.000000
959254.000000
960176.000000
961108.000000
962068.000000
962965.000000
963931.000000
964946.000000
965884.000000
966851.000000
967851.000000
968760.000000
969700.000000
970666.000000
971583.000000
972574.000000
973540.000000
974467.000000
975483.000000
976425.000000
977350.000000
978323.000000
979253.000000
980180.000000
981138.000000
982054.000000
982987.000000
983937.000000
984839.000000
985759.000000
986718.000000
987614.000000
988548.000000
989500.000000
990411.000000
991384.000000
992324.000000
993264.000000
994274.000000
995204.000000
996118.000000
997042.000000
997935.000000
998857.000000
999803.000000
1000723.000000
1001696.000000
1002625.000000
1003591.000000
1004536.000000
1005428.000000
1006298.000000
1007165.000000
1007984.000000
1008802.000000
1009674.000000
1010591.000000
1011518.000000
1012517.000000
1013468.000000
1014387.000000
1015333.000000
1016240.000000
1017124.000000
1018054.000000
1018953.000000
1019840.000000
1020768.000000
1021696.000000
1022640.000000
1023596.000000
1024514.000000
1025489.000000
1026428.000000
1027374.000000
1028338.000000
1029258.000000
1030186.000000
1031158.000000
1032059.000000
1033016.000000
1033943.000000
1034809.000000
1035719.000000
1036628.000000
1037505.000000
1038449.000000
1039402.000000
1040277.000000
1041206.000000
1042124.000000
1042999.000000
1043941.000000
1044890.000000
1045798.000000
1046761.000000
1047702.000000
1048586.000000
1049524.000000
1050463.000000
1051348.000000
1052254.000000
1053190.000000
1054079.000000
1054986.000000
1055933.000000
1056816.000000
1057759.000000
1058718.000000
1059610.000000
1060532.000000
1061440.000000
1062352.000000
1063346.000000
1064298.000000
1065220.000000
1066194.000000
1067143.000000
1068085.000000
1069079.000000
1070027.000000
1070966.000000
1071966.000000
1072909.000000
1073831.000000
1074810.000000
1075780.000000
1076759.000000
1077780.000000
1078777.000000
1079734.000000
1080724.000000
1081649.000000
1082608.000000
1083561.000000
1084513.000000
1085533.000000
1086483.000000
1087399.000000
1088371.000000
1089340.000000
1090266.000000
1091166.000000
1092026.000000
1092981.000000
1094099.000000
1095125.000000
1096041.000000
1096883.000000
1097696.000000
1098527.000000
1099355.000000
1100204.000000
1101100.000000
1102047.000000
1102973.000000
1103857.000000
1104735.000000
1105604.000000
1106423.000000
1107222.000000
1108075.000000
1108964.000000
1109897.000000
1110792.000000
1111707.000000
1112664.000000
1113605.000000
1114499.000000
1115418.000000
1116405.000000
1117464.000000
1118488.000000
1119457.000000
1120373.000000
1121256.000000
1122184.000000
1123144.000000
1124100.000000
1125084.000000
1126179.000000
1127206.000000
1128144.000000
1129087.000000
1130038.000000
1130927.000000
1131843.000000
1132830.000000
1133862.000000
1134850.000000
1135914.000000
1136995.000000
1137966.000000
1138993.000000
1139983.000000
1140893.000000
1141847.000000
1142807.000000
1143728.000000
1144673.000000
1145620.000000
1146523.000000
1147458.000000
1148417.000000
1149299.000000
1150159.000000
1151028.000000
1151891.000000
1152758.000000
1153566.000000
1154352.000000
1155166.000000
1155975.000000
1156806.000000
1157688.000000
1158604.000000
1159490.000000
1160395.000000
1161312.000000
1162210.000000
1163071.000000
1163957.000000
1164838.000000
1165700.000000
1166570.000000
1167449.000000
1168313.000000
1169163.000000
1169991.000000
1170909.000000
1171883.000000
1172845.000000
1173747.000000
1174636.000000
1175547.000000
1176469.000000
1177421.000000
1178322.000000
1179195.000000
1180105.000000
1181060.000000
1182082.000000
1183062.000000
1183993.000000
1184881.000000
1185805.000000
1186722.000000
1187627.000000
1188570.000000
1189529.000000
1190465.000000
1191442.000000
1192422.000000
1193353.000000
1194257.000000
1195208.000000
1196186.000000
1197110.000000
1198003.000000
1198865.000000
1199681.000000
1200452.000000
1201257.000000
1202116.000000
1203141.000000
1204071.000000
1205090.000000
1206124.000000
1207109.000000
1208158.000000
1209146.000000
1210110.000000
1211117.000000
1212040.000000
