ECG (ms)
88.000000
707.000000
1326.000000
1966.000000
2627.000000
3333.000000
4050.000000
4747.000000
5444.000000
6173.000000
6888.000000
7562.000000
8210.000000
8874.000000
9531.000000
10184.000000
10852.000000
11448.000000
12031.000000
12611.000000
13173.000000
13742.000000
14330.000000
14944.000000
15623.000000
16296.000000
16982.000000
17676.000000
18339.000000
19001.000000
19673.000000
20356.000000
21037.000000
21730.000000
22435.000000
23117.000000
23786.000000
24465.000000
25157.000000
25869.000000
26579.000000
27247.000000
27912.000000
28581.000000
29262.000000
29929.000000
30631.000000
31367.000000
32101.000000
32821.000000
33536.000000
34227.000000
34918.000000
35599.000000
36288.000000
36969.000000
37633.000000
38296.000000
38977.000000
39685.000000
40448.000000
41213.000000
41913.000000
42611.000000
43276.000000
43919.000000
44592.000000
45287.000000
45968.000000
46697.000000
47485.000000
48199.000000
48926.000000
49613.000000
50280.000000
50932.000000
51583.000000
52237.000000
52905.000000
53540.000000
54185.000000
54856.000000
55574.000000
56330.000000
57110.000000
57827.000000
58567.000000
59346.000000
60173.000000
61007.000000
61789.000000
62511.000000
63250.000000
64018.000000
64790.000000
65513.000000
66278.000000
67070.000000
67805.000000
68554.000000
69428.000000
70285.000000
71148.000000
71989.000000
72727.000000
73461.000000
74283.000000
75093.000000
75932.000000
76762.000000
77492.000000
78334.000000
79180.000000
80047.000000
80899.000000
81650.000000
82394.000000
83226.000000
84057.000000
84926.000000
85797.000000
86630.000000
87367.000000
88148.000000
88991.000000
89804.000000
90630.000000
91428.000000
92165.000000
93002.000000
93832.000000
94672.000000
95476.000000
96190.000000
96941.000000
97781.000000
98651.000000
99519.000000
100376.000000
101129.000000
101950.000000
102804.000000
103642.000000
104472.000000
105295.000000
106017.000000
106761.000000
107577.000000
108395.000000
109221.000000
110047.000000
110798.000000
111553.000000
112407.000000
113272.000000
114133.000000
114993.000000
115843.000000
116581.000000
117345.000000
118185.000000
119001.000000
119826.000000
120650.000000
121383.000000
122154.000000
122992.000000
123806.000000
124612.000000
125409.000000
126110.000000
126839.000000
127645.000000
128471.000000
129323.000000
130118.000000
130871.000000
131703.000000
132517.000000
133336.000000
134070.000000
134798.000000
135609.000000
136419.000000
137229.000000
137991.000000
138724.000000
139417.000000
140138.000000
140879.000000
141662.000000
142438.000000
143187.000000
143896.000000
144624.000000
145372.000000
146155.000000
146937.000000
147678.000000
148402.000000
149153.000000
149928.000000
150696.000000
151451.000000
152165.000000
152872.000000
153611.000000
154348.000000
155022.000000
155674.000000
156353.000000
157068.000000
157744.000000
158448.000000
159231.000000
160031.000000
160801.000000
161572.000000
162308.000000
163026.000000
163787.000000
164582.000000
165380.000000
166172.000000
166934.000000
167652.000000
168366.000000
169109.000000
169888.000000
170682.000000
171473.000000
172253.000000
172993.000000
173756.000000
174548.000000
175354.000000
176155.000000
176930.000000
177663.000000
178400.000000
179167.000000
179957.000000
180733.000000
181455.000000
182169.000000
182914.000000
183704.000000
184513.000000
185258.000000
185992.000000
186757.000000
187524.000000
188276.000000
189036.000000
189726.000000
190429.000000
191161.000000
191903.000000
192659.000000
193390.000000
194085.000000
194799.000000
195568.000000
196353.000000
197144.000000
197932.000000
198649.000000
199375.000000
200133.000000
200889.000000
201676.000000
202432.000000
203119.000000
203826.000000
204574.000000
205350.000000
206127.000000
206912.000000
207630.000000
208391.000000
209191.000000
209990.000000
210789.000000
211497.000000
212215.000000
212971.000000
213765.000000
214498.000000
215249.000000
215926.000000
216637.000000
217421.000000
218214.000000
219027.000000
219827.000000
220540.000000
221382.000000
222203.000000
223034.000000
223852.000000
224602.000000
225322.000000
226068.000000
226884.000000
227694.000000
228494.000000
229260.000000
229989.000000
230726.000000
231516.000000
232379.000000
233220.000000
234029.000000
234797.000000
235532.000000
236291.000000
237071.000000
237880.000000
238660.000000
239385.000000
240112.000000
240854.000000
241622.000000
242438.000000
243234.000000
243973.000000
244710.000000
245439.000000
246128.000000
246848.000000
247561.000000
248269.000000
248956.000000
249623.000000
250331.000000
251047.000000
251729.000000
252448.000000
253227.000000
253998.000000
254771.000000
255512.000000
256221.000000
256935.000000
257677.000000
258457.000000
259230.000000
260004.000000
260720.000000
261416.000000
262136.000000
262906.000000
263705.000000
264481.000000
265208.000000
265929.000000
266686.000000
267488.000000
268282.000000
269044.000000
269765.000000
270476.000000
271222.000000
272034.000000
272850.000000
273617.000000
274319.000000
275035.000000
275789.000000
276611.000000
277381.000000
278093.000000
278811.000000
279576.000000
280347.000000
281111.000000
281874.000000
282601.000000
283298.000000
284022.000000
284776.000000
285549.000000
286315.000000
287062.000000
287753.000000
288465.000000
289227.000000
289994.000000
290776.000000
291496.000000
292201.000000
292947.000000
293720.000000
294481.000000
295204.000000
295902.000000
296632.000000
297424.000000
298229.000000
299003.000000
299738.000000
300467.000000
301246.000000
301995.000000
302755.000000
303498.000000
304199.000000
304918.000000
305661.000000
306428.000000
307171.000000
307908.000000
308596.000000
309287.000000
310019.000000
310794.000000
311554.000000
312295.000000
312994.000000
313718.000000
314489.000000
315262.000000
316036.000000
316782.000000
317480.000000
318200.000000
318956.000000
319754.000000
320530.000000
321281.000000
321988.000000
322713.000000
323471.000000
324267.000000
325048.000000
325823.000000
326636.000000
327338.000000
328063.000000
328819.000000
329578.000000
330330.000000
331095.000000
331811.000000
332579.000000
333417.000000
334238.000000
335054.000000
335799.000000
336533.000000
337340.000000
338134.000000
338947.000000
339719.000000
340442.000000
341158.000000
341893.000000
342663.000000
343474.000000
344278.000000
345007.000000
345739.000000
346485.000000
347273.000000
348041.000000
348815.000000
349523.000000
350281.000000
351119.000000
351931.000000
352709.000000
353461.000000
354141.000000
354831.000000
355538.000000
356281.000000
357074.000000
357848.000000
358565.000000
359293.000000
360080.000000
360882.000000
361686.000000
362461.000000
363164.000000
363896.000000
364641.000000
365432.000000
366194.000000
366901.000000
367641.000000
368434.000000
369206.000000
369995.000000
370739.000000
371461.000000
372262.000000
373015.000000
373831.000000
374618.000000
375318.000000
376042.000000
376815.000000
377583.000000
378350.000000
379052.000000
379801.000000
380621.000000
381434.000000
382259.000000
383054.000000
383756.000000
384525.000000
385324.000000
386083.000000
386879.000000
387588.000000
388298.000000
389029.000000
389792.000000
390586.000000
391361.000000
392062.000000
392787.000000
393542.000000
394309.000000
395068.000000
395806.000000
396502.000000
397203.000000
397938.000000
398699.000000
399451.000000
400174.000000
400860.000000
401554.000000
402278.000000
403028.000000
403761.000000
404441.000000
405135.000000
405856.000000
406587.000000
407346.000000
408035.000000
408721.000000
409400.000000
410068.000000
410724.000000
411369.000000
412010.000000
412625.000000
413239.000000
413880.000000
414555.000000
415318.000000
416076.000000
416848.000000
417608.000000
418345.000000
419042.000000
419744.000000
420471.000000
421208.000000
421954.000000
422688.000000
423388.000000
424091.000000
424831.000000
425605.000000
426381.000000
427124.000000
427825.000000
428553.000000
429311.000000
430081.000000
430837.000000
431550.000000
432256.000000
432994.000000
433746.000000
434501.000000
435252.000000
435954.000000
436675.000000
437431.000000
438216.000000
439001.000000
439769.000000
440479.000000
441212.000000
441984.000000
442743.000000
443507.000000
444207.000000
444913.000000
445647.000000
446400.000000
447173.000000
447940.000000
448644.000000
449386.000000
450174.000000
450924.000000
451709.000000
452418.000000
453139.000000
453896.000000
454649.000000
455410.000000
456167.000000
456872.000000
457587.000000
458343.000000
459124.000000
459917.000000
460695.000000
461412.000000
462160.000000
462936.000000
463740.000000
464518.000000
465284.000000
465992.000000
466713.000000
467491.000000
468278.000000
469054.000000
469816.000000
470529.000000
471250.000000
472052.000000
472846.000000
473640.000000
474411.000000
475131.000000
475862.000000
476625.000000
477404.000000
478157.000000
478928.000000
479640.000000
480395.000000
481183.000000
481972.000000
482757.000000
483524.000000
484246.000000
484964.000000
485719.000000
486488.000000
487264.000000
488044.000000
488805.000000
489522.000000
490221.000000
490961.000000
491761.000000
492552.000000
493341.000000
494111.000000
494842.000000
495540.000000
496262.000000
497028.000000
497806.000000
498603.000000
499348.000000
500093.000000
500865.000000
501669.000000
502463.000000
503203.000000
503943.000000
504743.000000
505535.000000
506338.000000
507116.000000
507852.000000
508615.000000
509393.000000
510191.000000
510973.000000
511724.000000
512488.000000
513252.000000
514028.000000
514792.000000
515519.000000
516254.000000
517002.000000
517802.000000
518595.000000
519354.000000
520089.000000
520892.000000
521684.000000
522442.000000
523247.000000
523948.000000
524666.000000
525432.000000
526244.000000
527041.000000
527816.000000
528526.000000
529253.000000
530035.000000
530850.000000
531657.000000
532465.000000
533219.000000
533933.000000
534657.000000
535386.000000
536161.000000
536938.000000
537723.000000
538451.000000
539156.000000
539871.000000
540640.000000
541456.000000
542221.000000
542918.000000
543640.000000
544415.000000
545157.000000
545935.000000
546665.000000
547381.000000
548093.000000
548840.000000
549610.000000
550360.000000
551127.000000
551849.000000
552548.000000
553268.000000
553999.000000
554699.000000
555393.000000
556080.000000
556754.000000
557453.000000
558230.000000
559001.000000
559781.000000
560477.000000
561196.000000
561987.000000
562750.000000
563521.000000
564271.000000
564995.000000
565681.000000
566363.000000
567082.000000
567877.000000
568678.000000
569448.000000
570175.000000
570874.000000
571595.000000
572321.000000
573082.000000
573858.000000
574560.000000
575284.000000
576041.000000
576855.000000
577644.000000
578416.000000
579194.000000
579920.000000
580625.000000
581367.000000
582120.000000
582883.000000
583640.000000
584371.000000
585131.000000
585913.000000
586708.000000
587486.000000
588221.000000
588950.000000
589694.000000
590451.000000
591171.000000
591858.000000
592566.000000
593269.000000
593947.000000
594620.000000
595324.000000
596035.000000
596703.000000
597376.000000
598067.000000
598779.000000
599513.000000
600238.000000
600926.000000
601610.000000
602313.000000
603034.000000
603780.000000
604519.000000
605213.000000
605898.000000
606593.000000
607293.000000
608000.000000
608724.000000
609435.000000
610136.000000
610879.000000
611653.000000
612420.000000
613170.000000
613868.000000
614567.000000
615288.000000
616045.000000
616819.000000
617583.000000
618299.000000
619018.000000
619768.000000
620571.000000
621321.000000
622077.000000
622778.000000
623485.000000
624221.000000
625010.000000
625752.000000
626547.000000
627235.000000
627993.000000
628787.000000
629582.000000
630400.000000
631182.000000
631929.000000
632637.000000
633339.000000
634097.000000
634913.000000
635704.000000
636460.000000
637199.000000
637953.000000
638762.000000
639555.000000
640328.000000
641137.000000
641839.000000
642592.000000
643352.000000
644120.000000
644918.000000
645621.000000
646355.000000
647155.000000
647901.000000
648722.000000
649477.000000
650235.000000
650951.000000
651714.000000
652484.000000
653231.000000
653937.000000
654638.000000
655325.000000
656082.000000
656929.000000
657755.000000
658546.000000
659243.000000
659929.000000
660605.000000
661292.000000
661999.000000
662725.000000
663467.000000
664237.000000
664922.000000
665634.000000
666377.000000
667132.000000
667888.000000
668636.000000
669328.000000
670034.000000
670753.000000
671489.000000
672269.000000
672994.000000
673759.000000
674455.000000
675171.000000
675937.000000
676736.000000
677518.000000
678274.000000
679058.000000
679761.000000
680480.000000
681211.000000
682002.000000
682751.000000
683553.000000
684251.000000
685009.000000
685854.000000
686669.000000
687466.000000
688173.000000
688919.000000
689747.000000
690563.000000
691394.000000
692196.000000
692934.000000
693686.000000
694473.000000
695291.000000
696101.000000
696870.000000
697640.000000
698345.000000
699050.000000
699830.000000
700672.000000
701504.000000
702291.000000
703070.000000
703906.000000
704713.000000
705507.000000
706302.000000
707078.000000
707855.000000
708674.000000
709489.000000
710270.000000
711051.000000
711774.000000
712488.000000
713307.000000
714132.000000
714948.000000
715691.000000
716486.000000
717274.000000
718056.000000
718841.000000
719560.000000
720296.000000
721139.000000
721966.000000
722800.000000
723605.000000
724376.000000
725105.000000
725834.000000
726588.000000
727350.000000
728139.000000
728829.000000
729550.000000
730358.000000
731140.000000
731983.000000
732820.000000
733548.000000
734279.000000
735110.000000
735945.000000
736800.000000
737659.000000
738430.000000
739294.000000
740119.000000
740989.000000
741821.000000
742583.000000
743309.000000
744020.000000
744797.000000
745678.000000
746559.000000
747406.000000
748177.000000
749047.000000
749915.000000
750811.000000
751707.000000
752529.000000
753255.000000
754116.000000
754877.000000
755700.000000
756430.000000
757214.000000
758022.000000
758836.000000
759599.000000
760344.000000
761184.000000
762032.000000
762897.000000
763704.000000
764408.000000
765161.000000
765976.000000
766752.000000
767570.000000
768304.000000
769149.000000
769989.000000
770852.000000
771704.000000
772465.000000
773281.000000
774068.000000
774911.000000
775734.000000
776492.000000
777240.000000
778090.000000
778888.000000
779714.000000
780536.000000
781258.000000
782119.000000
782988.000000
783769.000000
784435.000000
785181.000000
785918.000000
786651.000000
787320.000000
788055.000000
788795.000000
789503.000000
790266.000000
791076.000000
791856.000000
792634.000000
793356.000000
794065.000000
794785.000000
795531.000000
796289.000000
797041.000000
797752.000000
798464.000000
799212.000000
799993.000000
800801.000000
801585.000000
802317.000000
803049.000000
803824.000000
804603.000000
805387.000000
806153.000000
806872.000000
807578.000000
808302.000000
809038.000000
809786.000000
810522.000000
811222.000000
811918.000000
812636.000000
813373.000000
814130.000000
814900.000000
815679.000000
816411.000000
817153.000000
817936.000000
818741.000000
819527.000000
820265.000000
820991.000000
821742.000000
822530.000000
823349.000000
824135.000000
824875.000000
825622.000000
826397.000000
827226.000000
828055.000000
828875.000000
829674.000000
830449.000000
831255.000000
832064.000000
832847.000000
833620.000000
834363.000000
835116.000000
835927.000000
836815.000000
837696.000000
838539.000000
839282.000000
840040.000000
840845.000000
841665.000000
842487.000000
843259.000000
844073.000000
844919.000000
845802.000000
846665.000000
847481.000000
848229.000000
848987.000000
849797.000000
850785.000000
851781.000000
852582.000000
853314.000000
854079.000000
854920.000000
855737.000000
856564.000000
857288.000000
858045.000000
858903.000000
859741.000000
860585.000000
861347.000000
862100.000000
862959.000000
863784.000000
864602.000000
865392.000000
866143.000000
866914.000000
867744.000000
868574.000000
869407.000000
870233.000000
871063.000000
871830.000000
872601.000000
873366.000000
874096.000000
874838.000000
875668.000000
876488.000000
877336.000000
878149.000000
878863.000000
879638.000000
880480.000000
881287.000000
882039.000000
882762.000000
883508.000000
884336.000000
885148.000000
885925.000000
886641.000000
887358.000000
888115.000000
888926.000000
889709.000000
890443.000000
891160.000000
891896.000000
892697.000000
893503.000000
894314.000000
895111.000000
895856.000000
896588.000000
897349.000000
898134.000000
898945.000000
899742.000000
900492.000000
901232.000000
902011.000000
902814.000000
903621.000000
904410.000000
905152.000000
905912.000000
906685.000000
907462.000000
908237.000000
908978.000000
909713.000000
910472.000000
911269.000000
912060.000000
912866.000000
913630.000000
914377.000000
915170.000000
916002.000000
916823.000000
917618.000000
918362.000000
919105.000000
919874.000000
920686.000000
921506.000000
922257.000000
922988.000000
923783.000000
924616.000000
925422.000000
926139.000000
926862.000000
927647.000000
928481.000000
929292.000000
930103.000000
930824.000000
931580.000000
932420.000000
933243.000000
934073.000000
934886.000000
935644.000000
936428.000000
937243.000000
938068.000000
938873.000000
939628.000000
940388.000000
941170.000000
941975.000000
942815.000000
943635.000000
944389.000000
945181.000000
945977.000000
946814.000000
947628.000000
948418.000000
949159.000000
949935.000000
950727.000000
951549.000000
952363.000000
953118.000000
953921.000000
954740.000000
955593.000000
956400.000000
957161.000000
957894.000000
958659.000000
959452.000000
960278.000000
961084.000000
961858.000000
962649.000000
963456.000000
964285.000000
965120.000000
965953.000000
966741.000000
967563.000000
968363.000000
969147.000000
969958.000000
970794.000000
971573.000000
972341.000000
973186.000000
974048.000000
974911.000000
975715.000000
976463.000000
977221.000000
978008.000000
978800.000000
979609.000000
980355.000000
981102.000000
981891.000000
982708.000000
983527.000000
984303.000000
985059.000000
985849.000000
986656.000000
987466.000000
988260.000000
989004.000000
989791.000000
990595.000000
991413.000000
992221.000000
992964.000000
993726.000000
994506.000000
995314.000000
996140.000000
996945.000000
997693.000000
998439.000000
999221.000000
1000059.000000
1000894.000000
1001679.000000
1002460.000000
1003251.000000
1004060.000000
1004870.000000
1005609.000000
1006368.000000
1007147.000000
1007983.000000
1008821.000000
1009658.000000
1010430.000000
1011219.000000
1012029.000000
1012884.000000
1013755.000000
1014530.000000
1015322.000000
1016125.000000
1016960.000000
1017788.000000
1018584.000000
1019323.000000
1020100.000000
1020961.000000
1021859.000000
1022771.000000
1023575.000000
1024358.000000
1025179.000000
1026015.000000
1026840.000000
1027626.000000
1028411.000000
1029234.000000
1030061.000000
1030882.000000
1031681.000000
1032432.000000
1033206.000000
1033974.000000
1034766.000000
1035574.000000
1036352.000000
1037102.000000
1037910.000000
1038736.000000
1039552.000000
1040366.000000
1041126.000000
1041931.000000
1042756.000000
1043579.000000
1044393.000000
1045155.000000
1045943.000000
1046758.000000
1047567.000000
1048373.000000
1049155.000000
1049910.000000
1050643.000000
1051427.000000
1052224.000000
1053020.000000
1053811.000000
1054549.000000
1055278.000000
1056051.000000
1056866.000000
1057648.000000
1058364.000000
1059081.000000
1059854.000000
1060671.000000
1061441.000000
1062171.000000
1062919.000000
1063765.000000
1064575.000000
1065357.000000
1066121.000000
1066882.000000
1067717.000000
1068512.000000
1069368.000000
1070094.000000
1070845.000000
1071645.000000
1072440.000000
1073223.000000
1074048.000000
1074783.000000
1075529.000000
1076375.000000
1077201.000000
1078044.000000
1078808.000000
1079687.000000
1080515.000000
1081322.000000
1082123.000000
1082865.000000
1083597.000000
1084437.000000
1085293.000000
1086177.000000
1087036.000000
1087875.000000
1088656.000000
1089395.000000
1090166.000000
1090982.000000
1091840.000000
1092691.000000
1093463.000000
1094259.000000
1095099.000000
1095954.000000
1096837.000000
1097673.000000
1098439.000000
1099269.000000
1100100.000000
1100943.000000
1101802.000000
1102604.000000
1103343.000000
1104071.000000
1104834.000000
1105667.000000
1106520.000000
1107281.000000
1108037.000000
1108848.000000
1109685.000000
1110529.000000
1111295.000000
1112075.000000
1112882.000000
1113715.000000
1114559.000000
1115341.000000
1116139.000000
1116927.000000
1117714.000000
1118510.000000
1119263.000000
1119994.000000
1120768.000000
1121583.000000
1122429.000000
1123254.000000
1124041.000000
1124793.000000
1125569.000000
1126359.000000
1127156.000000
1127918.000000
1128666.000000
1129445.000000
1130256.000000
1131069.000000
1131860.000000
1132607.000000
1133373.000000
1134172.000000
1135013.000000
1135836.000000
1136611.000000
1137340.000000
1138169.000000
1139012.000000
1139905.000000
1140775.000000
1141583.000000
1142330.000000
1143071.000000
1143869.000000
1144729.000000
1145569.000000
1146382.000000
1147101.000000
1147861.000000
1148727.000000
1149571.000000
1150420.000000
1151226.000000
1151937.000000
1152695.000000
1153486.000000
1154319.000000
1155095.000000
1155835.000000
1156595.000000
1157470.000000
1158297.000000
1159125.000000
1159888.000000
1160694.000000
1161510.000000
1162334.000000
1163148.000000
1163901.000000
1164692.000000
1165502.000000
1166359.000000
1167182.000000
1167945.000000
1168709.000000
1169545.000000
1170380.000000
1171222.000000
1172043.000000
1172793.000000
1173522.000000
1174314.000000
1175200.000000
1176092.000000
1176991.000000
1177835.000000
1178620.000000
1179562.000000
1180465.000000
1181342.000000
1182082.000000
1182862.000000
1183736.000000
1184562.000000
1185342.000000
1186105.000000
1186913.000000
1187809.000000
1188664.000000
1189518.000000
1190294.000000
1191033.000000
1191777.000000
1192645.000000
1193476.000000
1194293.000000
1195011.000000
1195754.000000
1196593.000000
1197405.000000
1198243.000000
1198973.000000
1199742.000000
1200571.000000
1201401.000000
1202254.000000
1202998.000000
1203763.000000
1204624.000000
1205459.000000
1206294.000000
1207029.000000
1207789.000000
1208629.000000
1209470.000000
1210336.000000
1211200.000000
1212052.000000
1212836.000000
1213665.000000
1214375.000000
1215119.000000
1215981.000000
1216844.000000
1217706.000000
1218466.000000
1219310.000000
1220135.000000
1220982.000000
1221835.000000
1222580.000000
1223379.000000
1224180.000000
1224943.000000
1225719.000000
1226439.000000
1227173.000000
1228024.000000
1228855.000000
1229690.000000
1230450.000000
1231168.000000
1231899.000000
1232717.000000
1233523.000000
1234332.000000
1235050.000000
1235819.000000
1236648.000000
1237462.000000
1238275.000000
1239008.000000
1239751.000000
1240568.000000
1241341.000000
1242205.000000
1243025.000000
1243757.000000
1244559.000000
1245398.000000
1246213.000000
1247043.000000
1247788.000000
1248545.000000
1249395.000000
1250210.000000
1250976.000000
1251782.000000
1252471.000000
1253204.000000
1254008.000000
1254821.000000
1255656.000000
1256405.000000
1257191.000000
1258018.000000
1258840.000000
1259663.000000
1260444.000000
1261251.000000
1261964.000000
