ECG (ms)
25.000000
733.000000
1521.000000
2414.000000
3189.000000
3947.000000
4663.000000
5324.000000
5983.000000
6717.000000
7529.000000
8597.000000
9486.000000
10270.000000
11059.000000
11909.000000
12695.000000
13555.000000
14374.000000
15352.000000
16226.000000
17002.000000
17799.000000
18888.000000
19753.000000
20484.000000
21234.000000
22336.000000
23367.000000
24331.000000
25063.000000
25801.000000
26668.000000
27743.000000
28698.000000
29527.000000
30272.000000
31068.000000
32208.000000
33205.000000
34013.000000
34761.000000
35574.000000
36650.000000
37462.000000
38236.000000
39138.000000
40235.000000
41062.000000
41840.000000
42679.000000
43662.000000
44433.000000
45203.000000
46010.000000
46860.000000
47715.000000
48862.000000
49809.000000
50617.000000
51457.000000
52235.000000
52980.000000
53840.000000
54928.000000
55754.000000
56556.000000
57352.000000
58070.000000
58847.000000
59651.000000
60392.000000
61118.000000
61890.000000
62708.000000
63441.000000
64188.000000
65020.000000
65785.000000
66516.000000
67301.000000
68402.000000
69289.000000
69993.000000
70679.000000
71394.000000
72123.000000
72882.000000
73962.000000
74884.000000
75774.000000
76567.000000
77306.000000
78023.000000
78775.000000
79542.000000
80312.000000
81105.000000
81899.000000
82626.000000
83362.000000
84114.000000
84848.000000
85575.000000
86323.000000
87018.000000
87710.000000
88436.000000
89129.000000
89798.000000
90498.000000
91219.000000
91922.000000
92636.000000
93381.000000
94091.000000
94774.000000
95540.000000
96363.000000
97108.000000
97834.000000
98593.000000
99345.000000
100052.000000
100772.000000
101475.000000
102167.000000
102853.000000
103576.000000
104245.000000
104871.000000
105486.000000
106100.000000
106720.000000
107400.000000
108195.000000
108887.000000
109634.000000
110420.000000
111132.000000
111820.000000
112553.000000
113342.000000
114082.000000
114770.000000
115450.000000
116221.000000
117048.000000
117788.000000
118597.000000
119412.000000
120164.000000
121116.000000
121924.000000
122660.000000
123421.000000
124168.000000
124962.000000
126037.000000
126942.000000
127896.000000
128806.000000
129628.000000
130389.000000
131160.000000
131903.000000
132757.000000
133805.000000
134731.000000
135662.000000
136581.000000
137343.000000
138044.000000
138759.000000
139657.000000
140376.000000
141031.000000
141704.000000
142407.000000
143329.000000
144332.000000
145141.000000
145848.000000
146583.000000
147397.000000
148141.000000
148920.000000
149997.000000
150928.000000
151771.000000
152510.000000
153279.000000
154029.000000
154814.000000
155581.000000
156295.000000
156963.000000
157596.000000
158244.000000
158910.000000
159599.000000
160262.000000
160911.000000
161545.000000
162170.000000
162776.000000
163372.000000
163959.000000
164550.000000
165192.000000
165959.000000
166696.000000
167684.000000
168599.000000
169428.000000
170128.000000
170838.000000
171856.000000
172772.000000
173682.000000
174625.000000
175534.000000
176463.000000
177391.000000
178132.000000
178831.000000
179539.000000
180387.000000
181329.000000
182316.000000
183234.000000
184068.000000
184917.000000
185706.000000
186479.000000
187302.000000
188128.000000
188953.000000
189957.000000
190733.000000
191538.000000
192386.000000
193160.000000
194078.000000
194992.000000
195743.000000
196491.000000
197237.000000
197975.000000
198718.000000
199476.000000
200196.000000
200965.000000
201846.000000
202733.000000
203772.000000
204630.000000
205415.000000
206191.000000
206929.000000
207684.000000
208443.000000
209177.000000
209993.000000
210869.000000
211661.000000
212724.000000
213588.000000
214403.000000
215209.000000
215965.000000
216813.000000
217883.000000
218801.000000
219847.000000
220893.000000
221685.000000
222417.000000
223195.000000
224135.000000
224955.000000
226069.000000
227124.000000
228140.000000
229074.000000
229792.000000
230508.000000
231570.000000
232554.000000
233481.000000
234299.000000
235007.000000
235828.000000
236921.000000
237856.000000
238669.000000
239371.000000
240099.000000
240853.000000
241565.000000
242363.000000
243456.000000
244379.000000
245281.000000
246036.000000
246752.000000
247482.000000
248383.000000
249283.000000
250093.000000
250902.000000
251682.000000
252441.000000
253203.000000
253961.000000
254715.000000
255532.000000
256283.000000
257056.000000
257841.000000
258603.000000
259377.000000
260185.000000
260926.000000
261683.000000
262532.000000
263306.000000
264059.000000
264827.000000
265591.000000
266312.000000
267061.000000
267806.000000
268510.000000
269230.000000
269969.000000
270687.000000
271399.000000
272198.000000
273000.000000
273775.000000
274528.000000
275241.000000
275966.000000
276700.000000
277443.000000
278212.000000
278988.000000
279707.000000
280423.000000
281176.000000
281902.000000
282620.000000
283375.000000
284119.000000
284841.000000
285598.000000
286326.000000
287052.000000
287833.000000
288679.000000
289434.000000
290163.000000
290888.000000
291600.000000
292298.000000
292978.000000
293727.000000
294509.000000
295236.000000
296016.000000
296803.000000
297524.000000
298263.000000
299006.000000
299718.000000
300488.000000
301400.000000
302212.000000
303016.000000
303806.000000
304540.000000
305340.000000
306268.000000
307041.000000
307789.000000
308649.000000
309536.000000
310336.000000
311244.000000
312076.000000
312816.000000
313603.000000
314583.000000
315431.000000
316158.000000
316887.000000
317658.000000
318553.000000
319376.000000
320293.000000
321093.000000
321876.000000
322764.000000
323533.000000
324319.000000
325348.000000
326219.000000
326987.000000
327865.000000
328908.000000
329790.000000
330691.000000
331629.000000
332551.000000
333427.000000
334308.000000
335143.000000
336000.000000
336824.000000
337565.000000
338358.000000
339264.000000
340048.000000
340836.000000
341880.000000
342798.000000
343653.000000
344393.000000
345127.000000
345858.000000
346676.000000
347737.000000
348657.000000
349616.000000
350509.000000
351410.000000
352172.000000
352907.000000
353626.000000
354378.000000
355123.000000
355957.000000
356995.000000
357878.000000
358739.000000
359508.000000
360273.000000
361010.000000
361844.000000
362718.000000
363462.000000
364221.000000
365070.000000
365864.000000
366709.000000
367536.000000
368280.000000
369070.000000
370108.000000
370989.000000
371782.000000
372585.000000
373412.000000
374339.000000
375397.000000
376322.000000
377275.000000
378177.000000
379052.000000
379836.000000
380595.000000
381323.000000
382101.000000
382955.000000
383734.000000
384620.000000
385436.000000
386198.000000
386996.000000
387749.000000
388445.000000
389147.000000
389904.000000
390641.000000
391388.000000
392286.000000
393095.000000
393856.000000
394656.000000
395466.000000
396243.000000
397143.000000
397980.000000
398734.000000
399509.000000
400378.000000
401159.000000
401930.000000
402988.000000
403882.000000
404801.000000
405734.000000
406618.000000
407448.000000
408246.000000
409057.000000
409814.000000
410616.000000
411570.000000
412367.000000
413152.000000
413959.000000
414721.000000
415662.000000
416639.000000
417451.000000
418161.000000
418897.000000
419731.000000
420637.000000
421585.000000
422590.000000
423551.000000
424374.000000
425107.000000
425899.000000
426957.000000
427885.000000
428786.000000
429718.000000
430581.000000
431329.000000
432062.000000
433093.000000
433997.000000
434861.000000
435621.000000
436388.000000
437359.000000
438154.000000
438936.000000
439937.000000
440824.000000
441599.000000
442432.000000
443230.000000
443956.000000
444746.000000
445700.000000
446623.000000
447472.000000
448216.000000
448981.000000
449906.000000
450763.000000
451570.000000
452471.000000
453284.000000
454081.000000
454901.000000
455655.000000
456379.000000
457151.000000
457946.000000
458692.000000
459503.000000
460523.000000
461350.000000
462173.000000
462931.000000
463639.000000
464383.000000
465207.000000
465975.000000
466817.000000
467614.000000
468351.000000
469109.000000
469945.000000
470746.000000
471457.000000
472159.000000
472902.000000
473673.000000
474406.000000
475173.000000
475992.000000
476761.000000
477519.000000
478299.000000
479024.000000
479709.000000
480430.000000
481173.000000
481910.000000
482668.000000
483523.000000
484325.000000
485156.000000
486066.000000
486848.000000
487668.000000
488455.000000
489156.000000
489883.000000
490647.000000
491399.000000
492324.000000
493164.000000
493935.000000
494713.000000
495438.000000
496177.000000
496966.000000
497760.000000
498528.000000
499341.000000
500084.000000
500839.000000
501655.000000
502378.000000
503093.000000
503811.000000
504527.000000
505256.000000
506018.000000
506747.000000
507438.000000
508138.000000
508897.000000
509612.000000
510408.000000
511257.000000
512006.000000
512715.000000
513432.000000
514093.000000
514724.000000
515351.000000
516004.000000
516757.000000
517786.000000
518676.000000
519599.000000
520481.000000
521317.000000
522038.000000
522729.000000
523404.000000
524117.000000
524904.000000
525640.000000
526438.000000
527209.000000
527934.000000
528648.000000
529324.000000
529962.000000
530595.000000
531255.000000
531941.000000
532931.000000
533781.000000
534650.000000
535513.000000
536315.000000
537039.000000
537747.000000
538445.000000
539133.000000
539935.000000
540791.000000
541552.000000
542497.000000
543342.000000
544085.000000
544884.000000
545648.000000
546360.000000
547312.000000
548255.000000
549076.000000
549847.000000
550794.000000
551604.000000
552355.000000
553371.000000
554275.000000
555144.000000
556046.000000
556942.000000
557798.000000
558664.000000
559560.000000
560432.000000
561293.000000
562186.000000
563067.000000
563904.000000
564779.000000
565643.000000
566448.000000
567154.000000
567911.000000
568889.000000
569744.000000
570642.000000
571573.000000
572429.000000
573306.000000
574147.000000
574906.000000
575639.000000
576660.000000
577506.000000
578272.000000
578995.000000
579754.000000
580491.000000
581474.000000
582277.000000
583026.000000
583841.000000
584764.000000
585538.000000
586355.000000
587216.000000
587940.000000
588698.000000
589481.000000
590200.000000
590973.000000
591895.000000
592789.000000
593748.000000
594681.000000
595416.000000
596104.000000
596819.000000
597614.000000
598348.000000
599312.000000
600287.000000
601110.000000
601943.000000
602941.000000
603832.000000
604593.000000
605365.000000
606310.000000
607140.000000
607921.000000
608812.000000
609601.000000
610365.000000
611364.000000
612234.000000
612976.000000
613708.000000
614450.000000
615145.000000
615867.000000
616715.000000
617555.000000
618278.000000
619071.000000
619904.000000
620639.000000
621379.000000
622160.000000
622902.000000
623632.000000
624463.000000
625264.000000
625983.000000
626714.000000
627522.000000
628300.000000
629046.000000
629829.000000
630567.000000
631311.000000
632099.000000
632855.000000
633579.000000
634386.000000
635170.000000
635894.000000
636658.000000
637600.000000
638507.000000
639233.000000
639916.000000
640636.000000
641464.000000
642276.000000
643045.000000
644065.000000
644948.000000
645801.000000
646626.000000
647408.000000
648163.000000
648899.000000
649671.000000
650458.000000
651239.000000
652172.000000
653035.000000
653781.000000
654545.000000
655325.000000
656041.000000
656802.000000
657569.000000
658275.000000
658985.000000
659666.000000
660305.000000
660933.000000
661584.000000
662339.000000
663103.000000
663809.000000
664543.000000
665302.000000
666029.000000
666770.000000
667543.000000
668269.000000
668955.000000
669673.000000
670410.000000
671104.000000
671799.000000
672560.000000
673317.000000
674041.000000
674837.000000
675607.000000
676309.000000
677027.000000
677816.000000
678611.000000
679337.000000
680135.000000
681050.000000
681823.000000
682605.000000
683513.000000
684293.000000
685098.000000
686134.000000
686998.000000
687794.000000
688657.000000
689434.000000
690145.000000
690920.000000
691989.000000
692905.000000
693875.000000
694824.000000
695637.000000
696372.000000
697181.000000
698005.000000
698804.000000
699878.000000
700859.000000
701772.000000
702567.000000
703379.000000
704450.000000
705346.000000
706124.000000
706858.000000
707911.000000
708821.000000
709748.000000
710731.000000
711726.000000
712650.000000
713446.000000
714173.000000
714957.000000
715929.000000
716769.000000
717547.000000
718603.000000
719504.000000
720322.000000
721205.000000
722140.000000
722900.000000
723645.000000
724418.000000
725164.000000
725972.000000
726890.000000
727668.000000
728463.000000
729269.000000
730018.000000
730813.000000
731796.000000
732607.000000
733378.000000
734223.000000
735032.000000
735786.000000
736629.000000
737575.000000
738419.000000
739239.000000
740069.000000
740823.000000
741641.000000
742674.000000
743552.000000
744456.000000
745326.000000
746115.000000
746940.000000
747749.000000
748656.000000
749383.000000
750075.000000
750817.000000
751588.000000
752267.000000
752945.000000
753641.000000
754667.000000
755601.000000
756416.000000
757141.000000
757881.000000
758601.000000
759305.000000
760085.000000
761064.000000
761868.000000
762654.000000
763621.000000
764568.000000
765326.000000
766058.000000
766827.000000
767715.000000
768471.000000
769288.000000
770286.000000
771124.000000
771939.000000
772727.000000
773431.000000
774147.000000
774961.000000
775776.000000
776601.000000
777522.000000
778313.000000
779039.000000
779802.000000
780563.000000
781279.000000
782082.000000
782880.000000
783593.000000
784372.000000
785286.000000
786150.000000
786936.000000
787638.000000
788337.000000
789053.000000
789796.000000
790537.000000
791511.000000
792486.000000
793249.000000
793971.000000
794764.000000
795603.000000
796392.000000
797263.000000
798331.000000
799161.000000
799904.000000
800822.000000
801653.000000
802390.000000
803223.000000
804014.000000
804757.000000
805554.000000
806592.000000
807456.000000
808209.000000
809039.000000
809874.000000
810631.000000
811463.000000
812273.000000
813013.000000
813888.000000
814855.000000
815638.000000
816399.000000
817149.000000
817871.000000
818640.000000
819430.000000
820189.000000
821063.000000
822007.000000
822812.000000
823583.000000
824369.000000
825104.000000
825817.000000
826632.000000
827484.000000
828393.000000
829381.000000
830230.000000
830980.000000
831870.000000
832839.000000
833692.000000
834514.000000
835333.000000
836072.000000
836852.000000
837873.000000
838688.000000
839449.000000
840253.000000
841012.000000
841730.000000
842472.000000
843229.000000
843974.000000
844795.000000
845639.000000
846400.000000
847256.000000
848294.000000
849180.000000
850023.000000
850801.000000
851551.000000
852313.000000
853357.000000
854269.000000
855146.000000
855940.000000
856902.000000
857704.000000
858413.000000
859145.000000
860196.000000
861102.000000
862030.000000
862924.000000
863672.000000
864401.000000
865255.000000
866069.000000
866816.000000
867614.000000
868501.000000
869251.000000
870005.000000
871064.000000
871970.000000
872866.000000
873676.000000
874666.000000
875459.000000
876224.000000
877020.000000
877743.000000
878443.000000
879158.000000
879836.000000
880506.000000
881271.000000
882380.000000
883321.000000
884273.000000
885232.000000
886098.000000
886829.000000
887560.000000
888258.000000
888956.000000
889741.000000
890792.000000
891671.000000
892579.000000
893402.000000
894115.000000
894896.000000
895796.000000
896572.000000
897349.000000
898373.000000
899167.000000
899907.000000
900723.000000
