ECG (ms)
26.000000
937.000000
1813.000000
3432.000000
4953.000000
6408.000000
7383.000000
8342.000000
9948.000000
11446.000000
12938.000000
13833.000000
14746.000000
16351.000000
17860.000000
18965.000000
20524.000000
22073.000000
23093.000000
24108.000000
25696.000000
27234.000000
28773.000000
29900.000000
30836.000000
32425.000000
33939.000000
35475.000000
36438.000000
37363.000000
38936.000000
40524.000000
42064.000000
43040.000000
44571.000000
45695.000000
47228.000000
48752.000000
50270.000000
51281.000000
52337.000000
53963.000000
55439.000000
56988.000000
57960.000000
59471.000000
60998.000000
62062.000000
63587.000000
64709.000000
66228.000000
67253.000000
68227.000000
69792.000000
70953.000000
72467.000000
73927.000000
75398.000000
76353.000000
77322.000000
78855.000000
80343.000000
81343.000000
82824.000000
84144.000000
85296.000000
86760.000000
87817.000000
88810.000000
90359.000000
91718.000000
92671.000000
94173.000000
95323.000000
96249.000000
97741.000000
98791.000000
99730.000000
101212.000000
102224.000000
103127.000000
104218.000000
105789.000000
107290.000000
108752.000000
109659.000000
110615.000000
112140.000000
113153.000000
114685.000000
116158.000000
117629.000000
118522.000000
119435.000000
120931.000000
121947.000000
122913.000000
124447.000000
125444.000000
126544.000000
127647.000000
128580.000000
130092.000000
131016.000000
131897.000000
133393.000000
134380.000000
135915.000000
137373.000000
138385.000000
139879.000000
140831.000000
141811.000000
143367.000000
144867.000000
146373.000000
147325.000000
148234.000000
149825.000000
151342.000000
152854.000000
153780.000000
155310.000000
156329.000000
157270.000000
158898.000000
160393.000000
161872.000000
162887.000000
163843.000000
165415.000000
166884.000000
168399.000000
169370.000000
170307.000000
171897.000000
173017.000000
174572.000000
176105.000000
177548.000000
178481.000000
179413.000000
180934.000000
182436.000000
183481.000000
184520.000000
186072.000000
187061.000000
188560.000000
189673.000000
191174.000000
192260.000000
193752.000000
195230.000000
196322.000000
197334.000000
198894.000000
200423.000000
201961.000000
203066.000000
204001.000000
205572.000000
207072.000000
208045.000000
209624.000000
210632.000000
212154.000000
213142.000000
214652.000000
216123.000000
217122.000000
218640.000000
219659.000000
220670.000000
222173.000000
223648.000000
224574.000000
225495.000000
227067.000000
228604.000000
230152.000000
231118.000000
232654.000000
234163.000000
235090.000000
236643.000000
238127.000000
239021.000000
239925.000000
241519.000000
243090.000000
244615.000000
245527.000000
246426.000000
247951.000000
249497.000000
251000.000000
251989.000000
252924.000000
253857.000000
255320.000000
256280.000000
257153.000000
258162.000000
259148.000000
260142.000000
261715.000000
263190.000000
264357.000000
265277.000000
266257.000000
267803.000000
269270.000000
270408.000000
271376.000000
272287.000000
273856.000000
275356.000000
276870.000000
278031.000000
279006.000000
280554.000000
281550.000000
282622.000000
284287.000000
285825.000000
287282.000000
288291.000000
289198.000000
290773.000000
292302.000000
293284.000000
294823.000000
295807.000000
296775.000000
298366.000000
299830.000000
300802.000000
301762.000000
302704.000000
304226.000000
305274.000000
306199.000000
307719.000000
308644.000000
309610.000000
310654.000000
311565.000000
313124.000000
314125.000000
315034.000000
315997.000000
316898.000000
317829.000000
318929.000000
319934.000000
320937.000000
322003.000000
322909.000000
323850.000000
324952.000000
325877.000000
326846.000000
327821.000000
328762.000000
329702.000000
330656.000000
331575.000000
332567.000000
333492.000000
334374.000000
335353.000000
336294.000000
337160.000000
338087.000000
339028.000000
339919.000000
341030.000000
342093.000000
342978.000000
343928.000000
344872.000000
345753.000000
346677.000000
347698.000000
348613.000000
349632.000000
350582.000000
351457.000000
352420.000000
353366.000000
354246.000000
355195.000000
356195.000000
357078.000000
358024.000000
359002.000000
359886.000000
360817.000000
361907.000000
362861.000000
363803.000000
364837.000000
365820.000000
366708.000000
367660.000000
368615.000000
369496.000000
370461.000000
371886.000000
372893.000000
373896.000000
374876.000000
375753.000000
376726.000000
378272.000000
379295.000000
380271.000000
381750.000000
382691.000000
383662.000000
384687.000000
385665.000000
387211.000000
388692.000000
390143.000000
391079.000000
391941.000000
393563.000000
394574.000000
396137.000000
397621.000000
398589.000000
399675.000000
401211.000000
402303.000000
403865.000000
405394.000000
406886.000000
408434.000000
409905.000000
410855.000000
412482.000000
414035.000000
415563.000000
417053.000000
418039.000000
419638.000000
421196.000000
422719.000000
423667.000000
425214.000000
426296.000000
427882.000000
429426.000000
430960.000000
432472.000000
433469.000000
435054.000000
436593.000000
438142.000000
439148.000000
440682.000000
442231.000000
443205.000000
444791.000000
446320.000000
447855.000000
448938.000000
449992.000000
451560.000000
453077.000000
454085.000000
455638.000000
457104.000000
458032.000000
458986.000000
460537.000000
462091.000000
463658.000000
465143.000000
466092.000000
466977.000000
468568.000000
470024.000000
471046.000000
472535.000000
474006.000000
475464.000000
476420.000000
477346.000000
478402.000000
479397.000000
480960.000000
482422.000000
483916.000000
485067.000000
485985.000000
486937.000000
488500.000000
489953.000000
490972.000000
492519.000000
493998.000000
495501.000000
496973.000000
498450.000000
499932.000000
500970.000000
502517.000000
504039.000000
505553.000000
507067.000000
508069.000000
509600.000000
511045.000000
512045.000000
513580.000000
514975.000000
516063.000000
517082.000000
518069.000000
519622.000000
521142.000000
522635.000000
523745.000000
524639.000000
525834.000000
527390.000000
528930.000000
530437.000000
531522.000000
533041.000000
534133.000000
535654.000000
537097.000000
538575.000000
539542.000000
540502.000000
542039.000000
543567.000000
545101.000000
546597.000000
548098.000000
549576.000000
551043.000000
552152.000000
553117.000000
554714.000000
556241.000000
557756.000000
559246.000000
560224.000000
561721.000000
563230.000000
564724.000000
566195.000000
567157.000000
568706.000000
570110.000000
571036.000000
572553.000000
573988.000000
575484.000000
576941.000000
577900.000000
578907.000000
580453.000000
581959.000000
583465.000000
584745.000000
586191.000000
587658.000000
588657.000000
590201.000000
591665.000000
592607.000000
594117.000000
595561.000000
597050.000000
598446.000000
599418.000000
600894.000000
602244.000000
603434.000000
604896.000000
605875.000000
606917.000000
608421.000000
609918.000000
611382.000000
612339.000000
613375.000000
614861.000000
616345.000000
617701.000000
618744.000000
619879.000000
621025.000000
622483.000000
623827.000000
624795.000000
625852.000000
627310.000000
628324.000000
629354.000000
630830.000000
631888.000000
632882.000000
634337.000000
635348.000000
636845.000000
638282.000000
639360.000000
640385.000000
641297.000000
642833.000000
644299.000000
645231.000000
646149.000000
647202.000000
648147.000000
649749.000000
651235.000000
652233.000000
653249.000000
654193.000000
655713.000000
657157.000000
658620.000000
659979.000000
660896.000000
662373.000000
663843.000000
665251.000000
666699.000000
667847.000000
669319.000000
670506.000000
671989.000000
673471.000000
674590.000000
675632.000000
677158.000000
678686.000000
680174.000000
681168.000000
682135.000000
683229.000000
684866.000000
686397.000000
687934.000000
689404.000000
690360.000000
691881.000000
693335.000000
694834.000000
696315.000000
697741.000000
699155.000000
700106.000000
701597.000000
703012.000000
703953.000000
705504.000000
706903.000000
707885.000000
709362.000000
710385.000000
711458.000000
712963.000000
714447.000000
715936.000000
716923.000000
718400.000000
719871.000000
721351.000000
722827.000000
723800.000000
725362.000000
726881.000000
728384.000000
729844.000000
730778.000000
732266.000000
733698.000000
734677.000000
736253.000000
737594.000000
738616.000000
740098.000000
741212.000000
742253.000000
743289.000000
744245.000000
745747.000000
747194.000000
748159.000000
749059.000000
750000.000000
751039.000000
752589.000000
753704.000000
755227.000000
756642.000000
757580.000000
758557.000000
760100.000000
761569.000000
763070.000000
763980.000000
764921.000000
766511.000000
768099.000000
769638.000000
770578.000000
772117.000000
773616.000000
774575.000000
775524.000000
776482.000000
777471.000000
779066.000000
780479.000000
781973.000000
782945.000000
783813.000000
785299.000000
786776.000000
787780.000000
789314.000000
790475.000000
791969.000000
793109.000000
794005.000000
795525.000000
797021.000000
798033.000000
799565.000000
800985.000000
802469.000000
803386.000000
804298.000000
805817.000000
806994.000000
808503.000000
809545.000000
810467.000000
811991.000000
812973.000000
813926.000000
815438.000000
816433.000000
817960.000000
818986.000000
819926.000000
821428.000000
822856.000000
823837.000000
824764.000000
825811.000000
826846.000000
828437.000000
829928.000000
831087.000000
832541.000000
833429.000000
834370.000000
835910.000000
836908.000000
838487.000000
840029.000000
841481.000000
842486.000000
843418.000000
844954.000000
845949.000000
846961.000000
848523.000000
849519.000000
851055.000000
852525.000000
853495.000000
855019.000000
856469.000000
857397.000000
858410.000000
859991.000000
861527.000000
862575.000000
863576.000000
865139.000000
866114.000000
867041.000000
868588.000000
869649.000000
870612.000000
872158.000000
873163.000000
874086.000000
875600.000000
876538.000000
877487.000000
878995.000000
879922.000000
880956.000000
882429.000000
883419.000000
884892.000000
885815.000000
886665.000000
887475.000000
888422.000000
889968.000000
891440.000000
892917.000000
893960.000000
895452.000000
896532.000000
897421.000000
898332.000000
899897.000000
