ECG (ms)
475.000000
1487.000000
2306.000000
3103.000000
3863.000000
4652.000000
5430.000000
6223.000000
7083.000000
8287.000000
9386.000000
10314.000000
11153.000000
11941.000000
12638.000000
13907.000000
15015.000000
16095.000000
17123.000000
18169.000000
19094.000000
19951.000000
20889.000000
21953.000000
22897.000000
24231.000000
25189.000000
26030.000000
26869.000000
27765.000000
28595.000000
30003.000000
31347.000000
32350.000000
33156.000000
33968.000000
35386.000000
36484.000000
37494.000000
38883.000000
40097.000000
41005.000000
41829.000000
43153.000000
44113.000000
45146.000000
46491.000000
47636.000000
48885.000000
49932.000000
50738.000000
51564.000000
52513.000000
53388.000000
54755.000000
56014.000000
57093.000000
58117.000000
59011.000000
59906.000000
60917.000000
61904.000000
62804.000000
63766.000000
64680.000000
65524.000000
66409.000000
67301.000000
68140.000000
68985.000000
69867.000000
70780.000000
71623.000000
72407.000000
73227.000000
74497.000000
75472.000000
76311.000000
77146.000000
77956.000000
78841.000000
80180.000000
81395.000000
82302.000000
83095.000000
84001.000000
84831.000000
85838.000000
87181.000000
88309.000000
89259.000000
90211.000000
91193.000000
92073.000000
93033.000000
93977.000000
94844.000000
95825.000000
96797.000000
97679.000000
98631.000000
99537.000000
100369.000000
101139.000000
101813.000000
102495.000000
103311.000000
104138.000000
105159.000000
106396.000000
107335.000000
108134.000000
108954.000000
109742.000000
110501.000000
111756.000000
112924.000000
113790.000000
114584.000000
115420.000000
116247.000000
117037.000000
118347.000000
119541.000000
120579.000000
121548.000000
122452.000000
123276.000000
124099.000000
125112.000000
126037.000000
127137.000000
128132.000000
128997.000000
129905.000000
130836.000000
131693.000000
132630.000000
133840.000000
134848.000000
135777.000000
136715.000000
137579.000000
138536.000000
139541.000000
140494.000000
141481.000000
142549.000000
143515.000000
144406.000000
145354.000000
146286.000000
147144.000000
148078.000000
149048.000000
149929.000000
150896.000000
151897.000000
152820.000000
153771.000000
154702.000000
155558.000000
156444.000000
157369.000000
158212.000000
159028.000000
160003.000000
160874.000000
161674.000000
162624.000000
163616.000000
164432.000000
165269.000000
166129.000000
166909.000000
167718.000000
168573.000000
169431.000000
170300.000000
171423.000000
172402.000000
173340.000000
174168.000000
174924.000000
175684.000000
176503.000000
177365.000000
178682.000000
179814.000000
180734.000000
181574.000000
182356.000000
183102.000000
183978.000000
185272.000000
186258.000000
187207.000000
188102.000000
188893.000000
189755.000000
191019.000000
192004.000000
192889.000000
193701.000000
194478.000000
195353.000000
196680.000000
197706.000000
198698.000000
199648.000000
200549.000000
201481.000000
202393.000000
203284.000000
204267.000000
205226.000000
206125.000000
207062.000000
207993.000000
208875.000000
209824.000000
210723.000000
211567.000000
212340.000000
213078.000000
213786.000000
214456.000000
215188.000000
215987.000000
216844.000000
217610.000000
218369.000000
219265.000000
220111.000000
220862.000000
221619.000000
222384.000000
223165.000000
223913.000000
224698.000000
225599.000000
226549.000000
227393.000000
228378.000000
229225.000000
230003.000000
230772.000000
231588.000000
232872.000000
234008.000000
235027.000000
235916.000000
236841.000000
237832.000000
238791.000000
239850.000000
240835.000000
241725.000000
242635.000000
243541.000000
244409.000000
245345.000000
246311.000000
247192.000000
248174.000000
249182.000000
250065.000000
250990.000000
251939.000000
252850.000000
253821.000000
254776.000000
255661.000000
256600.000000
257568.000000
258431.000000
259352.000000
260299.000000
261165.000000
262014.000000
262934.000000
263753.000000
264562.000000
265475.000000
266612.000000
267633.000000
268711.000000
269592.000000
270381.000000
271306.000000
272595.000000
273620.000000
274611.000000
275512.000000
276348.000000
277228.000000
278254.000000
279141.000000
280170.000000
281173.000000
281983.000000
282804.000000
283809.000000
284607.000000
285435.000000
286712.000000
287735.000000
288627.000000
289559.000000
290544.000000
291488.000000
292712.000000
293841.000000
294759.000000
295597.000000
296413.000000
297185.000000
298562.000000
299774.000000
300752.000000
301643.000000
302534.000000
303336.000000
304339.000000
305645.000000
306770.000000
307894.000000
308866.000000
309763.000000
310660.000000
311743.000000
313011.000000
314012.000000
314819.000000
315649.000000
316582.000000
317882.000000
318948.000000
319968.000000
320949.000000
321841.000000
322803.000000
323824.000000
324726.000000
325664.000000
326580.000000
327390.000000
328172.000000
329018.000000
329911.000000
330734.000000
332001.000000
333098.000000
333966.000000
334763.000000
335560.000000
336332.000000
337177.000000
338501.000000
339564.000000
340457.000000
341266.000000
342084.000000
342891.000000
343799.000000
345033.000000
346022.000000
346936.000000
347783.000000
348553.000000
349354.000000
350326.000000
351357.000000
352183.000000
353088.000000
354045.000000
354941.000000
355990.000000
356972.000000
357795.000000
358610.000000
359468.000000
360273.000000
361184.000000
362511.000000
363596.000000
364565.000000
365477.000000
366320.000000
367131.000000
368081.000000
369358.000000
370400.000000
371420.000000
372357.000000
373181.000000
373946.000000
374764.000000
375747.000000
377026.000000
378233.000000
379138.000000
379961.000000
380820.000000
381612.000000
382432.000000
383414.000000
384397.000000
385210.000000
386043.000000
386889.000000
387696.000000
388492.000000
389515.000000
390726.000000
391733.000000
392680.000000
393545.000000
394302.000000
395110.000000
396011.000000
396911.000000
397746.000000
398804.000000
399907.000000
400749.000000
401537.000000
402353.000000
403179.000000
404034.000000
405430.000000
406559.000000
407553.000000
408466.000000
409269.000000
410034.000000
410834.000000
411737.000000
413030.000000
414232.000000
415148.000000
415934.000000
416759.000000
418093.000000
419261.000000
420256.000000
421086.000000
421904.000000
423223.000000
424247.000000
425215.000000
426230.000000
427169.000000
428090.000000
429166.000000
430142.000000
431030.000000
431947.000000
432847.000000
433653.000000
434509.000000
435813.000000
436886.000000
437892.000000
438815.000000
439656.000000
440469.000000
441348.000000
442310.000000
443129.000000
444072.000000
445133.000000
446017.000000
446818.000000
447628.000000
448401.000000
449144.000000
450030.000000
451231.000000
452217.000000
453182.000000
454098.000000
454920.000000
455675.000000
456460.000000
457310.000000
458120.000000
458854.000000
459555.000000
460235.000000
460916.000000
462199.000000
463254.000000
464163.000000
464995.000000
465800.000000
466549.000000
467326.000000
468139.000000
468987.000000
469748.000000
470507.000000
471287.000000
472054.000000
472782.000000
473585.000000
474810.000000
475736.000000
476545.000000
477308.000000
478108.000000
478894.000000
480134.000000
481298.000000
482209.000000
483034.000000
483845.000000
484597.000000
485392.000000
486729.000000
487747.000000
488661.000000
489587.000000
490456.000000
491333.000000
492333.000000
493261.000000
494146.000000
495076.000000
495981.000000
496782.000000
497586.000000
498420.000000
499223.000000
500075.000000
501071.000000
502111.000000
502991.000000
503851.000000
504774.000000
505548.000000
506377.000000
507643.000000
508630.000000
509607.000000
510616.000000
511552.000000
512675.000000
513848.000000
514814.000000
515773.000000
516677.000000
517529.000000
518388.000000
519337.000000
520184.000000
521135.000000
522410.000000
523433.000000
524365.000000
525239.000000
526016.000000
526825.000000
528188.000000
529157.000000
530117.000000
531176.000000
532136.000000
533279.000000
534464.000000
535433.000000
536440.000000
537421.000000
538326.000000
539344.000000
540294.000000
541239.000000
542557.000000
543638.000000
544498.000000
545315.000000
546168.000000
546997.000000
548342.000000
549408.000000
550316.000000
551222.000000
552308.000000
553395.000000
554738.000000
555762.000000
556718.000000
557777.000000
558640.000000
559453.000000
560739.000000
561925.000000
562866.000000
563801.000000
565150.000000
566371.000000
567559.000000
568637.000000
569720.000000
570854.000000
571922.000000
572987.000000
574079.000000
575048.000000
575844.000000
576691.000000
578038.000000
578936.000000
579722.000000
580619.000000
581600.000000
582509.000000
583813.000000
584916.000000
585791.000000
586586.000000
587423.000000
588236.000000
589602.000000
590834.000000
591720.000000
592530.000000
593394.000000
594221.000000
595028.000000
596347.000000
597444.000000
598287.000000
599020.000000
599694.000000
600373.000000
601079.000000
601741.000000
602445.000000
603738.000000
604788.000000
605623.000000
606418.000000
607238.000000
607984.000000
608724.000000
609531.000000
610388.000000
611160.000000
611944.000000
612913.000000
613886.000000
614677.000000
615495.000000
616292.000000
617067.000000
617837.000000
618667.000000
619785.000000
620719.000000
621587.000000
622425.000000
623221.000000
624017.000000
625382.000000
626560.000000
627528.000000
628437.000000
629273.000000
630045.000000
630801.000000
631656.000000
632974.000000
634019.000000
635077.000000
636092.000000
636963.000000
637832.000000
638671.000000
639450.000000
640213.000000
641504.000000
642538.000000
643431.000000
644298.000000
645135.000000
645928.000000
646834.000000
648135.000000
649110.000000
649971.000000
650768.000000
651530.000000
652351.000000
653752.000000
654726.000000
655673.000000
656600.000000
657389.000000
658209.000000
659065.000000
659940.000000
660734.000000
661572.000000
662545.000000
663514.000000
664322.000000
665150.000000
665971.000000
666765.000000
667594.000000
668879.000000
669850.000000
670809.000000
671879.000000
672788.000000
673725.000000
674834.000000
675798.000000
676847.000000
678033.000000
679004.000000
679964.000000
680940.000000
681820.000000
682776.000000
683866.000000
684822.000000
685985.000000
686997.000000
687884.000000
688748.000000
689605.000000
690431.000000
691748.000000
692858.000000
693781.000000
694617.000000
695467.000000
696306.000000
697651.000000
698808.000000
699749.000000
700567.000000
701412.000000
702214.000000
703542.000000
704708.000000
705753.000000
706728.000000
707622.000000
708466.000000
709740.000000
710782.000000
711679.000000
712611.000000
713558.000000
714510.000000
715896.000000
717042.000000
718006.000000
718849.000000
719629.000000
720453.000000
721396.000000
722703.000000
723845.000000
724885.000000
725730.000000
726523.000000
727341.000000
728162.000000
728953.000000
729893.000000
731131.000000
732081.000000
732986.000000
733821.000000
734582.000000
735346.000000
736259.000000
737283.000000
738186.000000
739100.000000
739984.000000
740761.000000
741560.000000
742352.000000
743141.000000
743923.000000
745158.000000
746217.000000
747080.000000
747890.000000
748707.000000
749525.000000
750324.000000
751634.000000
752804.000000
753679.000000
754509.000000
755332.000000
756144.000000
756966.000000
758339.000000
759525.000000
760508.000000
761475.000000
762426.000000
763276.000000
764094.000000
765069.000000
766127.000000
767006.000000
767862.000000
768642.000000
769358.000000
770075.000000
770825.000000
771633.000000
772903.000000
774021.000000
774866.000000
775641.000000
776410.000000
777141.000000
777908.000000
779221.000000
780399.000000
781301.000000
782164.000000
783083.000000
783915.000000
784830.000000
786045.000000
787006.000000
787947.000000
788878.000000
789731.000000
790668.000000
791972.000000
793080.000000
794175.000000
795132.000000
796016.000000
796942.000000
797907.000000
798785.000000
799731.000000
800777.000000
801667.000000
802568.000000
803466.000000
804279.000000
805042.000000
805846.000000
807208.000000
808280.000000
809154.000000
809981.000000
810828.000000
811622.000000
812398.000000
813304.000000
814511.000000
815408.000000
816206.000000
817010.000000
817785.000000
818741.000000
820057.000000
821014.000000
821893.000000
822809.000000
823810.000000
825098.000000
826329.000000
827262.000000
828141.000000
829043.000000
829843.000000
830667.000000
831552.000000
832426.000000
833398.000000
834604.000000
835554.000000
836371.000000
837162.000000
837961.000000
838735.000000
839657.000000
841028.000000
841952.000000
842775.000000
843625.000000
844413.000000
845237.000000
846134.000000
847022.000000
847858.000000
848732.000000
849651.000000
850539.000000
851329.000000
852114.000000
852969.000000
853852.000000
854671.000000
855439.000000
856315.000000
857156.000000
857943.000000
858698.000000
859507.000000
860293.000000
861042.000000
861854.000000
863137.000000
864107.000000
864984.000000
865794.000000
866559.000000
867346.000000
868742.000000
869814.000000
870877.000000
872002.000000
872907.000000
873712.000000
874558.000000
875497.000000
876321.000000
877221.000000
878377.000000
879286.000000
880084.000000
880877.000000
881649.000000
882412.000000
883148.000000
884407.000000
885274.000000
886013.000000
886880.000000
888129.000000
889196.000000
890079.000000
890895.000000
891728.000000
892473.000000
893192.000000
893972.000000
894800.000000
895753.000000
896931.000000
897999.000000
898883.000000
899657.000000
900451.000000
901297.000000
902554.000000
903586.000000
904547.000000
905481.000000
906422.000000
907280.000000
908204.000000
909446.000000
910511.000000
