ECG (ms)
960.000000
2128.000000
3272.000000
4327.000000
5432.000000
6537.000000
7580.000000
8648.000000
9824.000000
10981.000000
12072.000000
13221.000000
14408.000000
15486.000000
16625.000000
17879.000000
19023.000000
20146.000000
21310.000000
22446.000000
23553.000000
24748.000000
25921.000000
27021.000000
28219.000000
29358.000000
30409.000000
31543.000000
32699.000000
33748.000000
34815.000000
35957.000000
37013.000000
38113.000000
39270.000000
40317.000000
41436.000000
42556.000000
43562.000000
44605.000000
45673.000000
46621.000000
47611.000000
48700.000000
49706.000000
50800.000000
51872.000000
52836.000000
53843.000000
54861.000000
55778.000000
56584.000000
57337.000000
58068.000000
59276.000000
60251.000000
61298.000000
62401.000000
63475.000000
64469.000000
65526.000000
66605.000000
67603.000000
68561.000000
69445.000000
70245.000000
71177.000000
72270.000000
73253.000000
74369.000000
75504.000000
76522.000000
77608.000000
78741.000000
79755.000000
80872.000000
82045.000000
83112.000000
84255.000000
85399.000000
86459.000000
87559.000000
88691.000000
89766.000000
90917.000000
92034.000000
93083.000000
94238.000000
95411.000000
96491.000000
97642.000000
98822.000000
99883.000000
100974.000000
102142.000000
103297.000000
104343.000000
105465.000000
106695.000000
107876.000000
108947.000000
110079.000000
111288.000000
112408.000000
113572.000000
114774.000000
115869.000000
116998.000000
118127.000000
119207.000000
120361.000000
121534.000000
122566.000000
123601.000000
124774.000000
125929.000000
126986.000000
128151.000000
129308.000000
130396.000000
131550.000000
132734.000000
133849.000000
134981.000000
136163.000000
137254.000000
138337.000000
139458.000000
140484.000000
141471.000000
142356.000000
143249.000000
144457.000000
145381.000000
146294.000000
147394.000000
148392.000000
149500.000000
150604.000000
151597.000000
152653.000000
153656.000000
154549.000000
155409.000000
156434.000000
157441.000000
158291.000000
159221.000000
160212.000000
161190.000000
162351.000000
163417.000000
164404.000000
165466.000000
166556.000000
167577.000000
168535.000000
169589.000000
170732.000000
171755.000000
172815.000000
173933.000000
175024.000000
176058.000000
177161.000000
178320.000000
179396.000000
180492.000000
181606.000000
182642.000000
183593.000000
184695.000000
185948.000000
187071.000000
188217.000000
189393.000000
190542.000000
191626.000000
192725.000000
193841.000000
194933.000000
195966.000000
197040.000000
198198.000000
199267.000000
200385.000000
201567.000000
202633.000000
203671.000000
204816.000000
205960.000000
207002.000000
208136.000000
209271.000000
210336.000000
211455.000000
212603.000000
213706.000000
214734.000000
215826.000000
216974.000000
218045.000000
219172.000000
220305.000000
221367.000000
222467.000000
223598.000000
224654.000000
225765.000000
226893.000000
227939.000000
229037.000000
230190.000000
231275.000000
232373.000000
233494.000000
234599.000000
235640.000000
236645.000000
237701.000000
238767.000000
239766.000000
240759.000000
241853.000000
242945.000000
243935.000000
245014.000000
246111.000000
247104.000000
248166.000000
249187.000000
250124.000000
251090.000000
252083.000000
253009.000000
253980.000000
255009.000000
255967.000000
257007.000000
258047.000000
259018.000000
260046.000000
261109.000000
262090.000000
263104.000000
264143.000000
265132.000000
266149.000000
267236.000000
268244.000000
269301.000000
270396.000000
271386.000000
272404.000000
273461.000000
274458.000000
275483.000000
276603.000000
277631.000000
278687.000000
279780.000000
280774.000000
281852.000000
282943.000000
283934.000000
284980.000000
286070.000000
287066.000000
288148.000000
289272.000000
290305.000000
291347.000000
292448.000000
293464.000000
294506.000000
295651.000000
296766.000000
297815.000000
298982.000000
300151.000000
301215.000000
302359.000000
303500.000000
304586.000000
305752.000000
306917.000000
307987.000000
309071.000000
310172.000000
311171.000000
312184.000000
313351.000000
314445.000000
315493.000000
316634.000000
317756.000000
318773.000000
319877.000000
321005.000000
322047.000000
323149.000000
324301.000000
325343.000000
326459.000000
327596.000000
328652.000000
329775.000000
330901.000000
331953.000000
333015.000000
334114.000000
335190.000000
336251.000000
337377.000000
338509.000000
339547.000000
340658.000000
341793.000000
342866.000000
343928.000000
345079.000000
346227.000000
347260.000000
348355.000000
349490.000000
350533.000000
351609.000000
352712.000000
353739.000000
354799.000000
355864.000000
356827.000000
357849.000000
358945.000000
359946.000000
360949.000000
362031.000000
363101.000000
364102.000000
365093.000000
366105.000000
367066.000000
368036.000000
369144.000000
370196.000000
371163.000000
372188.000000
373231.000000
374200.000000
375241.000000
376326.000000
377326.000000
378286.000000
379161.000000
379944.000000
380746.000000
381599.000000
382451.000000
383671.000000
384771.000000
385726.000000
386721.000000
387766.000000
388704.000000
389737.000000
390882.000000
391929.000000
392912.000000
394015.000000
395122.000000
396134.000000
397185.000000
398160.000000
399098.000000
399958.000000
400796.000000
402063.000000
403073.000000
404187.000000
405330.000000
406354.000000
407454.000000
408577.000000
409603.000000
410676.000000
411769.000000
412773.000000
413903.000000
415079.000000
416159.000000
417273.000000
418410.000000
419490.000000
420541.000000
421678.000000
422814.000000
423855.000000
424949.000000
426105.000000
427223.000000
428348.000000
429537.000000
430648.000000
431689.000000
432817.000000
433973.000000
435008.000000
436075.000000
437237.000000
438371.000000
439349.000000
440366.000000
441508.000000
442553.000000
443711.000000
444876.000000
445917.000000
447044.000000
448207.000000
449239.000000
450310.000000
451409.000000
452433.000000
453541.000000
454650.000000
455666.000000
456751.000000
457854.000000
458884.000000
459967.000000
461067.000000
462084.000000
463176.000000
464301.000000
465373.000000
466473.000000
467585.000000
468613.000000
469688.000000
470818.000000
471941.000000
472986.000000
474074.000000
475167.000000
476161.000000
477215.000000
478499.000000
479595.000000
480606.000000
481723.000000
482867.000000
483890.000000
484968.000000
486018.000000
487008.000000
488074.000000
489178.000000
490178.000000
491195.000000
492284.000000
493323.000000
494299.000000
495384.000000
496472.000000
497507.000000
498559.000000
499589.000000
500544.000000
501583.000000
502665.000000
503683.000000
504750.000000
505865.000000
506921.000000
507959.000000
509033.000000
510076.000000
511028.000000
512036.000000
513089.000000
514069.000000
515126.000000
516288.000000
517335.000000
518453.000000
519608.000000
520661.000000
521760.000000
522891.000000
523962.000000
525087.000000
526272.000000
527416.000000
528486.000000
529625.000000
530777.000000
531864.000000
532961.000000
534140.000000
535278.000000
536344.000000
537413.000000
538532.000000
539580.000000
540537.000000
541521.000000
542386.000000
543284.000000
544256.000000
545364.000000
546502.000000
547489.000000
548549.000000
549459.000000
550272.000000
551218.000000
552103.000000
553255.000000
554395.000000
555426.000000
556642.000000
557804.000000
558832.000000
559920.000000
561032.000000
562063.000000
563169.000000
564279.000000
565300.000000
566335.000000
567489.000000
568576.000000
569590.000000
570721.000000
571833.000000
572867.000000
573946.000000
575063.000000
576106.000000
577203.000000
578324.000000
579423.000000
580448.000000
581506.000000
582601.000000
583623.000000
584729.000000
585886.000000
586950.000000
588047.000000
589201.000000
590261.000000
591318.000000
592442.000000
593449.000000
594421.000000
595599.000000
596743.000000
597766.000000
598922.000000
600081.000000
601131.000000
602233.000000
603353.000000
604402.000000
605489.000000
606616.000000
607668.000000
608780.000000
609951.000000
611059.000000
612161.000000
613330.000000
614502.000000
615563.000000
616577.000000
617721.000000
618864.000000
619923.000000
621041.000000
622206.000000
623266.000000
624308.000000
625415.000000
626544.000000
627594.000000
628702.000000
629857.000000
630935.000000
632077.000000
633261.000000
634404.000000
635483.000000
636526.000000
637643.000000
638766.000000
639802.000000
640894.000000
642045.000000
643095.000000
644158.000000
645301.000000
646401.000000
647396.000000
648315.000000
649106.000000
650362.000000
651357.000000
652410.000000
653566.000000
654626.000000
655719.000000
656860.000000
657973.000000
659025.000000
660102.000000
661213.000000
662300.000000
663314.000000
664345.000000
665498.000000
666664.000000
667767.000000
668930.000000
670100.000000
671205.000000
672297.000000
673450.000000
674598.000000
675662.000000
676764.000000
677931.000000
679005.000000
680112.000000
681278.000000
682397.000000
683435.000000
684523.000000
685663.000000
686756.000000
687917.000000
689107.000000
690248.000000
691335.000000
692490.000000
693612.000000
694628.000000
695590.000000
696764.000000
697885.000000
698910.000000
700043.000000
701272.000000
702351.000000
703493.000000
704627.000000
705681.000000
706753.000000
707866.000000
708953.000000
709990.000000
711029.000000
712144.000000
713272.000000
714319.000000
715401.000000
716509.000000
717575.000000
718550.000000
719423.000000
720205.000000
721573.000000
722726.000000
723722.000000
724792.000000
725941.000000
727000.000000
728022.000000
729090.000000
730159.000000
731166.000000
732260.000000
733480.000000
734665.000000
735727.000000
736840.000000
737938.000000
738929.000000
739954.000000
741192.000000
742361.000000
743342.000000
744268.000000
745077.000000
746373.000000
747448.000000
748433.000000
749570.000000
750753.000000
751786.000000
752844.000000
753938.000000
754980.000000
755920.000000
756802.000000
757771.000000
758815.000000
759730.000000
760727.000000
761910.000000
763000.000000
763994.000000
765006.000000
766093.000000
767170.000000
768138.000000
769229.000000
770392.000000
771399.000000
772508.000000
773696.000000
774729.000000
775798.000000
776912.000000
777925.000000
778964.000000
780084.000000
781182.000000
782176.000000
783242.000000
784351.000000
785459.000000
786440.000000
787414.000000
788504.000000
789565.000000
790552.000000
791568.000000
792691.000000
793798.000000
794823.000000
795898.000000
797028.000000
798074.000000
799145.000000
800253.000000
801284.000000
802236.000000
803272.000000
804229.000000
805125.000000
805946.000000
807365.000000
808411.000000
809534.000000
810690.000000
811804.000000
812807.000000
813830.000000
814930.000000
816007.000000
816977.000000
818025.000000
819171.000000
820233.000000
821274.000000
822395.000000
823512.000000
824523.000000
825441.000000
826371.000000
827592.000000
828654.000000
829791.000000
830974.000000
832137.000000
833199.000000
834340.000000
835485.000000
836555.000000
837666.000000
838849.000000
840005.000000
841092.000000
842175.000000
843343.000000
844481.000000
845550.000000
846652.000000
847803.000000
848959.000000
850019.000000
851125.000000
852298.000000
853407.000000
854447.000000
855590.000000
856808.000000
857888.000000
858956.000000
860140.000000
861270.000000
862297.000000
863386.000000
864513.000000
865494.000000
866533.000000
867637.000000
868687.000000
869766.000000
870969.000000
872089.000000
873127.000000
874147.000000
875236.000000
876262.000000
877200.000000
878112.000000
879127.000000
880201.000000
881191.000000
882211.000000
883279.000000
884338.000000
885347.000000
886369.000000
887392.000000
888355.000000
889306.000000
890323.000000
891396.000000
892421.000000
893460.000000
894502.000000
895482.000000
896413.000000
897406.000000
898455.000000
899442.000000
900474.000000
