ECG (ms)
650.000000
1458.000000
2259.000000
3006.000000
3731.000000
4499.000000
5319.000000
6170.000000
6972.000000
7723.000000
8475.000000
9288.000000
10152.000000
11011.000000
11790.000000
12545.000000
13328.000000
14161.000000
14984.000000
15755.000000
16485.000000
17230.000000
18014.000000
18834.000000
19652.000000
20432.000000
21192.000000
21978.000000
22788.000000
23608.000000
24399.000000
25170.000000
25946.000000
26751.000000
27557.000000
28348.000000
29106.000000
29856.000000
30645.000000
31453.000000
32275.000000
33066.000000
33832.000000
34620.000000
35413.000000
36200.000000
36977.000000
37730.000000
38468.000000
39250.000000
40075.000000
40923.000000
41758.000000
42551.000000
43318.000000
44095.000000
44906.000000
45718.000000
46522.000000
47292.000000
48058.000000
48851.000000
49673.000000
50492.000000
51279.000000
52037.000000
52804.000000
53631.000000
54478.000000
55312.000000
56109.000000
56903.000000
57705.000000
58511.000000
59318.000000
60112.000000
60893.000000
61706.000000
62529.000000
63335.000000
64108.000000
64840.000000
65556.000000
66286.000000
67107.000000
68009.000000
68898.000000
69737.000000
70552.000000
71396.000000
72247.000000
73099.000000
73917.000000
74714.000000
75515.000000
76337.000000
77155.000000
77946.000000
78720.000000
79507.000000
80350.000000
81190.000000
82040.000000
82847.000000
83622.000000
84373.000000
85148.000000
85956.000000
86789.000000
87592.000000
88375.000000
89186.000000
90046.000000
90878.000000
91679.000000
92456.000000
93210.000000
94019.000000
94849.000000
95683.000000
96508.000000
97315.000000
98097.000000
98894.000000
99749.000000
100613.000000
101466.000000
102289.000000
103067.000000
103822.000000
104577.000000
105364.000000
106195.000000
107048.000000
107880.000000
108691.000000
109534.000000
110395.000000
111227.000000
112023.000000
112768.000000
113531.000000
114346.000000
115181.000000
115989.000000
116773.000000
117566.000000
118391.000000
119242.000000
120046.000000
120816.000000
121578.000000
122348.000000
123121.000000
123891.000000
124644.000000
125402.000000
126184.000000
126973.000000
127717.000000
128415.000000
129083.000000
129746.000000
130422.000000
131150.000000
131919.000000
132707.000000
133494.000000
134269.000000
135024.000000
135760.000000
136517.000000
137317.000000
138148.000000
138972.000000
139768.000000
140543.000000
141292.000000
142042.000000
142826.000000
143616.000000
144415.000000
145194.000000
145935.000000
146661.000000
147422.000000
148210.000000
149027.000000
149834.000000
150612.000000
151362.000000
152106.000000
152851.000000
153616.000000
154392.000000
155169.000000
155930.000000
156682.000000
157485.000000
158302.000000
159130.000000
159921.000000
160681.000000
161446.000000
162224.000000
163050.000000
163870.000000
164616.000000
165362.000000
166158.000000
167027.000000
167911.000000
168771.000000
169615.000000
170491.000000
171369.000000
172246.000000
173083.000000
173902.000000
174732.000000
175570.000000
176415.000000
177213.000000
177972.000000
178783.000000
179620.000000
180447.000000
181235.000000
182003.000000
182807.000000
183610.000000
184431.000000
185213.000000
185957.000000
186703.000000
187483.000000
188336.000000
189166.000000
189937.000000
190687.000000
191452.000000
192244.000000
193044.000000
193830.000000
194602.000000
195380.000000
196212.000000
197051.000000
197877.000000
198663.000000
199417.000000
200154.000000
200894.000000
201698.000000
202534.000000
203366.000000
204139.000000
204885.000000
205668.000000
206497.000000
207370.000000
208227.000000
209031.000000
209810.000000
210614.000000
211482.000000
212365.000000
213206.000000
214006.000000
214786.000000
215567.000000
216359.000000
217192.000000
218021.000000
218796.000000
219553.000000
220332.000000
221120.000000
221901.000000
222693.000000
223464.000000
224206.000000
224965.000000
225750.000000
226532.000000
227322.000000
228073.000000
228790.000000
229516.000000
230287.000000
231120.000000
231981.000000
232818.000000
233590.000000
234321.000000
235041.000000
235818.000000
236679.000000
237552.000000
238422.000000
239244.000000
239998.000000
240748.000000
241544.000000
242329.000000
243159.000000
243999.000000
244826.000000
245582.000000
246294.000000
247029.000000
247884.000000
248782.000000
249656.000000
250456.000000
251203.000000
251939.000000
252704.000000
253520.000000
254372.000000
255222.000000
256013.000000
256793.000000
257616.000000
258486.000000
259353.000000
260169.000000
260924.000000
261650.000000
262407.000000
263231.000000
264080.000000
264898.000000
265658.000000
266414.000000
267237.000000
268098.000000
268953.000000
269749.000000
270519.000000
271296.000000
272122.000000
272954.000000
273775.000000
274563.000000
275312.000000
276043.000000
276796.000000
277565.000000
278332.000000
279096.000000
279821.000000
280529.000000
281255.000000
282022.000000
282811.000000
283612.000000
284405.000000
285179.000000
285935.000000
286725.000000
287530.000000
288333.000000
289114.000000
289856.000000
290606.000000
291381.000000
292167.000000
292954.000000
293749.000000
294514.000000
295266.000000
296039.000000
296820.000000
297625.000000
298412.000000
299200.000000
299979.000000
300764.000000
301531.000000
302304.000000
303104.000000
303913.000000
304714.000000
305528.000000
306321.000000
307079.000000
307821.000000
308609.000000
309382.000000
310153.000000
310937.000000
311673.000000
312404.000000
313157.000000
313936.000000
314734.000000
315545.000000
316325.000000
317068.000000
317832.000000
318599.000000
319369.000000
320141.000000
320919.000000
321744.000000
322588.000000
323395.000000
324172.000000
324923.000000
325670.000000
326397.000000
327120.000000
327873.000000
328667.000000
329463.000000
330235.000000
330989.000000
331710.000000
332405.000000
333102.000000
333831.000000
334609.000000
335410.000000
336179.000000
336949.000000
337726.000000
338503.000000
339263.000000
340011.000000
340764.000000
341542.000000
342353.000000
343177.000000
343991.000000
344773.000000
345521.000000
346283.000000
347069.000000
347849.000000
348606.000000
349331.000000
350038.000000
350819.000000
351702.000000
352582.000000
353412.000000
354170.000000
354911.000000
355694.000000
356506.000000
357325.000000
358109.000000
358905.000000
359745.000000
360558.000000
361360.000000
362177.000000
362979.000000
363746.000000
364525.000000
365280.000000
366037.000000
366785.000000
367530.000000
368284.000000
369038.000000
369786.000000
370519.000000
371231.000000
371950.000000
372676.000000
373420.000000
374149.000000
374863.000000
375601.000000
376350.000000
377111.000000
377876.000000
378621.000000
379359.000000
380117.000000
380865.000000
381621.000000
382353.000000
383099.000000
383868.000000
384640.000000
385406.000000
386141.000000
386856.000000
387578.000000
388310.000000
389052.000000
389821.000000
390579.000000
391335.000000
392103.000000
392835.000000
393526.000000
394187.000000
394847.000000
395521.000000
396204.000000
396905.000000
397619.000000
398358.000000
399089.000000
399792.000000
400502.000000
401236.000000
402007.000000
402771.000000
403527.000000
404296.000000
405065.000000
405821.000000
406563.000000
407294.000000
408020.000000
408742.000000
409486.000000
410245.000000
411025.000000
411788.000000
412540.000000
413328.000000
414182.000000
415005.000000
415752.000000
416502.000000
417262.000000
418023.000000
418783.000000
419534.000000
420276.000000
421000.000000
421737.000000
422490.000000
423278.000000
424043.000000
424789.000000
425533.000000
426269.000000
427029.000000
427812.000000
428633.000000
429446.000000
430249.000000
431040.000000
431787.000000
432517.000000
433266.000000
434048.000000
434851.000000
435639.000000
436400.000000
437139.000000
437879.000000
438630.000000
439405.000000
440191.000000
440940.000000
441672.000000
442431.000000
443182.000000
443943.000000
444677.000000
445394.000000
446088.000000
446788.000000
447505.000000
448249.000000
449009.000000
449744.000000
450455.000000
451156.000000
451886.000000
452645.000000
453445.000000
454252.000000
455030.000000
455769.000000
456501.000000
457239.000000
457980.000000
458744.000000
459487.000000
460213.000000
460965.000000
461762.000000
462580.000000
463400.000000
464200.000000
464967.000000
465706.000000
466433.000000
467162.000000
467902.000000
468683.000000
469494.000000
470271.000000
471008.000000
471716.000000
472436.000000
473166.000000
473902.000000
474680.000000
475422.000000
476171.000000
476934.000000
477719.000000
478478.000000
479262.000000
480057.000000
480886.000000
481719.000000
482557.000000
483342.000000
484109.000000
484873.000000
485610.000000
486323.000000
487012.000000
487714.000000
488495.000000
489356.000000
490184.000000
490925.000000
491611.000000
492292.000000
493000.000000
493714.000000
494422.000000
495183.000000
495988.000000
496837.000000
497699.000000
498487.000000
499245.000000
500018.000000
500795.000000
501579.000000
502341.000000
503071.000000
503825.000000
504597.000000
505389.000000
506181.000000
507051.000000
507874.000000
508640.000000
509404.000000
510203.000000
511031.000000
511856.000000
512691.000000
513566.000000
514403.000000
515176.000000
515940.000000
516747.000000
517579.000000
518421.000000
519218.000000
519987.000000
520761.000000
521548.000000
522365.000000
523185.000000
523944.000000
524650.000000
525341.000000
526052.000000
526984.000000
527873.000000
528742.000000
529591.000000
530397.000000
531182.000000
532038.000000
532943.000000
533846.000000
534728.000000
535601.000000
536474.000000
537375.000000
538247.000000
539092.000000
539929.000000
540777.000000
541632.000000
542426.000000
543246.000000
544083.000000
544922.000000
545717.000000
546481.000000
547240.000000
548061.000000
548968.000000
549837.000000
550672.000000
551497.000000
552305.000000
553069.000000
553796.000000
554525.000000
555290.000000
556066.000000
556797.000000
557492.000000
558168.000000
558838.000000
559501.000000
560183.000000
560943.000000
561700.000000
562415.000000
563134.000000
563866.000000
564564.000000
565237.000000
565935.000000
566685.000000
567418.000000
568161.000000
568952.000000
569774.000000
570594.000000
571378.000000
572126.000000
572877.000000
573632.000000
574418.000000
575216.000000
576003.000000
576767.000000
577494.000000
578213.000000
578959.000000
579734.000000
580507.000000
581227.000000
581919.000000
582594.000000
583251.000000
583896.000000
584545.000000
585247.000000
585971.000000
586716.000000
587537.000000
588376.000000
589194.000000
590008.000000
590794.000000
591571.000000
592377.000000
593167.000000
593964.000000
594773.000000
595582.000000
596404.000000
597216.000000
598015.000000
598818.000000
599601.000000
600379.000000
601156.000000
601926.000000
602680.000000
603418.000000
604169.000000
604937.000000
605704.000000
606473.000000
607230.000000
607970.000000
608731.000000
609518.000000
610286.000000
611012.000000
611706.000000
612368.000000
613013.000000
613639.000000
614247.000000
614845.000000
615446.000000
616095.000000
616729.000000
617400.000000
618108.000000
618810.000000
619580.000000
620376.000000
621178.000000
621962.000000
622760.000000
623579.000000
624395.000000
625204.000000
625989.000000
626739.000000
627483.000000
628223.000000
628975.000000
629717.000000
630455.000000
631207.000000
631988.000000
632784.000000
633582.000000
634407.000000
635230.000000
636003.000000
636777.000000
637556.000000
638369.000000
639161.000000
639942.000000
640711.000000
641442.000000
642145.000000
643565.000000
644417.000000
645280.000000
646139.000000
646982.000000
647774.000000
648553.000000
649356.000000
650206.000000
651047.000000
651849.000000
652637.000000
653429.000000
654241.000000
655071.000000
655870.000000
656628.000000
657400.000000
658214.000000
659047.000000
659861.000000
660648.000000
661432.000000
662295.000000
663200.000000
664058.000000
664927.000000
665774.000000
666596.000000
667382.000000
668169.000000
668993.000000
669830.000000
670672.000000
671536.000000
672374.000000
673201.000000
674004.000000
674808.000000
675596.000000
676365.000000
677156.000000
677934.000000
678712.000000
679492.000000
680226.000000
680954.000000
681687.000000
682466.000000
683297.000000
684108.000000
684887.000000
685676.000000
686477.000000
687283.000000
688074.000000
688842.000000
689592.000000
690362.000000
691175.000000
692002.000000
692824.000000
693654.000000
694433.000000
695168.000000
695892.000000
696622.000000
697405.000000
698179.000000
698924.000000
699707.000000
700518.000000
701373.000000
702206.000000
702994.000000
703758.000000
704524.000000
705278.000000
706029.000000
706762.000000
707488.000000
708217.000000
708996.000000
709806.000000
710607.000000
711390.000000
712134.000000
712840.000000
713515.000000
714186.000000
714891.000000
715631.000000
716371.000000
717120.000000
717909.000000
718721.000000
719551.000000
720363.000000
721137.000000
721878.000000
722654.000000
723464.000000
724283.000000
725030.000000
725734.000000
726419.000000
727103.000000
727771.000000
728418.000000
729053.000000
729683.000000
730373.000000
731206.000000
731992.000000
732769.000000
733639.000000
734534.000000
735393.000000
736199.000000
736976.000000
737792.000000
738615.000000
739452.000000
740287.000000
741085.000000
741851.000000
742613.000000
743455.000000
744357.000000
745264.000000
746120.000000
746902.000000
747649.000000
748405.000000
749160.000000
749882.000000
750574.000000
751250.000000
751928.000000
752625.000000
753410.000000
754235.000000
755051.000000
755813.000000
756563.000000
757324.000000
758132.000000
758956.000000
759807.000000
760669.000000
761509.000000
762335.000000
763152.000000
763916.000000
764650.000000
765415.000000
766237.000000
767040.000000
767812.000000
768597.000000
769393.000000
770199.000000
770973.000000
771735.000000
772495.000000
773241.000000
773961.000000
774670.000000
775420.000000
776204.000000
777006.000000
777810.000000
778589.000000
779338.000000
780063.000000
780823.000000
781606.000000
782404.000000
783233.000000
783992.000000
784723.000000
785472.000000
786224.000000
786994.000000
787759.000000
788498.000000
789213.000000
789942.000000
790695.000000
791486.000000
792302.000000
793081.000000
793830.000000
794567.000000
795328.000000
796105.000000
796893.000000
797666.000000
798413.000000
799176.000000
799934.000000
800684.000000
801413.000000
802154.000000
802929.000000
803749.000000
804537.000000
805347.000000
806184.000000
807001.000000
807761.000000
808528.000000
809295.000000
810064.000000
810866.000000
811678.000000
812488.000000
813307.000000
814118.000000
814869.000000
815630.000000
816389.000000
817182.000000
817976.000000
818766.000000
819531.000000
820280.000000
821038.000000
821860.000000
822702.000000
823489.000000
824273.000000
825048.000000
825831.000000
826654.000000
827456.000000
828218.000000
828951.000000
829653.000000
830348.000000
831074.000000
831844.000000
832602.000000
833311.000000
833990.000000
834650.000000
835293.000000
835927.000000
836612.000000
837450.000000
838250.000000
838997.000000
839781.000000
840621.000000
841376.000000
842077.000000
842749.000000
843415.000000
844073.000000
844731.000000
845411.000000
846152.000000
846925.000000
847706.000000
848476.000000
849197.000000
849907.000000
850655.000000
851439.000000
852238.000000
853024.000000
853758.000000
854474.000000
855175.000000
855894.000000
856633.000000
857372.000000
858104.000000
858855.000000
859646.000000
860433.000000
861194.000000
861920.000000
862629.000000
863330.000000
864049.000000
864821.000000
865595.000000
866338.000000
867044.000000
867725.000000
869055.000000
869699.000000
870321.000000
870931.000000
871531.000000
872127.000000
872785.000000
873520.000000
874261.000000
875105.000000
875970.000000
876799.000000
877550.000000
878258.000000
878937.000000
879602.000000
880257.000000
880907.000000
881597.000000
882345.000000
883130.000000
883908.000000
884678.000000
885452.000000
886254.000000
887065.000000
887863.000000
888615.000000
889341.000000
890074.000000
890833.000000
891611.000000
892378.000000
893117.000000
893854.000000
894588.000000
895323.000000
896051.000000
896764.000000
897466.000000
898169.000000
898894.000000
899643.000000
900407.000000
901176.000000
901932.000000
902673.000000
903429.000000
904193.000000
904979.000000
905781.000000
906581.000000
907365.000000
908144.000000
908920.000000
909679.000000
910402.000000
912457.000000
913161.000000
913879.000000
914567.000000
915229.000000
915875.000000
916507.000000
917130.000000
917793.000000
918590.000000
919390.000000
920140.000000
920866.000000
921583.000000
922344.000000
923126.000000
923866.000000
924574.000000
925251.000000
925921.000000
926595.000000
927269.000000
927941.000000
928641.000000
929365.000000
930107.000000
930879.000000
931648.000000
932403.000000
933177.000000
933943.000000
934715.000000
935488.000000
936265.000000
937048.000000
937858.000000
938666.000000
939451.000000
940237.000000
941075.000000
941944.000000
942760.000000
943572.000000
944359.000000
945155.000000
945946.000000
946773.000000
947609.000000
948461.000000
949271.000000
950064.000000
950850.000000
951636.000000
952447.000000
953262.000000
954105.000000
954905.000000
955691.000000
956476.000000
957277.000000
958099.000000
958920.000000
959727.000000
960502.000000
961281.000000
962077.000000
962880.000000
963667.000000
964430.000000
965211.000000
965988.000000
966772.000000
967548.000000
968296.000000
969048.000000
969782.000000
970538.000000
971301.000000
972079.000000
972859.000000
973608.000000
974351.000000
975103.000000
975870.000000
976638.000000
977388.000000
978116.000000
978855.000000
979619.000000
980415.000000
981177.000000
981903.000000
982628.000000
983350.000000
984091.000000
984832.000000
985563.000000
986301.000000
987094.000000
987937.000000
988791.000000
989630.000000
990407.000000
991131.000000
991832.000000
992549.000000
993310.000000
994147.000000
994992.000000
995801.000000
996617.000000
997436.000000
998237.000000
999044.000000
999820.000000
1000595.000000
1001364.000000
1002167.000000
1002959.000000
1003730.000000
1004495.000000
1005276.000000
1006089.000000
1006895.000000
1007660.000000
1008431.000000
1009220.000000
1010027.000000
1010827.000000
1011594.000000
1012337.000000
1013091.000000
1013856.000000
1014640.000000
1015421.000000
1016203.000000
1016969.000000
1017688.000000
1018387.000000
1019089.000000
1019840.000000
1020646.000000
1021451.000000
1022262.000000
1023036.000000
1023790.000000
1024536.000000
1025309.000000
1026110.000000
1026916.000000
1027719.000000
1028530.000000
1029298.000000
1030044.000000
1030785.000000
1031524.000000
1032270.000000
1032981.000000
1033655.000000
1034320.000000
1035001.000000
1035722.000000
1036435.000000
1037141.000000
1037863.000000
1038596.000000
1039374.000000
1040136.000000
1040882.000000
1041635.000000
1042371.000000
1043117.000000
1043850.000000
1044574.000000
1045325.000000
1046100.000000
1046899.000000
1047699.000000
1048467.000000
1049230.000000
1049986.000000
1050760.000000
1051523.000000
1052303.000000
1053059.000000
1053824.000000
1054607.000000
1055383.000000
1056128.000000
1056884.000000
1057640.000000
1058396.000000
1059131.000000
1059855.000000
1060591.000000
1061325.000000
1062077.000000
1062828.000000
1063581.000000
1064308.000000
1065029.000000
1065750.000000
1066485.000000
1067223.000000
1067968.000000
1068701.000000
1069435.000000
1070179.000000
1070948.000000
1071725.000000
1072497.000000
1073229.000000
1073961.000000
1074696.000000
1075445.000000
1076190.000000
1076925.000000
1077693.000000
1078509.000000
1079323.000000
1080105.000000
1080839.000000
1081575.000000
1082306.000000
1083033.000000
1083747.000000
1084468.000000
1085214.000000
1086027.000000
1086851.000000
1087632.000000
1088409.000000
1089175.000000
1089973.000000
1090759.000000
1091555.000000
1092385.000000
1093214.000000
1094012.000000
1094794.000000
1095569.000000
1096372.000000
1097203.000000
1098019.000000
1098792.000000
1099559.000000
1100325.000000
1101103.000000
1101916.000000
1102676.000000
1103430.000000
1104221.000000
1105030.000000
1105882.000000
1106700.000000
1107478.000000
1108277.000000
1109084.000000
1109892.000000
1110668.000000
1111412.000000
1112157.000000
1112902.000000
1113662.000000
1114424.000000
1115156.000000
1115880.000000
1116630.000000
1117417.000000
1118229.000000
1119002.000000
1119787.000000
1120567.000000
1121335.000000
1122072.000000
1122818.000000
1123568.000000
1124325.000000
1125064.000000
1125807.000000
1126575.000000
1127370.000000
1128135.000000
1128872.000000
1129624.000000
1130390.000000
1131168.000000
1131917.000000
1132662.000000
1133429.000000
1134215.000000
1134977.000000
1135761.000000
1136567.000000
1137351.000000
1138119.000000
1138872.000000
1139642.000000
1140393.000000
1141140.000000
1141920.000000
1142714.000000
1143500.000000
1144289.000000
1145058.000000
1145808.000000
1146584.000000
1147381.000000
1148186.000000
1148945.000000
1149702.000000
1150462.000000
1151243.000000
1151997.000000
1152760.000000
1153531.000000
1154309.000000
1155072.000000
1155832.000000
1156614.000000
1157395.000000
1158189.000000
1158938.000000
1159676.000000
1160445.000000
1161237.000000
1162024.000000
1162780.000000
1163528.000000
1164274.000000
1165035.000000
1165784.000000
1166560.000000
1167361.000000
1168136.000000
1168912.000000
1169688.000000
1170435.000000
1171146.000000
1171836.000000
1173178.000000
1173949.000000
1174818.000000
1175651.000000
1176451.000000
1177214.000000
1177966.000000
1178757.000000
1179564.000000
1180392.000000
1181207.000000
1182012.000000
1182819.000000
1183617.000000
1184412.000000
1185196.000000
1185969.000000
1186731.000000
1187508.000000
1188273.000000
1189064.000000
1189877.000000
1190667.000000
1191403.000000
1192097.000000
1192761.000000
1193412.000000
1194072.000000
1194746.000000
