ECG (ms)
642.000000
1455.000000
2290.000000
3151.000000
4012.000000
4858.000000
5669.000000
6531.000000
7564.000000
8542.000000
9478.000000
10376.000000
11263.000000
12148.000000
13036.000000
13912.000000
14789.000000
15658.000000
16544.000000
17454.000000
18376.000000
19291.000000
20184.000000
21077.000000
21959.000000
22832.000000
23681.000000
24556.000000
25464.000000
26433.000000
27418.000000
28389.000000
29341.000000
30288.000000
31204.000000
32081.000000
32933.000000
33791.000000
34692.000000
35622.000000
36563.000000
37489.000000
38434.000000
39325.000000
40196.000000
41057.000000
41921.000000
42804.000000
43698.000000
44601.000000
45475.000000
46367.000000
47337.000000
48324.000000
49239.000000
50096.000000
50933.000000
51800.000000
52741.000000
53686.000000
54645.000000
55631.000000
56602.000000
57550.000000
58491.000000
59441.000000
60374.000000
61293.000000
62208.000000
63144.000000
64043.000000
64905.000000
65780.000000
66674.000000
67611.000000
68568.000000
69527.000000
70486.000000
71428.000000
72378.000000
73329.000000
74256.000000
75171.000000
76049.000000
76911.000000
77788.000000
78685.000000
79646.000000
80613.000000
81571.000000
82515.000000
83440.000000
84359.000000
85265.000000
86160.000000
87072.000000
88029.000000
89009.000000
90019.000000
91030.000000
91964.000000
92861.000000
93732.000000
94629.000000
95567.000000
96618.000000
97656.000000
98659.000000
99635.000000
100614.000000
101566.000000
102508.000000
103462.000000
104413.000000
105352.000000
106286.000000
107214.000000
108141.000000
109058.000000
109987.000000
110907.000000
111788.000000
112636.000000
113483.000000
114334.000000
115223.000000
116167.000000
117241.000000
118384.000000
119485.000000
120556.000000
121567.000000
122535.000000
123471.000000
124390.000000
125284.000000
126168.000000
127053.000000
127935.000000
128835.000000
129727.000000
130608.000000
131479.000000
132367.000000
133252.000000
134128.000000
134960.000000
135771.000000
136535.000000
137306.000000
138260.000000
139201.000000
140127.000000
141015.000000
141921.000000
142821.000000
143736.000000
144655.000000
145551.000000
146450.000000
147332.000000
148198.000000
149035.000000
149847.000000
150647.000000
151426.000000
152404.000000
153375.000000
154394.000000
155405.000000
156379.000000
157340.000000
158289.000000
159196.000000
160127.000000
161051.000000
161983.000000
162903.000000
163801.000000
164693.000000
165591.000000
166486.000000
167396.000000
168283.000000
169153.000000
170008.000000
170862.000000
171739.000000
172636.000000
173589.000000
174616.000000
175620.000000
176595.000000
177549.000000
178496.000000
179436.000000
180377.000000
181328.000000
182270.000000
183205.000000
184154.000000
185086.000000
185999.000000
186909.000000
187840.000000
188745.000000
189634.000000
190492.000000
191324.000000
192144.000000
192986.000000
193949.000000
194892.000000
195852.000000
196776.000000
197701.000000
198607.000000
199485.000000
200349.000000
201226.000000
202139.000000
203082.000000
204035.000000
204995.000000
205965.000000
206924.000000
207834.000000
208735.000000
209634.000000
210522.000000
211393.000000
212252.000000
213103.000000
213960.000000
214849.000000
215771.000000
216715.000000
217669.000000
218621.000000
219559.000000
220478.000000
221374.000000
222279.000000
223201.000000
224138.000000
225095.000000
226083.000000
227013.000000
227894.000000
228772.000000
229644.000000
230536.000000
231472.000000
232449.000000
233466.000000
234492.000000
235512.000000
236497.000000
237441.000000
238362.000000
239285.000000
240210.000000
241127.000000
242021.000000
242895.000000
243758.000000
244615.000000
245481.000000
246376.000000
247281.000000
248197.000000
249116.000000
250021.000000
250926.000000
251837.000000
252723.000000
253585.000000
254447.000000
255301.000000
256150.000000
257014.000000
257890.000000
258816.000000
259729.000000
260657.000000
261589.000000
262494.000000
263403.000000
264305.000000
265203.000000
266109.000000
267056.000000
268023.000000
269019.000000
269963.000000
270850.000000
271708.000000
272574.000000
273452.000000
274352.000000
275251.000000
276159.000000
277061.000000
277945.000000
278832.000000
279710.000000
280559.000000
281396.000000
282244.000000
283099.000000
283990.000000
284953.000000
285955.000000
287012.000000
288041.000000
289037.000000
290007.000000
290953.000000
291893.000000
292805.000000
293660.000000
294492.000000
295305.000000
296087.000000
296984.000000
298057.000000
299058.000000
300052.000000
301036.000000
302000.000000
302945.000000
303876.000000
304797.000000
305708.000000
306600.000000
307468.000000
308341.000000
309230.000000
310145.000000
311108.000000
312085.000000
313064.000000
314021.000000
314992.000000
315947.000000
316885.000000
317823.000000
318791.000000
319729.000000
320631.000000
321501.000000
322340.000000
323128.000000
324042.000000
325165.000000
326146.000000
327133.000000
328096.000000
329030.000000
329943.000000
330834.000000
331736.000000
332670.000000
333631.000000
334609.000000
335587.000000
336593.000000
337608.000000
338611.000000
339595.000000
340572.000000
341525.000000
342404.000000
343259.000000
344123.000000
344956.000000
345940.000000
346931.000000
347995.000000
349044.000000
350089.000000
351119.000000
352131.000000
353115.000000
354116.000000
355123.000000
356123.000000
357126.000000
358110.000000
359066.000000
360035.000000
361004.000000
361994.000000
362983.000000
363971.000000
364936.000000
365865.000000
366747.000000
367610.000000
368447.000000
369287.000000
370178.000000
371160.000000
372203.000000
373236.000000
374241.000000
375229.000000
376212.000000
377222.000000
378216.000000
379197.000000
380169.000000
381138.000000
382088.000000
383042.000000
383983.000000
384892.000000
385771.000000
386631.000000
387508.000000
388410.000000
389349.000000
390288.000000
391232.000000
392159.000000
393117.000000
394071.000000
395014.000000
395974.000000
396934.000000
397882.000000
398826.000000
399770.000000
400696.000000
401627.000000
402561.000000
403497.000000
404446.000000
405399.000000
406296.000000
407162.000000
408004.000000
408850.000000
409704.000000
410607.000000
411559.000000
412548.000000
413523.000000
414474.000000
415422.000000
416363.000000
417301.000000
418229.000000
419151.000000
420057.000000
420969.000000
421895.000000
422795.000000
423665.000000
424500.000000
425314.000000
426156.000000
427096.000000
428104.000000
429068.000000
430032.000000
431008.000000
431951.000000
432905.000000
433865.000000
434810.000000
435751.000000
436690.000000
437624.000000
438535.000000
439438.000000
440323.000000
441186.000000
442027.000000
442801.000000
443588.000000
444429.000000
445331.000000
446326.000000
447307.000000
448279.000000
449239.000000
450182.000000
451125.000000
452062.000000
452988.000000
453910.000000
454827.000000
455733.000000
456648.000000
457585.000000
458490.000000
459370.000000
460220.000000
461069.000000
461940.000000
462861.000000
463867.000000
464879.000000
465853.000000
466815.000000
467777.000000
468727.000000
469675.000000
470615.000000
471542.000000
472460.000000
473371.000000
474280.000000
475200.000000
476095.000000
476967.000000
477826.000000
478686.000000
479559.000000
480464.000000
481405.000000
482337.000000
483295.000000
484227.000000
485181.000000
486149.000000
487158.000000
488139.000000
489072.000000
489976.000000
490837.000000
491675.000000
492501.000000
493248.000000
494020.000000
494822.000000
495746.000000
496622.000000
497487.000000
498362.000000
499221.000000
500015.000000
500773.000000
501526.000000
502286.000000
503058.000000
503823.000000
504572.000000
505346.000000
506111.000000
506927.000000
507831.000000
508676.000000
509464.000000
510238.000000
511030.000000
511824.000000
512697.000000
513575.000000
514382.000000
515205.000000
516018.000000
516850.000000
517680.000000
518508.000000
519299.000000
520089.000000
520884.000000
521722.000000
522639.000000
523606.000000
524491.000000
525344.000000
526172.000000
526951.000000
527732.000000
528544.000000
529398.000000
530232.000000
531100.000000
532000.000000
532923.000000
533901.000000
534772.000000
535640.000000
536501.000000
537452.000000
538356.000000
539187.000000
539967.000000
540755.000000
541578.000000
542423.000000
543262.000000
544074.000000
544873.000000
545653.000000
546447.000000
547254.000000
548116.000000
548902.000000
549677.000000
550482.000000
551392.000000
552265.000000
553151.000000
553990.000000
554787.000000
555566.000000
556370.000000
557246.000000
558146.000000
558979.000000
559780.000000
560606.000000
561512.000000
562345.000000
563155.000000
563947.000000
564764.000000
565627.000000
566432.000000
567223.000000
567999.000000
568759.000000
569492.000000
570206.000000
570917.000000
571628.000000
572332.000000
573052.000000
573774.000000
574489.000000
575189.000000
575968.000000
576791.000000
577663.000000
578509.000000
579332.000000
580183.000000
581041.000000
581902.000000
582732.000000
583545.000000
584357.000000
585197.000000
586024.000000
586840.000000
587623.000000
588402.000000
589197.000000
590100.000000
591175.000000
592212.000000
593185.000000
594150.000000
595112.000000
596074.000000
597019.000000
597954.000000
598916.000000
599850.000000
600768.000000
601642.000000
602516.000000
603387.000000
604276.000000
605198.000000
606145.000000
607134.000000
608132.000000
609162.000000
610177.000000
611187.000000
612186.000000
613175.000000
614123.000000
615050.000000
615945.000000
616828.000000
617702.000000
618603.000000
619539.000000
620493.000000
621484.000000
622455.000000
623432.000000
624394.000000
625347.000000
626218.000000
627061.000000
627818.000000
628610.000000
629484.000000
630601.000000
631627.000000
632666.000000
633677.000000
634678.000000
635655.000000
636603.000000
637537.000000
638465.000000
639376.000000
640266.000000
641144.000000
642009.000000
642869.000000
643814.000000
644785.000000
645775.000000
646736.000000
647693.000000
648624.000000
649549.000000
650452.000000
651342.000000
652247.000000
653154.000000
654046.000000
654919.000000
655786.000000
656643.000000
657545.000000
658535.000000
659646.000000
660746.000000
661813.000000
662866.000000
663861.000000
664847.000000
665831.000000
666818.000000
667790.000000
668716.000000
669622.000000
670534.000000
671471.000000
672479.000000
673527.000000
674560.000000
675579.000000
676581.000000
677563.000000
678526.000000
679433.000000
680281.000000
681074.000000
681827.000000
682603.000000
683485.000000
684584.000000
685567.000000
686520.000000
687469.000000
688409.000000
689331.000000
690256.000000
691162.000000
692068.000000
692982.000000
693868.000000
694734.000000
695588.000000
696430.000000
697291.000000
698167.000000
699077.000000
700003.000000
700925.000000
701866.000000
702810.000000
703764.000000
704722.000000
705638.000000
706528.000000
707392.000000
708238.000000
709065.000000
709856.000000
710716.000000
711664.000000
712678.000000
713669.000000
714639.000000
715595.000000
716536.000000
717435.000000
718299.000000
719148.000000
720001.000000
720833.000000
721636.000000
722447.000000
723247.000000
724107.000000
725055.000000
726075.000000
727088.000000
728046.000000
729010.000000
729951.000000
730865.000000
731794.000000
732726.000000
733667.000000
734624.000000
735576.000000
736514.000000
737424.000000
738296.000000
739165.000000
740054.000000
740961.000000
741914.000000
742905.000000
743924.000000
744914.000000
745912.000000
746898.000000
747888.000000
748876.000000
749831.000000
750758.000000
751668.000000
752546.000000
753421.000000
754300.000000
755183.000000
756121.000000
757137.000000
758186.000000
759232.000000
760269.000000
761286.000000
762221.000000
763093.000000
763941.000000
764708.000000
765458.000000
766221.000000
767092.000000
768165.000000
769166.000000
770163.000000
771169.000000
772150.000000
773109.000000
774073.000000
775035.000000
775996.000000
776943.000000
777886.000000
778839.000000
779772.000000
780683.000000
781582.000000
782467.000000
783362.000000
784291.000000
785250.000000
786248.000000
787263.000000
788287.000000
789306.000000
790352.000000
791350.000000
792270.000000
793168.000000
794041.000000
794883.000000
795716.000000
796500.000000
797268.000000
798063.000000
798949.000000
800052.000000
801040.000000
802014.000000
803009.000000
803996.000000
804978.000000
805962.000000
806952.000000
807931.000000
808887.000000
809835.000000
810777.000000
811724.000000
812653.000000
813599.000000
814517.000000
815403.000000
816277.000000
817167.000000
818049.000000
818960.000000
819935.000000
820931.000000
821940.000000
822959.000000
824015.000000
825043.000000
826027.000000
826993.000000
827924.000000
828821.000000
829700.000000
830582.000000
831481.000000
832366.000000
833272.000000
834234.000000
835223.000000
836248.000000
837271.000000
838237.000000
839212.000000
840192.000000
841087.000000
841932.000000
842686.000000
843459.000000
844299.000000
845200.000000
846063.000000
846889.000000
847694.000000
848514.000000
849390.000000
850305.000000
851233.000000
852138.000000
853032.000000
853942.000000
854880.000000
855838.000000
856775.000000
857696.000000
858587.000000
859485.000000
860303.000000
861113.000000
861965.000000
862853.000000
863788.000000
864761.000000
865717.000000
866621.000000
867534.000000
868471.000000
869396.000000
870319.000000
871224.000000
872087.000000
872928.000000
873741.000000
874566.000000
875490.000000
876511.000000
877519.000000
878461.000000
879351.000000
880155.000000
880944.000000
881734.000000
882536.000000
883311.000000
884101.000000
884936.000000
886074.000000
887072.000000
888025.000000
888946.000000
889853.000000
890783.000000
891720.000000
892697.000000
893592.000000
894459.000000
895349.000000
896268.000000
897195.000000
898110.000000
898998.000000
