ECG (ms)
244.000000
1501.000000
2712.000000
3915.000000
5096.000000
6059.000000
6929.000000
8190.000000
9516.000000
10658.000000
11688.000000
12898.000000
14141.000000
15281.000000
16196.000000
17076.000000
18381.000000
19613.000000
20823.000000
21870.000000
22880.000000
24167.000000
25389.000000
26536.000000
27401.000000
28274.000000
29609.000000
30840.000000
32037.000000
33018.000000
33977.000000
35313.000000
36599.000000
37833.000000
38900.000000
39841.000000
41105.000000
42319.000000
43588.000000
44761.000000
45775.000000
47131.000000
48427.000000
49742.000000
51022.000000
52143.000000
53043.000000
54179.000000
55493.000000
56777.000000
57979.000000
58902.000000
60170.000000
61403.000000
62569.000000
63529.000000
64710.000000
65962.000000
67145.000000
68213.000000
69162.000000
70407.000000
71616.000000
72810.000000
73940.000000
74875.000000
76104.000000
77349.000000
78581.000000
79689.000000
80607.000000
81883.000000
83133.000000
84367.000000
85467.000000
86417.000000
87714.000000
88987.000000
90272.000000
91398.000000
92348.000000
93671.000000
94935.000000
96190.000000
97321.000000
98271.000000
99579.000000
100865.000000
102073.000000
103142.000000
104031.000000
105410.000000
106739.000000
107974.000000
108909.000000
109725.000000
110589.000000
111611.000000
112967.000000
114208.000000
115444.000000
116579.000000
117560.000000
118455.000000
119680.000000
120884.000000
122117.000000
123137.000000
124031.000000
125313.000000
126616.000000
127887.000000
128968.000000
129871.000000
130819.000000
132117.000000
133372.000000
134585.000000
135801.000000
136866.000000
138066.000000
139258.000000
140411.000000
141564.000000
142695.000000
143773.000000
145077.000000
146313.000000
147494.000000
148533.000000
149813.000000
151131.000000
152394.000000
153555.000000
154611.000000
155855.000000
157127.000000
158401.000000
159571.000000
160557.000000
161754.000000
162980.000000
164242.000000
165421.000000
166462.000000
167373.000000
168214.000000
169579.000000
170894.000000
172179.000000
173415.000000
174640.000000
175723.000000
176606.000000
177490.000000
178421.000000
179768.000000
181048.000000
182292.000000
183459.000000
184608.000000
185609.000000
186637.000000
187820.000000
188999.000000
190025.000000
190947.000000
192212.000000
193455.000000
194525.000000
195369.000000
196678.000000
197825.000000
198867.000000
200121.000000
201225.000000
202160.000000
203084.000000
204044.000000
204885.000000
206188.000000
207443.000000
208576.000000
209405.000000
210240.000000
211539.000000
212712.000000
213586.000000
214390.000000
215661.000000
216879.000000
217837.000000
219054.000000
220059.000000
220913.000000
222135.000000
223329.000000
224442.000000
225323.000000
226387.000000
227588.000000
228650.000000
229465.000000
230675.000000
231819.000000
232823.000000
233982.000000
235038.000000
235899.000000
237097.000000
238187.000000
239318.000000
240474.000000
241421.000000
242592.000000
243523.000000
244764.000000
245893.000000
246801.000000
247794.000000
249119.000000
250339.000000
251639.000000
252894.000000
254090.000000
255311.000000
256556.000000
257738.000000
258819.000000
260075.000000
261280.000000
262488.000000
263583.000000
264843.000000
266039.000000
267141.000000
268393.000000
269601.000000
270800.000000
271854.000000
273111.000000
274340.000000
275540.000000
276723.000000
277932.000000
279142.000000
280252.000000
281427.000000
282572.000000
283550.000000
284754.000000
285967.000000
287192.000000
288324.000000
289177.000000
290007.000000
291416.000000
292346.000000
293731.000000
295021.000000
296145.000000
297462.000000
298475.000000
299749.000000
300915.000000
302132.000000
303399.000000
304477.000000
305631.000000
306872.000000
307947.000000
309166.000000
310344.000000
311442.000000
312641.000000
313794.000000
314756.000000
315965.000000
317132.000000
318098.000000
319335.000000
320511.000000
321496.000000
322673.000000
323861.000000
325032.000000
326162.000000
327229.000000
328355.000000
329462.000000
330348.000000
331529.000000
332539.000000
333388.000000
334340.000000
335659.000000
336839.000000
337762.000000
339038.000000
340149.000000
341092.000000
342410.000000
343556.000000
344520.000000
345788.000000
347022.000000
348147.000000
349359.000000
350586.000000
351734.000000
352851.000000
354054.000000
355184.000000
356272.000000
357489.000000
358552.000000
359629.000000
360957.000000
362182.000000
363427.000000
364549.000000
365766.000000
366959.000000
367857.000000
369147.000000
370318.000000
371261.000000
372542.000000
373743.000000
374628.000000
375900.000000
377086.000000
377970.000000
379247.000000
380515.000000
381608.000000
382852.000000
384059.000000
385207.000000
386419.000000
387634.000000
388772.000000
389927.000000
391172.000000
392374.000000
393568.000000
394800.000000
395932.000000
396996.000000
398205.000000
399466.000000
400634.000000
401848.000000
403010.000000
404223.000000
405470.000000
406637.000000
407823.000000
408968.000000
410044.000000
411254.000000
412421.000000
413229.000000
414256.000000
415603.000000
416642.000000
417971.000000
419249.000000
420307.000000
421604.000000
422847.000000
424049.000000
425311.000000
426598.000000
427844.000000
429131.000000
430338.000000
431290.000000
432565.000000
433851.000000
435081.000000
436212.000000
437501.000000
438728.000000
439985.000000
441134.000000
442032.000000
442928.000000
444416.000000
445759.000000
447036.000000
448383.000000
449650.000000
450876.000000
452146.000000
453395.000000
454548.000000
455814.000000
457076.000000
458375.000000
459606.000000
460795.000000
461977.000000
463267.000000
464516.000000
465498.000000
466815.000000
467939.000000
468905.000000
470244.000000
471372.000000
472602.000000
473847.000000
474750.000000
475593.000000
476916.000000
478116.000000
479268.000000
480547.000000
481722.000000
482720.000000
484044.000000
485269.000000
486396.000000
487588.000000
488771.000000
489823.000000
491051.000000
492198.000000
493128.000000
494395.000000
495539.000000
496467.000000
497727.000000
498948.000000
500139.000000
501140.000000
502390.000000
503589.000000
504791.000000
505997.000000
507092.000000
508010.000000
509275.000000
510430.000000
511365.000000
512646.000000
513830.000000
514896.000000
516139.000000
517248.000000
518492.000000
519650.000000
520799.000000
522008.000000
523004.000000
524270.000000
525422.000000
526390.000000
527697.000000
528630.000000
529509.000000
530871.000000
532080.000000
533080.000000
534415.000000
535599.000000
536855.000000
538164.000000
539357.000000
540623.000000
541942.000000
543168.000000
544433.000000
545697.000000
546919.000000
548176.000000
549448.000000
550682.000000
551941.000000
553223.000000
554435.000000
555716.000000
556877.000000
557814.000000
558850.000000
560155.000000
561146.000000
562428.000000
563639.000000
564523.000000
565791.000000
566965.000000
567923.000000
569277.000000
570512.000000
571765.000000
572996.000000
574162.000000
575317.000000
576610.000000
577836.000000
578937.000000
580244.000000
581491.000000
582791.000000
584059.000000
585350.000000
586588.000000
587833.000000
588850.000000
590114.000000
591381.000000
592645.000000
593961.000000
594910.000000
596220.000000
597496.000000
598796.000000
600090.000000
601018.000000
601846.000000
603175.000000
604350.000000
605334.000000
606720.000000
607979.000000
609217.000000
610486.000000
611638.000000
612921.000000
614195.000000
615196.000000
616477.000000
617687.000000
618968.000000
620320.000000
621611.000000
622941.000000
624168.000000
625366.000000
626720.000000
627971.000000
629264.000000
630604.000000
631859.000000
632804.000000
634214.000000
635533.000000
636843.000000
638210.000000
639497.000000
640827.000000
642131.000000
643367.000000
644650.000000
645987.000000
647272.000000
648528.000000
649820.000000
651113.000000
652390.000000
653604.000000
654885.000000
656147.000000
657226.000000
658431.000000
659698.000000
660579.000000
661955.000000
663216.000000
664507.000000
665783.000000
666831.000000
668122.000000
669300.000000
670274.000000
671558.000000
672661.000000
673512.000000
674811.000000
676007.000000
677148.000000
678424.000000
679597.000000
680483.000000
681755.000000
683014.000000
684165.000000
685143.000000
686415.000000
687638.000000
688816.000000
689848.000000
691075.000000
692142.000000
692969.000000
693748.000000
694790.000000
696057.000000
696971.000000
697793.000000
699221.000000
700404.000000
701348.000000
702700.000000
703987.000000
705227.000000
706373.000000
707351.000000
708690.000000
709947.000000
711120.000000
712001.000000
713323.000000
714617.000000
715870.000000
717076.000000
718011.000000
719315.000000
720588.000000
721813.000000
723004.000000
724075.000000
725327.000000
726542.000000
727674.000000
728936.000000
730196.000000
731447.000000
732551.000000
733507.000000
734768.000000
735784.000000
736598.000000
737906.000000
739108.000000
740043.000000
741334.000000
742540.000000
743401.000000
744567.000000
745810.000000
746686.000000
748050.000000
749220.000000
750485.000000
751713.000000
752955.000000
754176.000000
755365.000000
756613.000000
757783.000000
758653.000000
759935.000000
761154.000000
762115.000000
763395.000000
764534.000000
765528.000000
766798.000000
767786.000000
769043.000000
770227.000000
771487.000000
772748.000000
773910.000000
774974.000000
775795.000000
777175.000000
778483.000000
779800.000000
781051.000000
782309.000000
783540.000000
784619.000000
785909.000000
786994.000000
788290.000000
789521.000000
790472.000000
791771.000000
792767.000000
794032.000000
795258.000000
796123.000000
797470.000000
798360.000000
799154.000000
800616.000000
801947.000000
802846.000000
804253.000000
805606.000000
806651.000000
808000.000000
809312.000000
810385.000000
811726.000000
813034.000000
814285.000000
815234.000000
816577.000000
817867.000000
819073.000000
820318.000000
821548.000000
822752.000000
824025.000000
825325.000000
826530.000000
827713.000000
828992.000000
830238.000000
831353.000000
832195.000000
833506.000000
834725.000000
835591.000000
836893.000000
838114.000000
839054.000000
840369.000000
841581.000000
842828.000000
844068.000000
845263.000000
846463.000000
847616.000000
848730.000000
850041.000000
851285.000000
852510.000000
853669.000000
854606.000000
855963.000000
857181.000000
858119.000000
859428.000000
860571.000000
861931.000000
863152.000000
864382.000000
865641.000000
866578.000000
867891.000000
869043.000000
870323.000000
871581.000000
872616.000000
873891.000000
875102.000000
876065.000000
877344.000000
878543.000000
879826.000000
881082.000000
882123.000000
883407.000000
884602.000000
885837.000000
887111.000000
888340.000000
889602.000000
890719.000000
891657.000000
892945.000000
894170.000000
895378.000000
896572.000000
897843.000000
899026.000000
899937.000000
900760.000000
902175.000000
903448.000000
904662.000000
906019.000000
907310.000000
908545.000000
909591.000000
910451.000000
911347.000000
912775.000000
914108.000000
915437.000000
916788.000000
918082.000000
919384.000000
920628.000000
921898.000000
923142.000000
924387.000000
925670.000000
926797.000000
927772.000000
929129.000000
930358.000000
931202.000000
932516.000000
933371.000000
934186.000000
935574.000000
936866.000000
937841.000000
939227.000000
940481.000000
941493.000000
942860.000000
944156.000000
945451.000000
946754.000000
947964.000000
949238.000000
950467.000000
951407.000000
952740.000000
954031.000000
955294.000000
956628.000000
957804.000000
958787.000000
960140.000000
961394.000000
962532.000000
963847.000000
965020.000000
965880.000000
967237.000000
968543.000000
969847.000000
971156.000000
972357.000000
973653.000000
974877.000000
976144.000000
977356.000000
978628.000000
979786.000000
981017.000000
982258.000000
983404.000000
984575.000000
985709.000000
986580.000000
987434.000000
988931.000000
989985.000000
991398.000000
992750.000000
994048.000000
995391.000000
996604.000000
997913.000000
999100.000000
1000376.000000
1001657.000000
1002953.000000
1004281.000000
1005518.000000
1006795.000000
1008038.000000
1009228.000000
1010455.000000
1011693.000000
1012854.000000
1014126.000000
1015391.000000
1016665.000000
1017943.000000
1019119.000000
1020379.000000
1021591.000000
1022539.000000
1023838.000000
1025056.000000
1026009.000000
1027060.000000
1028317.000000
1029199.000000
1030526.000000
1031718.000000
1032613.000000
1033968.000000
1035180.000000
1036498.000000
1037823.000000
1039087.000000
1040376.000000
1041640.000000
1042942.000000
1044227.000000
1045234.000000
1046557.000000
1047799.000000
1049148.000000
1050416.000000
1051438.000000
1052754.000000
1053808.000000
1054838.000000
1056208.000000
1057448.000000
1058322.000000
1059748.000000
1061056.000000
1062005.000000
1063439.000000
1064707.000000
1066031.000000
1067308.000000
1068660.000000
1070028.000000
1071251.000000
1072553.000000
1073826.000000
1074867.000000
1076173.000000
1077443.000000
1078344.000000
1079738.000000
1080991.000000
1082054.000000
1083386.000000
1084428.000000
1085734.000000
1087053.000000
1088013.000000
1089386.000000
1090691.000000
1092044.000000
1093411.000000
1094633.000000
1095971.000000
1096863.000000
1097798.000000
1099282.000000
1100590.000000
1101975.000000
1103271.000000
1104576.000000
1105942.000000
1107219.000000
1108571.000000
1109767.000000
1110748.000000
1112091.000000
1113395.000000
1114712.000000
1116033.000000
1117184.000000
1118408.000000
1119618.000000
1120673.000000
1122015.000000
1123248.000000
1124485.000000
1125728.000000
1126744.000000
1128078.000000
1129332.000000
1130218.000000
1131527.000000
1132768.000000
1134003.000000
1135267.000000
1136592.000000
1137936.000000
1139159.000000
1140439.000000
1141748.000000
1142846.000000
1144097.000000
1145352.000000
1146564.000000
1147830.000000
1149161.000000
1150367.000000
1151651.000000
1152896.000000
1153836.000000
1155039.000000
1156344.000000
1157697.000000
1158984.000000
1160193.000000
1161390.000000
1162684.000000
1163647.000000
1164935.000000
1166151.000000
1167033.000000
1168410.000000
1169577.000000
1170944.000000
1172208.000000
1173277.000000
1174531.000000
1175716.000000
1176970.000000
1178235.000000
1179492.000000
1180837.000000
1182050.000000
1183362.000000
1184686.000000
1185938.000000
1187225.000000
1188443.000000
1189343.000000
1190747.000000
1192065.000000
1193394.000000
1194669.000000
1195921.000000
1197191.000000
1198155.000000
1199084.000000
1200482.000000
1201777.000000
1203083.000000
1204299.000000
1205354.000000
1206706.000000
1207957.000000
1209192.000000
1210491.000000
1211725.000000
1213053.000000
1214316.000000
1215267.000000
1216586.000000
1217942.000000
1218950.000000
1220302.000000
1221554.000000
