ECG (ms)
102.000000
795.000000
1517.000000
2302.000000
3101.000000
3871.000000
4645.000000
5424.000000
6179.000000
6927.000000
7676.000000
8461.000000
9270.000000
10055.000000
10830.000000
11610.000000
12417.000000
13201.000000
13958.000000
14727.000000
15526.000000
16359.000000
17191.000000
18025.000000
18831.000000
19602.000000
20349.000000
21090.000000
21865.000000
22691.000000
23502.000000
24262.000000
25013.000000
25788.000000
26623.000000
27485.000000
28304.000000
29066.000000
29794.000000
30523.000000
31268.000000
32011.000000
32757.000000
33564.000000
34483.000000
35336.000000
36143.000000
36970.000000
37792.000000
38607.000000
39382.000000
40134.000000
40872.000000
41637.000000
42458.000000
43271.000000
44048.000000
44805.000000
45550.000000
46310.000000
47092.000000
47872.000000
48630.000000
49369.000000
50089.000000
50834.000000
51610.000000
52363.000000
53101.000000
53830.000000
54579.000000
55338.000000
56093.000000
56845.000000
57597.000000
58330.000000
59004.000000
59685.000000
60394.000000
61155.000000
61945.000000
62741.000000
63506.000000
64261.000000
65013.000000
65776.000000
66532.000000
67307.000000
68095.000000
68848.000000
69590.000000
70358.000000
71180.000000
72018.000000
72809.000000
73596.000000
74387.000000
75190.000000
75989.000000
76744.000000
77483.000000
78227.000000
79011.000000
79802.000000
80587.000000
81401.000000
82228.000000
83063.000000
83852.000000
84624.000000
85377.000000
86195.000000
86982.000000
87773.000000
88633.000000
89546.000000
90412.000000
91232.000000
92038.000000
92834.000000
93602.000000
94357.000000
95122.000000
95938.000000
96742.000000
97585.000000
98500.000000
99381.000000
100183.000000
100949.000000
101705.000000
102483.000000
103263.000000
104036.000000
104828.000000
105671.000000
106508.000000
107311.000000
108112.000000
108869.000000
109551.000000
110219.000000
110945.000000
111690.000000
112454.000000
113263.000000
114075.000000
114865.000000
115650.000000
116432.000000
117184.000000
117967.000000
118804.000000
119667.000000
120492.000000
121272.000000
122074.000000
122886.000000
123680.000000
124464.000000
125269.000000
126106.000000
126914.000000
127696.000000
128492.000000
129302.000000
130114.000000
130893.000000
131696.000000
132497.000000
133305.000000
134097.000000
134884.000000
135690.000000
136529.000000
137424.000000
138237.000000
139020.000000
139795.000000
140596.000000
141402.000000
142180.000000
142972.000000
143818.000000
144715.000000
145648.000000
146505.000000
147347.000000
148190.000000
149040.000000
149845.000000
150676.000000
151522.000000
152347.000000
153133.000000
153921.000000
154738.000000
155567.000000
156370.000000
157196.000000
158025.000000
158848.000000
159657.000000
160454.000000
161245.000000
162035.000000
162810.000000
163584.000000
164350.000000
165140.000000
165921.000000
166708.000000
167517.000000
168348.000000
169134.000000
169909.000000
170701.000000
171516.000000
172308.000000
173064.000000
173812.000000
174539.000000
175201.000000
175857.000000
176623.000000
177389.000000
178175.000000
178996.000000
179826.000000
180625.000000
181386.000000
182134.000000
182887.000000
183654.000000
184420.000000
185174.000000
185952.000000
186752.000000
187569.000000
188426.000000
189283.000000
190115.000000
190896.000000
191654.000000
192431.000000
193239.000000
194037.000000
194853.000000
195670.000000
196474.000000
197241.000000
197991.000000
198757.000000
199569.000000
200354.000000
201123.000000
201891.000000
202710.000000
203528.000000
204315.000000
205088.000000
205881.000000
206687.000000
207466.000000
208260.000000
209084.000000
209943.000000
210788.000000
211600.000000
212358.000000
213106.000000
213860.000000
214671.000000
215459.000000
216259.000000
217074.000000
217867.000000
218648.000000
219462.000000
220350.000000
221193.000000
222069.000000
222916.000000
223719.000000
224481.000000
225225.000000
225982.000000
226787.000000
227593.000000
228358.000000
229088.000000
229806.000000
230548.000000
231355.000000
232147.000000
232910.000000
233669.000000
234427.000000
235199.000000
236003.000000
236789.000000
237552.000000
238322.000000
239098.000000
239895.000000
240681.000000
241431.000000
242166.000000
242915.000000
243699.000000
244489.000000
245270.000000
246055.000000
246842.000000
247601.000000
248337.000000
249050.000000
249779.000000
250555.000000
251344.000000
252113.000000
252885.000000
253689.000000
254523.000000
255308.000000
256084.000000
256865.000000
257658.000000
258435.000000
259190.000000
259876.000000
260535.000000
261215.000000
261916.000000
262693.000000
263498.000000
264269.000000
265034.000000
265801.000000
266582.000000
267329.000000
268051.000000
268765.000000
269504.000000
270233.000000
270963.000000
271700.000000
272461.000000
273239.000000
274001.000000
274756.000000
275497.000000
276255.000000
277047.000000
277858.000000
278632.000000
279358.000000
280066.000000
280790.000000
281548.000000
282279.000000
283002.000000
283776.000000
284559.000000
285338.000000
286115.000000
286909.000000
287700.000000
288484.000000
289265.000000
290053.000000
290819.000000
291573.000000
292315.000000
293095.000000
293888.000000
294685.000000
295447.000000
296188.000000
296934.000000
297711.000000
298512.000000
299292.000000
300041.000000
300777.000000
301533.000000
302336.000000
303156.000000
303955.000000
304722.000000
305480.000000
306260.000000
307099.000000
307891.000000
308665.000000
309432.000000
310230.000000
311038.000000
311853.000000
312669.000000
313438.000000
314199.000000
314951.000000
315751.000000
316537.000000
317301.000000
318047.000000
318817.000000
319621.000000
320436.000000
321223.000000
321998.000000
322757.000000
323547.000000
324352.000000
325145.000000
325897.000000
326642.000000
327419.000000
328229.000000
329030.000000
329788.000000
330527.000000
331278.000000
332079.000000
332889.000000
333683.000000
334458.000000
335217.000000
335991.000000
336774.000000
337537.000000
338299.000000
339049.000000
339832.000000
340626.000000
341404.000000
342197.000000
343008.000000
343795.000000
344565.000000
345336.000000
346131.000000
346962.000000
347757.000000
348531.000000
349305.000000
350117.000000
350957.000000
351750.000000
352549.000000
353341.000000
354172.000000
354981.000000
355752.000000
356519.000000
357309.000000
358152.000000
358984.000000
359779.000000
360573.000000
361371.000000
362204.000000
363044.000000
363840.000000
364601.000000
365346.000000
366103.000000
366888.000000
367660.000000
368445.000000
369236.000000
369949.000000
370635.000000
371358.000000
372118.000000
372922.000000
373742.000000
374523.000000
375296.000000
376065.000000
376861.000000
377641.000000
378390.000000
379128.000000
379887.000000
380678.000000
381473.000000
382238.000000
382999.000000
383817.000000
384653.000000
385480.000000
386298.000000
387101.000000
387888.000000
388672.000000
389463.000000
390232.000000
390976.000000
391730.000000
392506.000000
393323.000000
394109.000000
394878.000000
395648.000000
396459.000000
397272.000000
398051.000000
398800.000000
399537.000000
400319.000000
401158.000000
402000.000000
402806.000000
403572.000000
404340.000000
405119.000000
405923.000000
406733.000000
407526.000000
408298.000000
409056.000000
409825.000000
410622.000000
411402.000000
412176.000000
412985.000000
413803.000000
414631.000000
415460.000000
416313.000000
417172.000000
418008.000000
418861.000000
419716.000000
420628.000000
421479.000000
422268.000000
423050.000000
423925.000000
424813.000000
425686.000000
426499.000000
427320.000000
428157.000000
428998.000000
429791.000000
430585.000000
431390.000000
432218.000000
433019.000000
433786.000000
434536.000000
435313.000000
436129.000000
436921.000000
437733.000000
438557.000000
439399.000000
440199.000000
440992.000000
441793.000000
442611.000000
443436.000000
444240.000000
445009.000000
445761.000000
446539.000000
447353.000000
448147.000000
448935.000000
449738.000000
450575.000000
451399.000000
452177.000000
452959.000000
453748.000000
454567.000000
455371.000000
456141.000000
456901.000000
457701.000000
458520.000000
459299.000000
460067.000000
460832.000000
461670.000000
462473.000000
463248.000000
464009.000000
464808.000000
465627.000000
466427.000000
467187.000000
467940.000000
468716.000000
469520.000000
470307.000000
471079.000000
471848.000000
472641.000000
473451.000000
474230.000000
474958.000000
475664.000000
476392.000000
477154.000000
477966.000000
478730.000000
479417.000000
480105.000000
480820.000000
481615.000000
482503.000000
483366.000000
484231.000000
485087.000000
485892.000000
486676.000000
487454.000000
488260.000000
489070.000000
489849.000000
490628.000000
491407.000000
492229.000000
493061.000000
493868.000000
494648.000000
495413.000000
496191.000000
496992.000000
497775.000000
498564.000000
499399.000000
500311.000000
501194.000000
502050.000000
502850.000000
503636.000000
504451.000000
505319.000000
506180.000000
507073.000000
507975.000000
508845.000000
509651.000000
510455.000000
511277.000000
512130.000000
512955.000000
513790.000000
514631.000000
515536.000000
516463.000000
517348.000000
518165.000000
518973.000000
519815.000000
520652.000000
521472.000000
522269.000000
523088.000000
523955.000000
524830.000000
525644.000000
526478.000000
527346.000000
528215.000000
529026.000000
529818.000000
530623.000000
531482.000000
532336.000000
533149.000000
533966.000000
534799.000000
535726.000000
536576.000000
537404.000000
538242.000000
539090.000000
539896.000000
540673.000000
541452.000000
542268.000000
543124.000000
543953.000000
544754.000000
545565.000000
546405.000000
547264.000000
548074.000000
548869.000000
549670.000000
550525.000000
551336.000000
552123.000000
552913.000000
553711.000000
554515.000000
555307.000000
556120.000000
556955.000000
557789.000000
558582.000000
559369.000000
560178.000000
561016.000000
561859.000000
562677.000000
563471.000000
564277.000000
565090.000000
565895.000000
566721.000000
567558.000000
568416.000000
569249.000000
570122.000000
570982.000000
571836.000000
572638.000000
573418.000000
574196.000000
575003.000000
575818.000000
576616.000000
577426.000000
578256.000000
579097.000000
579921.000000
580760.000000
581592.000000
582423.000000
583245.000000
584042.000000
584821.000000
585604.000000
586432.000000
587253.000000
588040.000000
588832.000000
589653.000000
590624.000000
591519.000000
592354.000000
593182.000000
594050.000000
594903.000000
595749.000000
596544.000000
597314.000000
598069.000000
598815.000000
599537.000000
600243.000000
600962.000000
