ECG (ms)
254.000000
954.000000
1667.000000
2766.000000
3671.000000
4487.000000
5365.000000
6324.000000
7267.000000
8114.000000
8937.000000
9740.000000
10803.000000
11753.000000
12569.000000
13292.000000
14038.000000
14875.000000
15767.000000
16551.000000
17459.000000
18495.000000
19489.000000
20288.000000
21029.000000
21819.000000
22729.000000
23532.000000
24228.000000
24934.000000
25651.000000
26409.000000
27157.000000
27919.000000
28994.000000
29913.000000
30650.000000
31332.000000
32023.000000
32885.000000
33662.000000
34386.000000
35115.000000
36225.000000
37148.000000
37903.000000
38632.000000
39438.000000
40230.000000
40972.000000
41665.000000
42366.000000
43088.000000
43941.000000
44742.000000
45462.000000
46221.000000
47070.000000
48018.000000
48779.000000
49485.000000
50213.000000
51018.000000
51839.000000
52668.000000
53627.000000
54697.000000
55655.000000
56445.000000
57143.000000
57841.000000
58569.000000
59748.000000
60734.000000
61582.000000
62423.000000
63536.000000
64588.000000
65521.000000
66234.000000
66941.000000
67726.000000
68847.000000
69841.000000
70722.000000
71521.000000
72608.000000
73531.000000
74279.000000
74993.000000
75776.000000
76684.000000
77753.000000
78540.000000
79347.000000
80202.000000
81127.000000
81963.000000
82671.000000
83383.000000
84160.000000
85248.000000
86130.000000
86869.000000
87635.000000
88435.000000
89480.000000
90261.000000
90994.000000
91747.000000
92533.000000
93282.000000
94015.000000
95143.000000
96168.000000
97048.000000
97762.000000
98522.000000
99303.000000
100095.000000
100856.000000
101579.000000
102411.000000
103475.000000
104338.000000
105119.000000
105825.000000
106542.000000
107425.000000
108500.000000
109356.000000
110074.000000
110863.000000
111752.000000
112652.000000
113471.000000
114182.000000
114861.000000
115552.000000
116281.000000
117322.000000
118118.000000
118825.000000
119626.000000
120520.000000
121290.000000
121982.000000
122725.000000
123477.000000
124389.000000
125187.000000
125916.000000
126714.000000
127586.000000
128412.000000
129189.000000
129890.000000
130654.000000
131452.000000
132358.000000
133127.000000
133839.000000
134636.000000
135521.000000
136442.000000
137164.000000
137926.000000
138755.000000
139790.000000
140530.000000
141259.000000
142062.000000
143083.000000
143946.000000
144680.000000
145420.000000
146234.000000
147202.000000
147992.000000
148696.000000
149420.000000
150204.000000
151282.000000
152061.000000
152748.000000
153449.000000
154376.000000
155390.000000
156213.000000
156909.000000
157693.000000
158554.000000
159380.000000
160093.000000
160895.000000
161874.000000
162760.000000
163469.000000
164177.000000
164941.000000
165730.000000
166492.000000
167257.000000
168280.000000
169213.000000
169970.000000
170684.000000
171473.000000
172293.000000
173182.000000
173947.000000
174688.000000
175504.000000
176407.000000
177247.000000
177976.000000
178712.000000
179471.000000
180284.000000
181091.000000
181809.000000
182557.000000
183393.000000
184296.000000
185076.000000
185785.000000
186540.000000
187354.000000
188295.000000
189041.000000
189725.000000
190464.000000
191365.000000
192259.000000
193048.000000
193774.000000
194513.000000
195284.000000
196029.000000
196727.000000
197410.000000
198141.000000
198975.000000
199810.000000
200534.000000
201240.000000
201959.000000
202694.000000
203381.000000
204074.000000
204844.000000
205673.000000
206382.000000
207070.000000
207801.000000
208621.000000
209412.000000
210117.000000
210784.000000
211432.000000
212045.000000
212665.000000
213354.000000
214169.000000
214862.000000
215546.000000
216288.000000
217309.000000
218226.000000
219008.000000
219691.000000
220355.000000
221036.000000
222086.000000
222973.000000
223773.000000
224624.000000
225515.000000
226455.000000
227230.000000
227947.000000
228675.000000
229594.000000
230372.000000
231107.000000
231917.000000
232804.000000
233532.000000
234223.000000
234968.000000
235902.000000
236665.000000
237358.000000
238085.000000
238896.000000
239765.000000
240495.000000
241221.000000
242033.000000
242899.000000
243650.000000
244362.000000
245133.000000
246185.000000
246965.000000
247668.000000
248391.000000
249283.000000
250292.000000
251096.000000
251799.000000
252501.000000
253247.000000
254292.000000
255000.000000
255736.000000
256490.000000
257291.000000
258167.000000
258970.000000
259711.000000
260618.000000
261671.000000
262436.000000
263135.000000
263839.000000
264629.000000
265508.000000
266264.000000
266954.000000
267664.000000
268444.000000
269472.000000
270198.000000
270871.000000
271568.000000
272334.000000
273251.000000
274002.000000
274738.000000
275558.000000
276427.000000
277164.000000
277868.000000
278613.000000
279427.000000
280200.000000
280918.000000
281657.000000
282419.000000
283330.000000
284123.000000
284825.000000
285505.000000
286228.000000
287205.000000
287917.000000
288602.000000
289269.000000
289991.000000
290924.000000
291662.000000
292365.000000
293083.000000
293874.000000
294750.000000
295502.000000
296208.000000
296923.000000
297799.000000
298795.000000
299578.000000
300259.000000
300925.000000
301630.000000
302455.000000
303240.000000
303992.000000
304725.000000
305529.000000
306477.000000
307265.000000
307964.000000
308662.000000
309394.000000
310335.000000
311102.000000
312144.000000
313066.000000
313884.000000
314680.000000
315481.000000
316303.000000
317026.000000
317740.000000
318486.000000
319253.000000
320053.000000
320761.000000
321452.000000
322199.000000
323041.000000
323805.000000
324548.000000
325339.000000
326320.000000
327093.000000
327774.000000
328444.000000
329191.000000
330028.000000
330822.000000
331602.000000
332551.000000
333494.000000
334258.000000
334971.000000
335713.000000
336532.000000
337418.000000
338176.000000
338895.000000
339686.000000
340751.000000
341633.000000
342352.000000
343116.000000
344086.000000
344892.000000
345615.000000
346384.000000
347256.000000
348261.000000
349072.000000
349785.000000
350569.000000
351385.000000
352265.000000
353058.000000
353765.000000
354530.000000
355359.000000
356258.000000
357078.000000
357821.000000
358574.000000
359367.000000
360160.000000
360966.000000
361740.000000
362454.000000
363148.000000
363895.000000
364681.000000
365584.000000
366343.000000
367056.000000
367800.000000
368655.000000
369662.000000
370658.000000
371414.000000
372107.000000
372806.000000
373894.000000
374758.000000
375496.000000
376268.000000
377284.000000
378249.000000
379148.000000
379916.000000
380631.000000
381353.000000
382104.000000
382929.000000
383959.000000
384933.000000
385818.000000
386535.000000
387219.000000
387940.000000
388782.000000
389532.000000
390304.000000
391377.000000
392323.000000
393183.000000
393984.000000
394729.000000
395474.000000
396320.000000
397440.000000
398387.000000
399266.000000
400011.000000
400767.000000
401590.000000
402335.000000
403053.000000
404109.000000
405046.000000
405946.000000
406723.000000
407459.000000
408226.000000
409154.000000
410009.000000
410714.000000
411380.000000
412068.000000
412857.000000
413715.000000
414498.000000
415188.000000
415870.000000
416633.000000
417707.000000
418588.000000
419343.000000
420055.000000
420791.000000
421827.000000
422730.000000
423485.000000
424181.000000
424903.000000
425659.000000
426730.000000
427630.000000
428345.000000
429074.000000
429835.000000
430681.000000
431517.000000
432298.000000
433144.000000
434194.000000
435089.000000
435883.000000
436598.000000
437339.000000
438145.000000
439162.000000
440091.000000
440871.000000
441572.000000
442278.000000
443153.000000
444285.000000
445240.000000
446064.000000
446761.000000
447434.000000
448145.000000
449155.000000
450101.000000
451022.000000
451788.000000
452512.000000
453255.000000
454208.000000
455000.000000
455733.000000
456451.000000
457501.000000
458461.000000
459388.000000
460217.000000
460925.000000
461615.000000
462346.000000
463128.000000
463868.000000
464608.000000
465672.000000
466583.000000
467380.000000
468131.000000
468874.000000
469632.000000
470345.000000
471039.000000
471749.000000
472550.000000
473337.000000
474070.000000
474787.000000
475508.000000
476350.000000
477123.000000
477824.000000
478519.000000
479292.000000
480127.000000
480881.000000
481583.000000
482303.000000
483088.000000
483868.000000
484582.000000
485289.000000
486032.000000
486821.000000
487603.000000
488324.000000
489042.000000
489783.000000
490599.000000
491520.000000
492247.000000
492923.000000
493632.000000
494650.000000
495499.000000
496235.000000
496980.000000
497715.000000
498552.000000
499392.000000
500137.000000
500850.000000
501624.000000
502569.000000
503393.000000
504112.000000
504804.000000
505535.000000
506380.000000
507207.000000
507967.000000
508684.000000
509444.000000
510298.000000
511145.000000
511913.000000
512620.000000
513311.000000
514036.000000
514840.000000
515743.000000
516480.000000
517168.000000
517880.000000
518676.000000
519637.000000
520380.000000
521065.000000
521754.000000
522505.000000
523494.000000
524273.000000
524988.000000
525691.000000
526454.000000
527468.000000
528325.000000
529111.000000
529887.000000
530751.000000
531766.000000
532624.000000
533385.000000
534083.000000
534756.000000
535445.000000
536296.000000
537100.000000
537831.000000
538864.000000
539811.000000
540614.000000
541326.000000
542079.000000
542945.000000
543973.000000
544880.000000
545629.000000
546341.000000
547075.000000
548016.000000
548927.000000
549707.000000
550435.000000
551199.000000
552264.000000
553220.000000
554127.000000
554913.000000
555634.000000
556366.000000
557156.000000
557976.000000
558740.000000
559514.000000
560445.000000
561467.000000
562301.000000
563015.000000
563708.000000
564413.000000
565293.000000
566129.000000
566865.000000
567559.000000
568311.000000
569383.000000
570327.000000
571224.000000
571992.000000
572719.000000
573507.000000
574348.000000
575176.000000
576013.000000
576780.000000
577499.000000
578247.000000
579031.000000
579910.000000
580727.000000
581464.000000
582277.000000
583173.000000
584177.000000
585153.000000
586031.000000
586791.000000
587512.000000
588236.000000
589011.000000
590091.000000
590996.000000
591792.000000
592512.000000
593265.000000
594100.000000
594949.000000
595733.000000
596485.000000
597329.000000
598379.000000
599258.000000
600001.000000
600736.000000
601482.000000
602321.000000
603173.000000
603955.000000
604657.000000
605357.000000
606171.000000
607074.000000
607924.000000
608644.000000
609356.000000
610107.000000
611075.000000
611899.000000
612615.000000
613304.000000
614037.000000
614877.000000
615652.000000
616373.000000
617099.000000
618051.000000
618991.000000
619911.000000
620674.000000
621378.000000
622098.000000
623143.000000
624118.000000
625031.000000
625801.000000
626471.000000
627120.000000
627765.000000
628679.000000
629700.000000
630472.000000
631217.000000
632182.000000
632977.000000
633731.000000
634548.000000
635516.000000
636414.000000
637246.000000
637959.000000
638651.000000
639345.000000
640117.000000
641041.000000
641869.000000
642588.000000
643286.000000
643987.000000
644783.000000
645621.000000
646370.000000
647064.000000
647769.000000
648644.000000
649425.000000
650150.000000
650867.000000
651622.000000
652388.000000
653144.000000
653885.000000
654672.000000
655418.000000
656124.000000
656827.000000
657559.000000
658298.000000
659058.000000
659825.000000
660566.000000
661255.000000
661943.000000
662676.000000
663491.000000
664327.000000
665049.000000
665757.000000
666472.000000
667208.000000
667913.000000
668615.000000
669342.000000
670373.000000
671193.000000
671884.000000
672620.000000
673378.000000
674301.000000
675099.000000
675789.000000
676480.000000
677181.000000
677964.000000
678732.000000
679445.000000
680170.000000
680945.000000
681756.000000
682508.000000
683223.000000
684023.000000
684906.000000
685747.000000
686470.000000
687181.000000
687908.000000
688665.000000
689372.000000
690079.000000
690856.000000
691843.000000
692646.000000
693387.000000
694095.000000
694838.000000
695664.000000
696426.000000
697153.000000
697876.000000
698764.000000
699585.000000
700303.000000
700979.000000
701682.000000
702436.000000
703335.000000
704052.000000
704780.000000
705554.000000
706469.000000
707286.000000
707998.000000
708714.000000
709462.000000
710461.000000
711230.000000
711950.000000
712635.000000
713345.000000
714074.000000
714914.000000
715625.000000
716319.000000
717076.000000
717893.000000
718708.000000
719469.000000
720179.000000
720912.000000
721668.000000
722489.000000
723253.000000
723967.000000
724710.000000
725492.000000
726321.000000
727073.000000
727778.000000
728519.000000
729329.000000
730085.000000
730794.000000
731488.000000
732209.000000
733014.000000
733789.000000
734519.000000
735224.000000
735966.000000
736794.000000
737546.000000
738271.000000
738995.000000
739781.000000
740661.000000
741448.000000
742160.000000
742862.000000
743601.000000
744468.000000
745253.000000
745982.000000
746683.000000
747416.000000
748259.000000
749137.000000
749866.000000
750569.000000
751280.000000
752015.000000
752863.000000
753609.000000
754330.000000
755034.000000
755761.000000
756480.000000
757184.000000
757878.000000
758661.000000
759465.000000
760250.000000
760995.000000
761725.000000
762471.000000
763432.000000
764273.000000
765037.000000
765713.000000
766368.000000
767047.000000
767768.000000
768421.000000
769107.000000
769975.000000
770716.000000
771721.000000
772653.000000
773558.000000
774358.000000
775059.000000
775751.000000
776489.000000
777266.000000
778171.000000
778905.000000
779610.000000
780283.000000
780969.000000
782083.000000
783063.000000
784010.000000
784913.000000
785674.000000
786438.000000
787214.000000
788168.000000
789014.000000
789835.000000
790723.000000
791531.000000
792333.000000
793093.000000
793980.000000
794804.000000
795741.000000
796607.000000
797356.000000
798151.000000
799094.000000
800084.000000
800959.000000
801786.000000
802602.000000
803350.000000
804091.000000
805028.000000
806019.000000
806923.000000
807748.000000
808485.000000
809250.000000
810069.000000
810905.000000
811749.000000
812515.000000
813308.000000
814207.000000
815289.000000
816258.000000
817148.000000
817959.000000
818824.000000
819685.000000
820531.000000
821264.000000
821968.000000
822777.000000
823829.000000
824766.000000
825604.000000
826326.000000
827038.000000
827942.000000
828898.000000
829789.000000
830531.000000
831282.000000
832085.000000
833160.000000
834061.000000
834776.000000
835503.000000
836322.000000
837435.000000
838390.000000
839211.000000
840011.000000
840846.000000
841870.000000
842672.000000
843455.000000
844268.000000
845126.000000
845878.000000
846716.000000
847734.000000
848661.000000
849418.000000
850121.000000
850905.000000
851949.000000
852917.000000
853861.000000
854757.000000
855626.000000
856540.000000
857429.000000
858199.000000
858997.000000
859781.000000
860530.000000
861254.000000
862060.000000
862993.000000
863877.000000
864629.000000
865423.000000
866396.000000
867313.000000
868098.000000
868859.000000
869666.000000
870484.000000
871308.000000
872072.000000
872824.000000
873685.000000
874630.000000
875491.000000
876248.000000
877040.000000
877897.000000
878794.000000
879580.000000
880288.000000
881042.000000
881820.000000
882853.000000
883680.000000
884428.000000
885248.000000
886268.000000
887153.000000
887881.000000
888643.000000
889436.000000
890296.000000
891086.000000
891936.000000
892783.000000
893568.000000
894289.000000
894992.000000
895755.000000
896685.000000
897415.000000
898139.000000
898904.000000
899720.000000
900491.000000
901213.000000
901942.000000
902857.000000
903701.000000
904498.000000
905206.000000
905920.000000
906698.000000
907523.000000
908278.000000
909014.000000
909769.000000
910564.000000
911418.000000
912179.000000
912881.000000
913584.000000
914362.000000
915411.000000
916220.000000
916916.000000
917555.000000
918199.000000
918852.000000
919502.000000
920356.000000
921326.000000
922094.000000
922791.000000
923491.000000
924264.000000
925184.000000
925902.000000
926596.000000
927319.000000
928134.000000
928953.000000
929872.000000
930629.000000
931342.000000
932141.000000
933072.000000
933873.000000
934592.000000
935272.000000
935970.000000
936936.000000
937795.000000
938536.000000
939203.000000
939851.000000
940523.000000
941236.000000
941937.000000
942651.000000
943625.000000
944502.000000
945343.000000
946139.000000
946845.000000
947535.000000
948256.000000
949050.000000
949894.000000
950676.000000
951415.000000
952185.000000
953217.000000
954075.000000
954870.000000
955596.000000
956300.000000
957056.000000
957880.000000
958811.000000
959626.000000
960394.000000
961185.000000
962040.000000
962808.000000
963537.000000
964342.000000
965179.000000
965969.000000
966700.000000
967374.000000
968059.000000
968769.000000
969725.000000
970734.000000
971696.000000
972631.000000
973572.000000
974398.000000
975123.000000
975885.000000
976680.000000
977500.000000
978501.000000
979411.000000
980145.000000
980817.000000
981542.000000
982297.000000
983013.000000
983783.000000
984621.000000
985566.000000
986470.000000
987292.000000
988030.000000
988713.000000
989429.000000
990200.000000
991195.000000
992022.000000
992792.000000
993556.000000
994312.000000
995209.000000
996055.000000
996800.000000
997529.000000
998315.000000
999249.000000
1000016.000000
1000726.000000
1001474.000000
1002375.000000
1003160.000000
1003907.000000
1004642.000000
1005407.000000
1006326.000000
1007252.000000
1008010.000000
1008725.000000
1009454.000000
1010250.000000
1011048.000000
1011790.000000
1012528.000000
1013370.000000
1014329.000000
1015205.000000
1015971.000000
1016672.000000
1017360.000000
1018078.000000
1018978.000000
1019824.000000
1020583.000000
1021336.000000
1022144.000000
1023000.000000
1023767.000000
1024465.000000
1025141.000000
1025856.000000
1026645.000000
1027387.000000
1028072.000000
1028718.000000
1029370.000000
1030122.000000
1030944.000000
1031627.000000
1032321.000000
1033192.000000
1033941.000000
1034663.000000
1035379.000000
1036169.000000
1037059.000000
1037828.000000
1038608.000000
1039427.000000
1040194.000000
1041010.000000
1041858.000000
1042638.000000
1043358.000000
1044062.000000
1044760.000000
1045507.000000
1046289.000000
1047022.000000
1047727.000000
1048442.000000
1049194.000000
1049956.000000
1050725.000000
1051460.000000
1052197.000000
1052963.000000
1053736.000000
1054528.000000
1055303.000000
1056008.000000
1056685.000000
1057380.000000
1058157.000000
1058913.000000
1059659.000000
1060393.000000
1061220.000000
1062012.000000
1062731.000000
1063434.000000
1064177.000000
1064989.000000
1065755.000000
1066477.000000
1067179.000000
1067888.000000
1068631.000000
1069350.000000
1070031.000000
1070750.000000
1071568.000000
1072377.000000
1073094.000000
1073831.000000
1074771.000000
1075659.000000
1076404.000000
1077088.000000
1077757.000000
1078435.000000
1079220.000000
1079931.000000
1080622.000000
1081327.000000
1082362.000000
1083235.000000
1084009.000000
1084737.000000
1085467.000000
1086298.000000
1087084.000000
1087933.000000
1088707.000000
1089408.000000
1090141.000000
1090868.000000
1091728.000000
1092437.000000
1093152.000000
1093868.000000
1094653.000000
1095515.000000
1096238.000000
1096944.000000
1097666.000000
1098378.000000
1099093.000000
1099756.000000
1100390.000000
1101049.000000
1101717.000000
1102390.000000
1103197.000000
1104095.000000
1104884.000000
1105599.000000
1106278.000000
1106984.000000
1107741.000000
1108563.000000
1109276.000000
1109983.000000
1110716.000000
1111565.000000
1112350.000000
1113160.000000
1113882.000000
1114595.000000
1115408.000000
1116438.000000
1117267.000000
1117977.000000
1118714.000000
1119501.000000
1120391.000000
1121143.000000
1121873.000000
1122643.000000
1123668.000000
1124542.000000
1125342.000000
1126050.000000
1126799.000000
1127672.000000
1128467.000000
1129249.000000
1129942.000000
1130633.000000
1131333.000000
1132074.000000
1132967.000000
1133686.000000
1134377.000000
1135213.000000
1136153.000000
1137011.000000
1137914.000000
1138766.000000
1139512.000000
1140240.000000
1140964.000000
1141784.000000
1142543.000000
1143325.000000
1144209.000000
1144995.000000
1145879.000000
1146696.000000
1147431.000000
1148147.000000
1148914.000000
1149878.000000
1150712.000000
1151572.000000
1152392.000000
1153164.000000
1153895.000000
1154646.000000
1155456.000000
1156281.000000
1157075.000000
1157787.000000
1158513.000000
1159264.000000
1160113.000000
1161008.000000
1161954.000000
1162722.000000
1163423.000000
1164173.000000
1164999.000000
1165926.000000
1166791.000000
1167523.000000
1168250.000000
1169011.000000
1169776.000000
1170605.000000
1171373.000000
1172162.000000
1172966.000000
1173807.000000
1174558.000000
1175268.000000
1176061.000000
1176899.000000
1177684.000000
1178397.000000
1179129.000000
1179892.000000
1180697.000000
1181463.000000
1182196.000000
1182975.000000
1183843.000000
1184768.000000
1185648.000000
1186446.000000
1187193.000000
1187964.000000
1188841.000000
1189815.000000
1190607.000000
1191362.000000
1192196.000000
1193123.000000
1194141.000000
1194992.000000
