ECG (ms)
601.000000
1381.000000
2140.000000
2862.000000
3573.000000
4281.000000
4984.000000
5672.000000
6377.000000
7080.000000
7788.000000
8498.000000
9221.000000
9952.000000
10683.000000
11411.000000
12147.000000
12886.000000
13619.000000
14341.000000
15061.000000
15780.000000
16505.000000
17237.000000
17950.000000
18650.000000
19346.000000
20043.000000
20726.000000
21405.000000
22085.000000
22759.000000
23430.000000
24098.000000
24763.000000
25471.000000
26147.000000
26765.000000
27348.000000
27922.000000
28496.000000
29066.000000
29634.000000
30206.000000
30782.000000
31361.000000
31946.000000
32539.000000
33138.000000
33723.000000
34303.000000
34896.000000
35496.000000
36098.000000
36706.000000
37324.000000
37961.000000
38654.000000
39422.000000
40176.000000
40896.000000
41581.000000
42239.000000
42869.000000
43477.000000
44068.000000
44653.000000
45238.000000
45828.000000
46412.000000
46990.000000
47573.000000
48158.000000
48754.000000
49345.000000
49932.000000
50517.000000
51097.000000
51678.000000
52266.000000
52857.000000
53440.000000
54019.000000
54599.000000
55181.000000
55770.000000
56356.000000
56936.000000
57506.000000
58077.000000
58649.000000
59223.000000
59791.000000
60355.000000
60917.000000
61487.000000
62064.000000
62642.000000
63214.000000
63772.000000
64327.000000
64888.000000
65456.000000
66038.000000
66630.000000
67218.000000
67807.000000
68402.000000
69007.000000
69608.000000
70204.000000
70798.000000
71394.000000
71997.000000
72606.000000
73212.000000
73811.000000
74399.000000
74989.000000
75582.000000
76171.000000
76756.000000
77339.000000
77927.000000
78522.000000
79112.000000
79696.000000
80283.000000
80881.000000
81485.000000
82090.000000
82690.000000
83291.000000
83902.000000
84523.000000
85144.000000
85758.000000
86365.000000
86975.000000
87595.000000
88210.000000
88818.000000
89421.000000
90032.000000
90659.000000
91284.000000
91893.000000
92500.000000
93119.000000
93758.000000
94407.000000
95046.000000
95677.000000
96323.000000
96986.000000
97641.000000
98272.000000
98886.000000
99478.000000
100066.000000
100662.000000
101253.000000
101841.000000
102436.000000
103049.000000
103688.000000
104333.000000
104963.000000
105590.000000
106234.000000
106900.000000
107555.000000
108186.000000
108824.000000
109480.000000
110141.000000
110785.000000
111411.000000
112044.000000
112685.000000
113323.000000
113950.000000
114574.000000
115216.000000
115866.000000
116493.000000
117120.000000
117734.000000
118355.000000
118981.000000
119593.000000
120217.000000
120860.000000
121507.000000
122134.000000
122750.000000
123371.000000
123999.000000
124616.000000
125222.000000
125830.000000
126453.000000
127093.000000
127727.000000
128353.000000
128989.000000
129635.000000
130274.000000
130904.000000
131529.000000
132163.000000
132800.000000
133423.000000
134041.000000
134667.000000
135312.000000
135968.000000
136615.000000
137247.000000
137879.000000
138522.000000
139183.000000
139842.000000
140484.000000
141125.000000
141785.000000
142452.000000
143102.000000
143739.000000
144381.000000
145035.000000
145688.000000
146326.000000
146957.000000
147599.000000
148261.000000
148930.000000
149585.000000
150226.000000
150871.000000
151538.000000
152233.000000
152936.000000
153610.000000
154273.000000
154947.000000
155615.000000
156259.000000
156890.000000
157525.000000
158174.000000
158816.000000
159443.000000
160073.000000
160724.000000
161381.000000
162021.000000
162656.000000
163304.000000
163972.000000
164633.000000
165271.000000
165910.000000
166569.000000
167232.000000
167879.000000
168517.000000
169156.000000
169801.000000
170449.000000
171083.000000
171709.000000
172337.000000
172981.000000
173638.000000
174282.000000
174913.000000
175546.000000
176189.000000
176835.000000
177473.000000
178108.000000
178746.000000
179393.000000
180049.000000
180691.000000
181328.000000
181987.000000
182655.000000
183305.000000
183942.000000
184586.000000
185241.000000
185883.000000
186515.000000
187157.000000
187810.000000
188455.000000
189085.000000
189708.000000
190339.000000
190980.000000
191614.000000
192230.000000
192845.000000
193468.000000
194110.000000
194765.000000
195400.000000
196015.000000
196634.000000
197233.000000
197838.000000
198446.000000
199045.000000
199664.000000
200281.000000
200889.000000
201504.000000
202137.000000
202790.000000
203437.000000
204063.000000
204690.000000
205326.000000
205962.000000
206592.000000
207216.000000
207853.000000
208504.000000
209157.000000
209795.000000
210439.000000
211110.000000
211797.000000
212456.000000
213089.000000
213726.000000
214368.000000
215003.000000
215622.000000
216251.000000
216899.000000
217557.000000
218201.000000
218842.000000
219506.000000
220190.000000
220868.000000
221521.000000
222179.000000
222844.000000
223492.000000
224122.000000
224754.000000
225391.000000
226026.000000
226656.000000
227282.000000
227923.000000
228577.000000
229216.000000
229845.000000
230476.000000
231124.000000
231785.000000
232437.000000
233079.000000
233735.000000
234422.000000
235094.000000
235742.000000
236392.000000
237060.000000
237731.000000
238374.000000
239006.000000
239650.000000
240305.000000
240954.000000
241595.000000
242245.000000
242927.000000
243631.000000
244305.000000
244956.000000
245611.000000
246266.000000
246902.000000
247526.000000
248149.000000
248794.000000
249457.000000
250109.000000
250753.000000
251420.000000
252124.000000
252830.000000
253495.000000
254135.000000
254775.000000
255422.000000
256071.000000
256707.000000
257336.000000
257978.000000
258640.000000
259328.000000
260012.000000
260671.000000
261334.000000
262008.000000
262665.000000
263300.000000
263931.000000
264551.000000
265158.000000
265766.000000
266366.000000
266962.000000
267569.000000
268188.000000
268829.000000
269485.000000
270134.000000
270768.000000
271388.000000
272010.000000
272647.000000
273296.000000
273944.000000
274585.000000
275223.000000
275881.000000
276570.000000
277261.000000
277932.000000
278599.000000
279286.000000
279995.000000
280684.000000
281350.000000
282031.000000
282732.000000
283427.000000
284095.000000
284761.000000
285438.000000
286116.000000
286786.000000
287442.000000
288122.000000
288836.000000
289515.000000
290164.000000
290817.000000
291484.000000
292147.000000
292799.000000
293466.000000
294158.000000
294868.000000
295561.000000
296259.000000
296991.000000
297678.000000
298338.000000
298998.000000
299661.000000
300312.000000
300961.000000
301636.000000
302395.000000
303406.000000
304233.000000
305023.000000
305768.000000
306459.000000
307131.000000
307801.000000
308469.000000
309133.000000
309794.000000
310454.000000
311127.000000
311845.000000
312569.000000
313256.000000
313975.000000
314785.000000
315522.000000
316244.000000
316965.000000
317673.000000
318366.000000
319040.000000
319695.000000
320360.000000
321035.000000
321692.000000
322335.000000
322980.000000
323638.000000
324304.000000
324957.000000
325605.000000
326275.000000
326969.000000
327657.000000
328325.000000
329000.000000
329707.000000
330411.000000
331067.000000
331706.000000
332350.000000
333001.000000
333643.000000
334273.000000
334904.000000
335552.000000
336212.000000
336856.000000
337482.000000
338118.000000
338745.000000
339375.000000
340023.000000
340669.000000
341306.000000
341953.000000
342611.000000
343266.000000
343909.000000
344541.000000
345185.000000
345839.000000
346500.000000
347148.000000
347789.000000
348443.000000
349114.000000
349796.000000
350461.000000
351110.000000
351771.000000
352452.000000
353151.000000
353831.000000
354481.000000
355123.000000
355776.000000
356442.000000
357129.000000
357845.000000
358530.000000
359198.000000
359875.000000
360584.000000
361360.000000
362136.000000
362834.000000
363500.000000
364173.000000
364846.000000
365492.000000
366148.000000
366826.000000
367507.000000
368170.000000
368851.000000
369581.000000
370327.000000
371020.000000
371679.000000
372346.000000
373030.000000
373742.000000
374449.000000
375128.000000
375832.000000
376637.000000
377403.000000
378091.000000
378766.000000
379458.000000
380165.000000
380856.000000
381535.000000
382233.000000
383306.000000
384129.000000
384913.000000
385654.000000
386355.000000
387044.000000
387728.000000
388412.000000
389108.000000
389816.000000
390537.000000
391251.000000
391963.000000
392680.000000
393402.000000
394121.000000
394848.000000
395589.000000
396355.000000
397137.000000
397911.000000
398671.000000
399435.000000
400194.000000
400930.000000
401654.000000
402371.000000
403073.000000
403783.000000
404490.000000
405171.000000
405819.000000
406468.000000
407133.000000
407822.000000
408501.000000
409154.000000
409825.000000
410574.000000
411629.000000
412478.000000
413282.000000
414052.000000
414785.000000
415472.000000
416135.000000
416794.000000
417449.000000
418108.000000
418761.000000
419418.000000
420124.000000
421089.000000
421933.000000
422689.000000
423399.000000
424084.000000
424747.000000
425383.000000
425986.000000
426587.000000
427205.000000
427861.000000
428663.000000
429529.000000
430243.000000
430948.000000
431627.000000
432288.000000
432930.000000
433558.000000
434185.000000
434837.000000
435546.000000
436561.000000
437389.000000
438167.000000
438903.000000
439612.000000
440300.000000
440979.000000
441645.000000
442294.000000
442965.000000
443624.000000
444259.000000
444929.000000
445661.000000
446353.000000
447015.000000
447656.000000
448267.000000
448889.000000
449514.000000
450119.000000
450736.000000
451367.000000
451996.000000
452623.000000
453258.000000
453926.000000
454682.000000
455483.000000
456204.000000
456866.000000
457507.000000
458147.000000
458783.000000
459406.000000
460025.000000
460648.000000
461287.000000
461937.000000
462583.000000
463218.000000
463844.000000
464472.000000
465116.000000
465779.000000
466452.000000
467118.000000
467766.000000
468402.000000
469045.000000
469702.000000
470370.000000
471031.000000
471674.000000
472311.000000
472954.000000
473608.000000
474266.000000
474910.000000
475544.000000
476172.000000
476800.000000
477436.000000
478063.000000
478673.000000
479266.000000
479847.000000
480428.000000
481020.000000
481628.000000
482256.000000
482910.000000
483583.000000
484259.000000
484926.000000
485572.000000
486213.000000
486858.000000
487503.000000
488128.000000
488744.000000
489368.000000
489997.000000
490621.000000
491238.000000
491858.000000
492489.000000
493132.000000
493775.000000
494405.000000
495021.000000
495636.000000
496252.000000
496864.000000
497471.000000
498069.000000
498664.000000
499266.000000
499872.000000
500473.000000
501063.000000
501644.000000
502226.000000
502817.000000
503420.000000
504040.000000
504677.000000
505313.000000
505937.000000
506554.000000
507178.000000
507808.000000
508442.000000
509069.000000
509687.000000
510305.000000
510936.000000
511583.000000
512237.000000
512880.000000
513511.000000
514151.000000
514795.000000
515434.000000
516057.000000
516671.000000
517286.000000
517915.000000
518562.000000
519211.000000
519868.000000
520523.000000
521153.000000
521779.000000
522410.000000
523049.000000
523694.000000
524327.000000
524946.000000
525566.000000
526198.000000
526840.000000
527481.000000
528119.000000
528769.000000
529450.000000
530160.000000
530852.000000
531541.000000
532237.000000
532919.000000
533553.000000
534189.000000
534832.000000
535455.000000
536085.000000
536722.000000
537336.000000
537945.000000
538540.000000
539138.000000
539747.000000
540375.000000
541012.000000
541640.000000
542272.000000
542930.000000
543584.000000
544213.000000
544845.000000
545494.000000
546141.000000
546766.000000
547387.000000
548020.000000
548664.000000
549312.000000
549948.000000
550575.000000
551212.000000
551863.000000
552520.000000
553166.000000
553795.000000
554409.000000
555028.000000
555662.000000
556310.000000
556960.000000
557603.000000
558258.000000
558943.000000
559646.000000
560329.000000
560978.000000
561625.000000
562267.000000
562907.000000
563536.000000
564154.000000
564780.000000
565416.000000
566076.000000
566773.000000
567459.000000
568122.000000
568778.000000
569456.000000
570171.000000
570926.000000
571613.000000
572253.000000
572870.000000
573489.000000
574109.000000
574745.000000
575401.000000
576074.000000
576755.000000
577425.000000
578102.000000
578822.000000
579528.000000
580211.000000
580922.000000
581787.000000
582649.000000
583348.000000
584044.000000
584721.000000
585391.000000
586070.000000
586747.000000
587421.000000
588090.000000
588740.000000
589403.000000
590136.000000
590920.000000
591652.000000
592375.000000
593091.000000
593807.000000
594514.000000
595205.000000
595871.000000
596502.000000
597125.000000
597747.000000
598362.000000
598966.000000
599575.000000
600202.000000
600876.000000
601662.000000
602427.000000
603124.000000
603781.000000
604423.000000
605047.000000
605661.000000
606289.000000
606911.000000
607532.000000
608171.000000
608802.000000
609425.000000
610061.000000
610699.000000
611326.000000
611973.000000
612641.000000
613305.000000
613959.000000
614630.000000
615319.000000
615995.000000
616655.000000
617316.000000
617974.000000
618620.000000
619250.000000
619870.000000
620504.000000
621153.000000
621816.000000
622469.000000
623110.000000
623741.000000
624372.000000
625012.000000
625651.000000
626282.000000
626917.000000
627572.000000
628260.000000
628951.000000
629606.000000
630258.000000
630924.000000
631594.000000
632267.000000
632940.000000
633594.000000
634240.000000
634909.000000
635636.000000
636399.000000
637102.000000
637764.000000
638424.000000
639079.000000
639717.000000
640355.000000
641011.000000
641706.000000
642414.000000
643124.000000
643857.000000
644563.000000
645219.000000
645873.000000
646526.000000
647164.000000
647789.000000
648411.000000
649046.000000
649707.000000
650388.000000
651041.000000
651675.000000
652310.000000
652948.000000
653566.000000
654185.000000
654800.000000
655410.000000
656041.000000
656702.000000
657418.000000
658144.000000
658830.000000
659503.000000
660178.000000
660834.000000
661476.000000
662133.000000
662804.000000
663476.000000
664138.000000
664810.000000
665544.000000
666527.000000
667342.000000
668097.000000
668804.000000
669488.000000
670157.000000
670820.000000
671494.000000
672196.000000
672920.000000
673655.000000
674399.000000
675144.000000
675888.000000
676620.000000
677349.000000
678087.000000
678827.000000
679558.000000
680276.000000
680993.000000
681713.000000
682433.000000
683140.000000
683826.000000
684506.000000
685172.000000
685842.000000
686497.000000
687142.000000
687792.000000
688485.000000
689541.000000
690362.000000
691150.000000
691899.000000
692618.000000
693306.000000
693964.000000
694611.000000
695249.000000
695893.000000
696539.000000
697173.000000
697812.000000
698492.000000
699545.000000
700360.000000
701130.000000
701869.000000
702550.000000
703205.000000
703842.000000
704474.000000
705097.000000
705718.000000
706353.000000
707019.000000
707753.000000
708488.000000
709172.000000
709852.000000
710544.000000
711192.000000
711823.000000
712444.000000
713052.000000
713651.000000
714235.000000
714829.000000
715435.000000
716062.000000
716708.000000
717353.000000
717986.000000
718622.000000
719276.000000
719959.000000
720680.000000
721380.000000
722038.000000
722696.000000
723363.000000
724029.000000
724679.000000
725317.000000
725960.000000
726620.000000
727288.000000
727949.000000
728597.000000
729231.000000
729864.000000
730505.000000
731153.000000
731801.000000
732437.000000
733058.000000
733676.000000
734298.000000
734940.000000
735608.000000
736287.000000
736945.000000
737583.000000
738216.000000
738864.000000
739527.000000
740184.000000
740827.000000
741465.000000
742127.000000
742811.000000
743468.000000
744093.000000
744706.000000
745304.000000
745905.000000
746528.000000
747167.000000
747800.000000
748441.000000
749132.000000
749916.000000
750708.000000
751410.000000
752059.000000
752677.000000
753301.000000
753916.000000
754518.000000
755134.000000
755789.000000
756526.000000
757364.000000
758171.000000
758912.000000
759604.000000
760285.000000
760963.000000
761602.000000
762201.000000
762797.000000
763398.000000
764004.000000
764619.000000
765230.000000
765832.000000
766419.000000
767005.000000
767593.000000
768185.000000
768776.000000
769358.000000
769933.000000
770508.000000
771083.000000
771659.000000
772236.000000
772808.000000
773376.000000
773940.000000
774502.000000
775066.000000
775634.000000
776203.000000
776774.000000
777343.000000
777908.000000
778470.000000
779034.000000
779602.000000
780175.000000
780756.000000
781336.000000
781911.000000
782481.000000
783050.000000
783628.000000
784213.000000
784814.000000
785422.000000
786023.000000
786616.000000
787208.000000
787810.000000
788410.000000
789002.000000
789594.000000
790190.000000
790795.000000
791401.000000
792003.000000
792598.000000
793201.000000
793817.000000
794437.000000
795049.000000
795650.000000
796252.000000
796864.000000
797488.000000
798108.000000
798720.000000
799339.000000
799962.000000
800587.000000
801205.000000
801812.000000
802419.000000
803039.000000
803678.000000
804327.000000
804959.000000
805577.000000
806200.000000
806833.000000
807469.000000
808092.000000
808709.000000
809337.000000
809977.000000
810609.000000
811227.000000
811846.000000
812475.000000
813118.000000
813766.000000
814404.000000
815041.000000
815700.000000
816362.000000
817011.000000
817645.000000
818277.000000
818926.000000
819595.000000
820247.000000
820879.000000
821520.000000
822161.000000
822782.000000
823401.000000
824029.000000
824676.000000
825335.000000
825967.000000
826578.000000
827190.000000
827781.000000
828376.000000
828963.000000
829557.000000
830178.000000
830831.000000
831471.000000
832092.000000
832715.000000
833362.000000
834037.000000
834701.000000
835334.000000
835964.000000
836601.000000
837227.000000
837842.000000
838471.000000
839117.000000
839766.000000
840410.000000
841062.000000
841730.000000
842396.000000
843036.000000
843654.000000
844266.000000
844885.000000
845506.000000
846129.000000
846745.000000
847348.000000
847951.000000
848571.000000
849214.000000
849867.000000
850505.000000
851150.000000
851811.000000
852467.000000
853106.000000
853735.000000
854372.000000
855016.000000
855652.000000
856277.000000
856909.000000
857550.000000
858180.000000
858807.000000
859445.000000
860094.000000
860728.000000
861342.000000
861959.000000
862586.000000
863232.000000
863886.000000
864514.000000
865135.000000
865771.000000
866400.000000
867007.000000
867613.000000
868228.000000
868845.000000
869440.000000
870035.000000
870624.000000
871207.000000
871807.000000
872412.000000
873033.000000
873674.000000
874311.000000
874938.000000
875572.000000
876213.000000
876853.000000
877479.000000
878101.000000
878742.000000
879408.000000
880078.000000
880724.000000
881366.000000
882024.000000
882685.000000
883328.000000
883977.000000
884644.000000
885315.000000
885959.000000
886581.000000
887210.000000
887852.000000
888504.000000
889150.000000
889787.000000
890440.000000
891136.000000
891874.000000
892576.000000
893239.000000
893901.000000
894556.000000
895186.000000
895805.000000
896435.000000
897089.000000
897775.000000
898448.000000
899100.000000
899784.000000
900553.000000
901400.000000
902156.000000
902838.000000
903496.000000
904134.000000
904760.000000
905409.000000
906078.000000
906736.000000
907380.000000
908043.000000
908802.000000
909630.000000
910347.000000
911055.000000
911761.000000
912456.000000
913153.000000
913870.000000
914592.000000
915305.000000
916012.000000
916711.000000
917409.000000
918086.000000
918765.000000
919444.000000
920119.000000
920798.000000
921457.000000
922157.000000
922983.000000
923719.000000
924444.000000
925161.000000
925873.000000
926570.000000
927236.000000
927897.000000
928539.000000
929158.000000
929767.000000
930366.000000
930964.000000
931573.000000
932213.000000
932955.000000
933947.000000
934748.000000
935517.000000
936260.000000
936971.000000
937663.000000
938349.000000
939036.000000
939726.000000
940414.000000
941090.000000
941770.000000
942467.000000
943124.000000
943772.000000
944436.000000
945093.000000
945738.000000
946399.000000
947101.000000
948159.000000
949005.000000
949799.000000
950546.000000
951247.000000
951930.000000
952617.000000
953304.000000
954007.000000
954728.000000
955449.000000
956171.000000
956896.000000
957600.000000
958271.000000
958912.000000
959567.000000
960236.000000
960892.000000
961530.000000
962166.000000
962818.000000
963509.000000
964595.000000
965449.000000
966250.000000
967017.000000
967733.000000
968422.000000
969089.000000
969743.000000
970392.000000
971039.000000
971673.000000
972304.000000
972955.000000
973681.000000
974744.000000
975630.000000
976490.000000
977292.000000
978059.000000
978798.000000
979510.000000
980201.000000
980868.000000
981530.000000
982187.000000
982872.000000
983625.000000
984346.000000
985028.000000
985720.000000
986396.000000
987042.000000
987675.000000
988324.000000
989000.000000
989740.000000
990808.000000
991628.000000
992406.000000
993111.000000
993767.000000
994415.000000
995050.000000
995669.000000
996317.000000
997023.000000
997977.000000
998851.000000
999650.000000
1000431.000000
1001188.000000
1001919.000000
1002650.000000
1003389.000000
1004123.000000
1004847.000000
1005568.000000
1006290.000000
1007010.000000
1007717.000000
1008455.000000
1009166.000000
1009920.000000
1010639.000000
1011341.000000
1012026.000000
1012699.000000
1013370.000000
1014030.000000
1014666.000000
1015309.000000
1015989.000000
1016803.000000
1017829.000000
1018657.000000
1019428.000000
1020127.000000
1020791.000000
1021440.000000
1022073.000000
1022703.000000
1023353.000000
1024039.000000
1024791.000000
1025497.000000
1026169.000000
1026862.000000
1027590.000000
1028276.000000
1028952.000000
1029665.000000
1030476.000000
1031202.000000
1031847.000000
1032501.000000
1033136.000000
1033778.000000
1034392.000000
1035015.000000
1035658.000000
1036308.000000
1036956.000000
1037640.000000
1038441.000000
1039484.000000
1040322.000000
1041109.000000
1041826.000000
1042514.000000
1043186.000000
1043829.000000
1044466.000000
1045118.000000
1045788.000000
1046477.000000
1047141.000000
1047799.000000
1048496.000000
1049392.000000
1050132.000000
1050868.000000
1051606.000000
1052337.000000
1053052.000000
1053763.000000
1054469.000000
1055159.000000
1055835.000000
1056498.000000
1057145.000000
1057799.000000
1058466.000000
1059131.000000
1059781.000000
1060440.000000
1061119.000000
1061818.000000
1062513.000000
1063189.000000
1063846.000000
1064504.000000
1065175.000000
1065864.000000
1066553.000000
1067216.000000
1067862.000000
1068512.000000
1069170.000000
1069834.000000
1070489.000000
1071135.000000
1071793.000000
1072480.000000
1073206.000000
1073890.000000
1074544.000000
1075189.000000
1075845.000000
1076513.000000
1077182.000000
1077838.000000
1078487.000000
1079138.000000
1079797.000000
1080450.000000
1081084.000000
1081715.000000
1082360.000000
1083016.000000
1083674.000000
1084322.000000
1084957.000000
1085590.000000
1086239.000000
1086912.000000
1087616.000000
1088368.000000
1089102.000000
1089786.000000
1090464.000000
1091167.000000
1091869.000000
1092535.000000
1093198.000000
1093862.000000
1094529.000000
1095186.000000
1095831.000000
1096466.000000
1097121.000000
1097808.000000
1098576.000000
1099377.000000
1100083.000000
1100753.000000
1101422.000000
1102107.000000
1102789.000000
1103453.000000
1104115.000000
1104794.000000
1105545.000000
1106592.000000
1107410.000000
1108151.000000
1108849.000000
1109534.000000
1110211.000000
1110874.000000
1111516.000000
1112163.000000
1112792.000000
1113401.000000
1114044.000000
1114711.000000
1115415.000000
1116325.000000
1117196.000000
1117964.000000
1118701.000000
1119420.000000
1120141.000000
1120862.000000
1121575.000000
1122281.000000
1122975.000000
1123644.000000
1124315.000000
1124966.000000
1125598.000000
1126241.000000
1126921.000000
1127837.000000
1128575.000000
1129293.000000
1129993.000000
1130699.000000
1131387.000000
1132072.000000
1132754.000000
1133456.000000
1134107.000000
1134721.000000
1135327.000000
1135938.000000
1136595.000000
1137290.000000
1137923.000000
1138541.000000
1139173.000000
1139800.000000
1140420.000000
1141052.000000
1141702.000000
1142378.000000
1143086.000000
1143794.000000
1144465.000000
1145117.000000
1145784.000000
1146458.000000
1147131.000000
1147796.000000
1148455.000000
1149132.000000
1149853.000000
1150949.000000
1151844.000000
1152678.000000
1153464.000000
1154199.000000
1154884.000000
1155542.000000
1156189.000000
1156849.000000
1157509.000000
1158305.000000
1159157.000000
1160020.000000
1160810.000000
1161603.000000
1162372.000000
1163122.000000
1163850.000000
1164563.000000
1165273.000000
1165983.000000
1166707.000000
1167445.000000
1168175.000000
1168903.000000
1169630.000000
1170375.000000
1171118.000000
1171857.000000
1172564.000000
1173250.000000
1173932.000000
1174609.000000
1175292.000000
1175980.000000
1176688.000000
1177360.000000
1178009.000000
1178657.000000
1179325.000000
1180025.000000
1180822.000000
1181890.000000
1182716.000000
1183492.000000
1184202.000000
1184884.000000
1185555.000000
1186229.000000
1186881.000000
1187518.000000
1188162.000000
1188827.000000
1189491.000000
1190135.000000
1190784.000000
1191413.000000
1192056.000000
1192739.000000
1193482.000000
1194287.000000
1195373.000000
1196206.000000
1196992.000000
1197706.000000
1198392.000000
1199070.000000
1199721.000000
1200359.000000
1200984.000000
1201619.000000
1202267.000000
1202922.000000
1203577.000000
1204225.000000
1204913.000000
1206009.000000
1206888.000000
1207731.000000
1208528.000000
1209281.000000
1209995.000000
1210674.000000
1211317.000000
1211974.000000
1212633.000000
1213315.000000
1214028.000000
1214750.000000
1215458.000000
1216190.000000
1216950.000000
1217652.000000
1218331.000000
1219016.000000
1219712.000000
1220416.000000
1221094.000000
1221738.000000
1222391.000000
1223041.000000
1223676.000000
1224308.000000
1224928.000000
1225543.000000
1226166.000000
1226800.000000
1227450.000000
1228126.000000
1228800.000000
1229449.000000
1230094.000000
1230753.000000
1231430.000000
1232124.000000
1232797.000000
1233458.000000
1234129.000000
1234818.000000
1235536.000000
1236288.000000
1237051.000000
1237824.000000
1238587.000000
1239313.000000
1240013.000000
1240690.000000
1241349.000000
1241992.000000
1242644.000000
1243312.000000
1244004.000000
1244741.000000
1245511.000000
1246210.000000
1246877.000000
1247548.000000
1248235.000000
1248943.000000
1249649.000000
1250329.000000
1251014.000000
1251746.000000
1252751.000000
1253684.000000
1254465.000000
1255173.000000
1255838.000000
1256491.000000
1257164.000000
1257872.000000
1258615.000000
1259357.000000
1260092.000000
1260838.000000
1261566.000000
1262282.000000
1262996.000000
1263717.000000
1264434.000000
1265138.000000
1265839.000000
1266564.000000
1267298.000000
1268016.000000
1268715.000000
1269397.000000
1270075.000000
1270753.000000
1271430.000000
1272098.000000
1272755.000000
1273405.000000
1274066.000000
1274756.000000
1275498.000000
1276334.000000
1277081.000000
1277777.000000
1278445.000000
1279114.000000
1279777.000000
1280430.000000
1281070.000000
1281725.000000
1282412.000000
1283151.000000
1283884.000000
1284581.000000
1285289.000000
1286023.000000
1286706.000000
1287362.000000
1288020.000000
1288675.000000
1289332.000000
1289993.000000
1290646.000000
1291288.000000
1291924.000000
1292565.000000
1293204.000000
1293822.000000
1294445.000000
1295058.000000
1295680.000000
1296323.000000
1297013.000000
1297751.000000
1298440.000000
1299103.000000
1299770.000000
1300446.000000
1301118.000000
1301766.000000
1302403.000000
1303042.000000
1303684.000000
1304328.000000
1304965.000000
1305593.000000
1306231.000000
1306895.000000
1307583.000000
1308281.000000
1308973.000000
1309640.000000
1310306.000000
1310983.000000
1311665.000000
1312339.000000
1312989.000000
1313635.000000
1314293.000000
1314965.000000
1315642.000000
1316298.000000
1316951.000000
1317607.000000
1318270.000000
1318919.000000
1319555.000000
1320202.000000
1320860.000000
1321525.000000
1322172.000000
1322811.000000
1323462.000000
1324123.000000
1324793.000000
1325457.000000
1326118.000000
1326798.000000
1327550.000000
1328459.000000
1329203.000000
1329907.000000
1330596.000000
1331263.000000
1331917.000000
1332578.000000
1333236.000000
1333897.000000
1334568.000000
1335237.000000
1335916.000000
1336639.000000
1337340.000000
1337992.000000
1338634.000000
1339291.000000
1339976.000000
1340682.000000
1341354.000000
1342005.000000
1342662.000000
1343332.000000
1343991.000000
1344640.000000
1345298.000000
1345985.000000
1346700.000000
1347386.000000
1348051.000000
1348729.000000
1349422.000000
1350113.000000
1350783.000000
1351470.000000
1352183.000000
1352879.000000
1353548.000000
1354217.000000
1354894.000000
1355583.000000
1356266.000000
1356944.000000
1357654.000000
1358462.000000
1359487.000000
1360278.000000
1360988.000000
1361661.000000
1362312.000000
1362956.000000
1363623.000000
1364341.000000
1365071.000000
1365802.000000
1366521.000000
1367243.000000
1367969.000000
1368700.000000
1369425.000000
1370150.000000
1370890.000000
1371635.000000
1372381.000000
1373130.000000
1373884.000000
1374629.000000
1375373.000000
1376098.000000
1376789.000000
1377460.000000
1378120.000000
1378768.000000
1379437.000000
1380175.000000
1381084.000000
1381866.000000
1382621.000000
1383358.000000
1384078.000000
1384791.000000
1385515.000000
1386242.000000
1386965.000000
1387669.000000
1388377.000000
1389095.000000
1389804.000000
1390495.000000
1391173.000000
1391834.000000
1392512.000000
1393214.000000
1393908.000000
1394576.000000
1395245.000000
1395932.000000
1396631.000000
1397303.000000
1397977.000000
1398679.000000
1399418.000000
1400154.000000
1400839.000000
1401518.000000
1402210.000000
1402895.000000
1403557.000000
1404195.000000
1404831.000000
1405474.000000
1406116.000000
1406741.000000
1407374.000000
1408001.000000
1408619.000000
1409252.000000
1409909.000000
1410580.000000
1411236.000000
1411883.000000
1412538.000000
1413209.000000
1413892.000000
1414559.000000
1415210.000000
1415866.000000
1416535.000000
1417220.000000
1417918.000000
1418623.000000
1419316.000000
1419995.000000
1420691.000000
1421440.000000
1422508.000000
1423344.000000
1424127.000000
1424877.000000
1425588.000000
1426290.000000
1426989.000000
1427686.000000
1428379.000000
1429103.000000
1429842.000000
1430579.000000
1431312.000000
1432048.000000
1432797.000000
1433556.000000
1434308.000000
1435057.000000
1435817.000000
1436551.000000
1437259.000000
1437946.000000
1438653.000000
1439342.000000
1439992.000000
1440639.000000
1441310.000000
1442047.000000
1443043.000000
1443916.000000
1444717.000000
1445489.000000
1446229.000000
1446960.000000
1447687.000000
1448405.000000
1449125.000000
1449862.000000
1450603.000000
1451336.000000
1452086.000000
1452806.000000
1453507.000000
1454210.000000
1454916.000000
1455660.000000
1456425.000000
1457143.000000
1457857.000000
1458528.000000
1459186.000000
1459849.000000
1460502.000000
1461162.000000
1461871.000000
1462952.000000
1463793.000000
1464588.000000
1465368.000000
1466097.000000
1466810.000000
1467500.000000
1468175.000000
1468842.000000
1469531.000000
1470331.000000
1471078.000000
1471830.000000
1472587.000000
1473377.000000
1474192.000000
1474976.000000
1475757.000000
1476519.000000
1477262.000000
1477994.000000
1478727.000000
1479477.000000
1480228.000000
1480954.000000
1481648.000000
1482319.000000
1482988.000000
1483654.000000
1484339.000000
1485049.000000
1485815.000000
1486705.000000
1487477.000000
1488253.000000
1489038.000000
1489825.000000
1490594.000000
1491352.000000
1492091.000000
1492820.000000
1493578.000000
1494338.000000
1495082.000000
1495814.000000
1496553.000000
1497400.000000
1498177.000000
1498941.000000
1499720.000000
1500495.000000
1501244.000000
1501960.000000
1502655.000000
1503371.000000
1504161.000000
1504967.000000
1505757.000000
1506521.000000
1507296.000000
1508068.000000
1508844.000000
1509605.000000
1510364.000000
1511118.000000
1511876.000000
1512617.000000
1513337.000000
1514067.000000
1514811.000000
1515530.000000
1516218.000000
1516884.000000
1517580.000000
1518334.000000
1519385.000000
1520229.000000
1520989.000000
1521722.000000
1522445.000000
1523166.000000
1523907.000000
1524658.000000
1525414.000000
1526188.000000
1527001.000000
1527811.000000
1528593.000000
1529381.000000
1530162.000000
1530917.000000
1531653.000000
1532347.000000
1533026.000000
1533693.000000
1534328.000000
1534988.000000
1535638.000000
1536303.000000
1537001.000000
1537716.000000
1538411.000000
1539121.000000
1540248.000000
1541139.000000
1541986.000000
1542787.000000
1543518.000000
1544216.000000
1544891.000000
1545554.000000
1546196.000000
1546841.000000
1547513.000000
1548249.000000
1549201.000000
1550079.000000
1550875.000000
1551642.000000
1552394.000000
1553132.000000
1553880.000000
1554630.000000
1555371.000000
1556103.000000
1556855.000000
1557599.000000
1558309.000000
1558996.000000
1559674.000000
1560361.000000
1561111.000000
1562112.000000
1562978.000000
1563738.000000
1564454.000000
1565161.000000
1565859.000000
1566534.000000
1567201.000000
1567892.000000
1568624.000000
1569403.000000
1570134.000000
1570876.000000
1571731.000000
1572446.000000
1573153.000000
1573853.000000
1574538.000000
1575187.000000
1575832.000000
1576523.000000
1577690.000000
1578639.000000
1579516.000000
1580343.000000
1581146.000000
1581922.000000
1582645.000000
1583364.000000
1584105.000000
1584826.000000
1585549.000000
1586258.000000
1587092.000000
1587887.000000
1588677.000000
1589437.000000
1590194.000000
1590960.000000
1591734.000000
1592503.000000
1593275.000000
1594080.000000
1594896.000000
1595686.000000
1596465.000000
1597244.000000
1598027.000000
1598804.000000
1599572.000000
1600311.000000
1601073.000000
1601806.000000
1602569.000000
1603342.000000
1604113.000000
1604863.000000
1605603.000000
1606384.000000
1607158.000000
1607908.000000
1608638.000000
1609369.000000
1610141.000000
1610889.000000
1611586.000000
1612264.000000
1612940.000000
1613638.000000
1614343.000000
1615024.000000
1615699.000000
1616408.000000
1617203.000000
1618314.000000
1619220.000000
1620050.000000
1620822.000000
1621550.000000
1622259.000000
1622968.000000
1623679.000000
1624399.000000
1625096.000000
1625784.000000
1626665.000000
1627448.000000
1628227.000000
1629021.000000
1629818.000000
1630601.000000
1631380.000000
1632152.000000
1632924.000000
1633681.000000
1634396.000000
1635109.000000
1635839.000000
1636544.000000
1637220.000000
1637871.000000
1638536.000000
1639195.000000
1639887.000000
1640618.000000
1641380.000000
1642112.000000
1642802.000000
1643502.000000
1644242.000000
1645061.000000
1645777.000000
1646455.000000
1647138.000000
1647842.000000
1648576.000000
1649313.000000
1650022.000000
1650772.000000
1651914.000000
1652809.000000
1653661.000000
1654464.000000
1655208.000000
1655927.000000
1656651.000000
1657377.000000
1658107.000000
1658859.000000
1659661.000000
1660481.000000
1661296.000000
1662117.000000
1662933.000000
1663753.000000
1664586.000000
1665388.000000
1666181.000000
1666932.000000
1667659.000000
1668370.000000
1669104.000000
1669886.000000
1670696.000000
1671503.000000
1672279.000000
1673036.000000
1673781.000000
1674536.000000
1675284.000000
1676031.000000
1676765.000000
1677491.000000
1678203.000000
1678896.000000
1679613.000000
1680365.000000
1681269.000000
1681999.000000
1682710.000000
1683440.000000
1684184.000000
1684898.000000
1685621.000000
1686349.000000
1687055.000000
1687750.000000
1688477.000000
1689595.000000
1690475.000000
1691301.000000
1692108.000000
1692884.000000
1693625.000000
1694328.000000
1695004.000000
1695712.000000
1696429.000000
1697214.000000
1697973.000000
1698757.000000
1699559.000000
1700346.000000
1701119.000000
1701885.000000
1702651.000000
1703415.000000
1704178.000000
1704910.000000
1705672.000000
1706430.000000
1707153.000000
1707874.000000
1708646.000000
1709402.000000
1710108.000000
1710818.000000
1711517.000000
1712232.000000
1712938.000000
1713622.000000
1714368.000000
1715437.000000
1716277.000000
1717008.000000
1717701.000000
1718375.000000
1719040.000000
1719694.000000
1720382.000000
1721200.000000
1721959.000000
1722706.000000
1723464.000000
1724228.000000
1724998.000000
1725755.000000
1726499.000000
1727241.000000
1727977.000000
1728695.000000
1729408.000000
1730085.000000
1730786.000000
1731532.000000
1732348.000000
1733082.000000
1733784.000000
1734489.000000
1735190.000000
1735866.000000
1736546.000000
1737241.000000
1737929.000000
1738598.000000
1739284.000000
1740011.000000
1741143.000000
1742016.000000
1742836.000000
1743593.000000
1744289.000000
1744946.000000
1745595.000000
1746237.000000
1746864.000000
1747512.000000
1748205.000000
1749221.000000
1750164.000000
1751057.000000
1751932.000000
1752769.000000
1753556.000000
1754314.000000
1755061.000000
1755809.000000
1756565.000000
1757341.000000
1758116.000000
1758881.000000
1759632.000000
1760383.000000
1761141.000000
1761899.000000
1762656.000000
1763426.000000
1764208.000000
1765009.000000
1765832.000000
1766633.000000
1767405.000000
1768150.000000
1768871.000000
1769588.000000
1770333.000000
1771137.000000
1771996.000000
1772922.000000
1773758.000000
1774527.000000
1775276.000000
1776016.000000
1776766.000000
1777523.000000
1778291.000000
1779065.000000
1779826.000000
1780573.000000
1781298.000000
1782042.000000
1782815.000000
1783618.000000
1784425.000000
1785198.000000
1785958.000000
1786689.000000
1787407.000000
1788145.000000
1788913.000000
1789713.000000
1790489.000000
1791214.000000
1791933.000000
1792634.000000
1793324.000000
1794007.000000
1794730.000000
1795636.000000
1796527.000000
1797309.000000
1798059.000000
1798788.000000
1799506.000000
1800221.000000
1800909.000000
1801569.000000
1802246.000000
1803005.000000
1803881.000000
1804663.000000
1805464.000000
1806252.000000
1807024.000000
1807792.000000
1808555.000000
1809324.000000
1810075.000000
1810799.000000
1811502.000000
1812226.000000
1813013.000000
1813764.000000
1814501.000000
1815223.000000
1815927.000000
1816635.000000
1817331.000000
1818041.000000
1818736.000000
1819424.000000
1820152.000000
1821256.000000
1822152.000000
1822983.000000
1823753.000000
1824487.000000
1825183.000000
1825860.000000
1826549.000000
1827242.000000
1827933.000000
1828642.000000
1829748.000000
1830643.000000
1831508.000000
1832334.000000
1833135.000000
1833909.000000
1834656.000000
1835389.000000
1836127.000000
1836874.000000
1837655.000000
1838479.000000
1839321.000000
1840147.000000
1840930.000000
1841673.000000
1842404.000000
1843139.000000
1843873.000000
1844629.000000
1845397.000000
1846154.000000
1846895.000000
1847663.000000
1848426.000000
1849199.000000
1849952.000000
1850686.000000
1851405.000000
1852138.000000
1852846.000000
1853571.000000
1854358.000000
1855135.000000
1855892.000000
1856653.000000
1857408.000000
1858126.000000
1858815.000000
1859495.000000
1860189.000000
1860926.000000
1862005.000000
1862886.000000
1863699.000000
1864468.000000
1865202.000000
1865923.000000
1866649.000000
1867406.000000
1868191.000000
1868994.000000
1869815.000000
1870628.000000
1871420.000000
1872203.000000
1872979.000000
1873728.000000
1874472.000000
1875198.000000
1875964.000000
1876747.000000
1877531.000000
1878290.000000
1879031.000000
1879759.000000
1880469.000000
1881192.000000
1881898.000000
1882563.000000
1883228.000000
1883924.000000
1884736.000000
1885618.000000
1886304.000000
1886985.000000
1887647.000000
1888287.000000
1888940.000000
1889613.000000
1890350.000000
1891421.000000
1892275.000000
1893090.000000
1893851.000000
1894572.000000
1895282.000000
1895986.000000
1896732.000000
1897502.000000
1898281.000000
1899047.000000
1899820.000000
1900608.000000
1901408.000000
1902229.000000
1903019.000000
1903793.000000
1904558.000000
1905309.000000
1906019.000000
1906697.000000
1907350.000000
1907991.000000
1908640.000000
1909363.000000
1910453.000000
1911295.000000
1912129.000000
1912929.000000
1913712.000000
1914432.000000
1915112.000000
1915791.000000
1916465.000000
1917165.000000
1918034.000000
1918803.000000
1919567.000000
1920317.000000
1921057.000000
1921792.000000
1922507.000000
1923211.000000
1923891.000000
1924552.000000
1925175.000000
1925796.000000
1926480.000000
1927403.000000
1928221.000000
1928960.000000
1929668.000000
1930356.000000
1931009.000000
1931644.000000
1932259.000000
1932865.000000
1933476.000000
1934090.000000
1934707.000000
1935328.000000
1935943.000000
1936552.000000
1937167.000000
