ECG (ms)
510.000000
1236.000000
1946.000000
2664.000000
3385.000000
4103.000000
4836.000000
5617.000000
6419.000000
7222.000000
8036.000000
8807.000000
9568.000000
10338.000000
11115.000000
11912.000000
12698.000000
13469.000000
14213.000000
14935.000000
15645.000000
16357.000000
17100.000000
17916.000000
18792.000000
19664.000000
20490.000000
21265.000000
22006.000000
22729.000000
23450.000000
24183.000000
24936.000000
25715.000000
26505.000000
27288.000000
28056.000000
28802.000000
29550.000000
30303.000000
31064.000000
31839.000000
32602.000000
33353.000000
34102.000000
34838.000000
35556.000000
36269.000000
36989.000000
37720.000000
38467.000000
39221.000000
39962.000000
40690.000000
41396.000000
42115.000000
42860.000000
43640.000000
44436.000000
45233.000000
46012.000000
46772.000000
47499.000000
48214.000000
48938.000000
49698.000000
50489.000000
51272.000000
52057.000000
52811.000000
53573.000000
54350.000000
55125.000000
55906.000000
56661.000000
57394.000000
58110.000000
58809.000000
59516.000000
60259.000000
61045.000000
61826.000000
62605.000000
63370.000000
64116.000000
64853.000000
65575.000000
66307.000000
67081.000000
67913.000000
68745.000000
69577.000000
70391.000000
71190.000000
71960.000000
72714.000000
73447.000000
74160.000000
74896.000000
75662.000000
76485.000000
77308.000000
78143.000000
78950.000000
79718.000000
80472.000000
81239.000000
82030.000000
82808.000000
83610.000000
84407.000000
85190.000000
85948.000000
86712.000000
87484.000000
88278.000000
89049.000000
89816.000000
90564.000000
91314.000000
92076.000000
92835.000000
93585.000000
94326.000000
95052.000000
95783.000000
96541.000000
97300.000000
98070.000000
98846.000000
99611.000000
100359.000000
101096.000000
101839.000000
102620.000000
103412.000000
104217.000000
105010.000000
105767.000000
106507.000000
107237.000000
107983.000000
108738.000000
109499.000000
110259.000000
111018.000000
111751.000000
112481.000000
113229.000000
114004.000000
114795.000000
115591.000000
116360.000000
117115.000000
117864.000000
118621.000000
119402.000000
120184.000000
120963.000000
121722.000000
122479.000000
123241.000000
124024.000000
124810.000000
125578.000000
126314.000000
127026.000000
127721.000000
128422.000000
129157.000000
129943.000000
130759.000000
131566.000000
132317.000000
133065.000000
133816.000000
134578.000000
135336.000000
136098.000000
136846.000000
137584.000000
138345.000000
139163.000000
139994.000000
140820.000000
141623.000000
142377.000000
143104.000000
143819.000000
144534.000000
145251.000000
145973.000000
146677.000000
147366.000000
148043.000000
148721.000000
149405.000000
150131.000000
150951.000000
151832.000000
152727.000000
153606.000000
154431.000000
155207.000000
155947.000000
156691.000000
157434.000000
158190.000000
158945.000000
159682.000000
160409.000000
161123.000000
161839.000000
162573.000000
163331.000000
164101.000000
164849.000000
165575.000000
166281.000000
166990.000000
167698.000000
168409.000000
169091.000000
169755.000000
170433.000000
171123.000000
171817.000000
172498.000000
173179.000000
173880.000000
174612.000000
175358.000000
176112.000000
176841.000000
177545.000000
178240.000000
178919.000000
179602.000000
180315.000000
181083.000000
181876.000000
182650.000000
183403.000000
184167.000000
184937.000000
185712.000000
186479.000000
187220.000000
187937.000000
188645.000000
189358.000000
190089.000000
190854.000000
191621.000000
192375.000000
193120.000000
193838.000000
194561.000000
195299.000000
196069.000000
196845.000000
197600.000000
198331.000000
199040.000000
199743.000000
200457.000000
201196.000000
201945.000000
202700.000000
203456.000000
204215.000000
204942.000000
205660.000000
206369.000000
207095.000000
207932.000000
208866.000000
209777.000000
210615.000000
211438.000000
212267.000000
213092.000000
213903.000000
214696.000000
215457.000000
216197.000000
216921.000000
217655.000000
218427.000000
219241.000000
220067.000000
220869.000000
221643.000000
222412.000000
223201.000000
224015.000000
224823.000000
225618.000000
226384.000000
227132.000000
227875.000000
228638.000000
229438.000000
230265.000000
231069.000000
231848.000000
232622.000000
233395.000000
234166.000000
234936.000000
235712.000000
236469.000000
237212.000000
237960.000000
238730.000000
239523.000000
240325.000000
241108.000000
241860.000000
242599.000000
243323.000000
244049.000000
244798.000000
245563.000000
246333.000000
247090.000000
247840.000000
248583.000000
249300.000000
250015.000000
250742.000000
251475.000000
252223.000000
252994.000000
253760.000000
254522.000000
255298.000000
256082.000000
256890.000000
257701.000000
258483.000000
259237.000000
259955.000000
260662.000000
261370.000000
262090.000000
262833.000000
263598.000000
264375.000000
265141.000000
265942.000000
266767.000000
267596.000000
268384.000000
269143.000000
269886.000000
270623.000000
271365.000000
272116.000000
272865.000000
273620.000000
274395.000000
275186.000000
275969.000000
276754.000000
277509.000000
278242.000000
278943.000000
279633.000000
280326.000000
281064.000000
281896.000000
282731.000000
283548.000000
284348.000000
285184.000000
286031.000000
286829.000000
287611.000000
288353.000000
289064.000000
289767.000000
290490.000000
291238.000000
292000.000000
292762.000000
293533.000000
294306.000000
295107.000000
295907.000000
296711.000000
297520.000000
298301.000000
299044.000000
299774.000000
300517.000000
301297.000000
302098.000000
302912.000000
303696.000000
304474.000000
305273.000000
306091.000000
306881.000000
307632.000000
308380.000000
309122.000000
309857.000000
310597.000000
311332.000000
312064.000000
312821.000000
313622.000000
314420.000000
315200.000000
315959.000000
316726.000000
317491.000000
318240.000000
318972.000000
319686.000000
320387.000000
321093.000000
321816.000000
322570.000000
323345.000000
324119.000000
324877.000000
325648.000000
326439.000000
327219.000000
327969.000000
328697.000000
329419.000000
330145.000000
330882.000000
331636.000000
332391.000000
333133.000000
333869.000000
334606.000000
335362.000000
336105.000000
336855.000000
337609.000000
338393.000000
339188.000000
339956.000000
340697.000000
341427.000000
342156.000000
342904.000000
343662.000000
344438.000000
345213.000000
345963.000000
346718.000000
347478.000000
348241.000000
349005.000000
349759.000000
350518.000000
351298.000000
352082.000000
352871.000000
353645.000000
354398.000000
355125.000000
355841.000000
356554.000000
357282.000000
358047.000000
358851.000000
359670.000000
360479.000000
361285.000000
362089.000000
362885.000000
363655.000000
364401.000000
365119.000000
365835.000000
366561.000000
367303.000000
368061.000000
368822.000000
369559.000000
370291.000000
371007.000000
371731.000000
372475.000000
373251.000000
374077.000000
374883.000000
375671.000000
376417.000000
377152.000000
377891.000000
378639.000000
379396.000000
380155.000000
380898.000000
381656.000000
382433.000000
383209.000000
383961.000000
384707.000000
385464.000000
386222.000000
386972.000000
387718.000000
388454.000000
389198.000000
389962.000000
390723.000000
391481.000000
392251.000000
393033.000000
393814.000000
394592.000000
395365.000000
396158.000000
396944.000000
397730.000000
398522.000000
399334.000000
400153.000000
400953.000000
401738.000000
402504.000000
403281.000000
404063.000000
404824.000000
405573.000000
406309.000000
407033.000000
407774.000000
408573.000000
409546.000000
410531.000000
411477.000000
412374.000000
413231.000000
414082.000000
414923.000000
415726.000000
416494.000000
417242.000000
417990.000000
418742.000000
419527.000000
420329.000000
421109.000000
421869.000000
422631.000000
423413.000000
424249.000000
425113.000000
425993.000000
426834.000000
427648.000000
428433.000000
429211.000000
429982.000000
430761.000000
431539.000000
432304.000000
433058.000000
433802.000000
434552.000000
435343.000000
436147.000000
436946.000000
437724.000000
438474.000000
439200.000000
439913.000000
440642.000000
441414.000000
442246.000000
443082.000000
443897.000000
444679.000000
445448.000000
446205.000000
446980.000000
447769.000000
448548.000000
449320.000000
450079.000000
450828.000000
451608.000000
452410.000000
453200.000000
453976.000000
454745.000000
455522.000000
456297.000000
457075.000000
457834.000000
458573.000000
459294.000000
460004.000000
460744.000000
461590.000000
462583.000000
463469.000000
464296.000000
465117.000000
465936.000000
466746.000000
467529.000000
468270.000000
468983.000000
469692.000000
470396.000000
471123.000000
471883.000000
472633.000000
473375.000000
474103.000000
474845.000000
475627.000000
476432.000000
477224.000000
477992.000000
478741.000000
479466.000000
480197.000000
480937.000000
481680.000000
482426.000000
483161.000000
483896.000000
484623.000000
485387.000000
486185.000000
486993.000000
487778.000000
488554.000000
489327.000000
490118.000000
490959.000000
491811.000000
492651.000000
493467.000000
494227.000000
494964.000000
495664.000000
496370.000000
497095.000000
497925.000000
498847.000000
499729.000000
500547.000000
501353.000000
502195.000000
503061.000000
503946.000000
504773.000000
505553.000000
506290.000000
507004.000000
507710.000000
508407.000000
509101.000000
509791.000000
510479.000000
511192.000000
511935.000000
512697.000000
513477.000000
514226.000000
514945.000000
515656.000000
516381.000000
517127.000000
517909.000000
518715.000000
519519.000000
520299.000000
521056.000000
521818.000000
522577.000000
523344.000000
524080.000000
524791.000000
525466.000000
526113.000000
526763.000000
527414.000000
528084.000000
528806.000000
529611.000000
530401.000000
531169.000000
531921.000000
532648.000000
533356.000000
534043.000000
534721.000000
535400.000000
536117.000000
536915.000000
537780.000000
538632.000000
539437.000000
540201.000000
540953.000000
541713.000000
542478.000000
543246.000000
544006.000000
544746.000000
545485.000000
546249.000000
547059.000000
547881.000000
548678.000000
549447.000000
550212.000000
550979.000000
551765.000000
552565.000000
553338.000000
554075.000000
554802.000000
555516.000000
556240.000000
557035.000000
557933.000000
558823.000000
559671.000000
560486.000000
561262.000000
562025.000000
562807.000000
563623.000000
564417.000000
565200.000000
565960.000000
566695.000000
567415.000000
568149.000000
568920.000000
569732.000000
570560.000000
571380.000000
572152.000000
572890.000000
573623.000000
574386.000000
575182.000000
575974.000000
576750.000000
577513.000000
578256.000000
578976.000000
579689.000000
580406.000000
581152.000000
581920.000000
582694.000000
583469.000000
584231.000000
584997.000000
585739.000000
586466.000000
587177.000000
587877.000000
588560.000000
589239.000000
589924.000000
590625.000000
591324.000000
592029.000000
592726.000000
593428.000000
594114.000000
594782.000000
595439.000000
596092.000000
596755.000000
597432.000000
598133.000000
598839.000000
599569.000000
600348.000000
601167.000000
602009.000000
602841.000000
603645.000000
604419.000000
605184.000000
605951.000000
606723.000000
607513.000000
608318.000000
609116.000000
609906.000000
610704.000000
611523.000000
612382.000000
613219.000000
614012.000000
614780.000000
615539.000000
616286.000000
617027.000000
617771.000000
618508.000000
619254.000000
620006.000000
620803.000000
621648.000000
622498.000000
623306.000000
624074.000000
624828.000000
625566.000000
626295.000000
627025.000000
627737.000000
628441.000000
629144.000000
629862.000000
630619.000000
631442.000000
632260.000000
633053.000000
633849.000000
634653.000000
635459.000000
636257.000000
637030.000000
637783.000000
638518.000000
639255.000000
640006.000000
640762.000000
641529.000000
642292.000000
643046.000000
643789.000000
644552.000000
645355.000000
646167.000000
646967.000000
647749.000000
648525.000000
649324.000000
650137.000000
650949.000000
651727.000000
652486.000000
653230.000000
653992.000000
654763.000000
655560.000000
656352.000000
657128.000000
657877.000000
658624.000000
659376.000000
660170.000000
660977.000000
661797.000000
662591.000000
663359.000000
664124.000000
664918.000000
665737.000000
666558.000000
667372.000000
668158.000000
668905.000000
669645.000000
670396.000000
671165.000000
671935.000000
672699.000000
673453.000000
674203.000000
674977.000000
675807.000000
676655.000000
677482.000000
678267.000000
679040.000000
679811.000000
680597.000000
681377.000000
682158.000000
682933.000000
683703.000000
684472.000000
685288.000000
686152.000000
686990.000000
687762.000000
688499.000000
689217.000000
689948.000000
690678.000000
691405.000000
692113.000000
692794.000000
693456.000000
694110.000000
694754.000000
695391.000000
696013.000000
696623.000000
697228.000000
697835.000000
698451.000000
699074.000000
699715.000000
700367.000000
701020.000000
701674.000000
702311.000000
702943.000000
703573.000000
704209.000000
704860.000000
705555.000000
706296.000000
707046.000000
707798.000000
708547.000000
709275.000000
710006.000000
710751.000000
711534.000000
712346.000000
713114.000000
713860.000000
714600.000000
715340.000000
716072.000000
716794.000000
717510.000000
718207.000000
718909.000000
719631.000000
720363.000000
721101.000000
721835.000000
722553.000000
723249.000000
723936.000000
724604.000000
725269.000000
725932.000000
726612.000000
727332.000000
728085.000000
728824.000000
729546.000000
730245.000000
730915.000000
731564.000000
732204.000000
732850.000000
733511.000000
734175.000000
734849.000000
735530.000000
736198.000000
736874.000000
737568.000000
738281.000000
739008.000000
739731.000000
740446.000000
741151.000000
741854.000000
742559.000000
743281.000000
743999.000000
744700.000000
745395.000000
746085.000000
746811.000000
747536.000000
748244.000000
748951.000000
749682.000000
750474.000000
751276.000000
752028.000000
752768.000000
753494.000000
754212.000000
754940.000000
755666.000000
756384.000000
757104.000000
757813.000000
758511.000000
759220.000000
759925.000000
760627.000000
761342.000000
762091.000000
762849.000000
763605.000000
764324.000000
765008.000000
765703.000000
766402.000000
767086.000000
767775.000000
768476.000000
769191.000000
769924.000000
770662.000000
771387.000000
772089.000000
772802.000000
773529.000000
774292.000000
775093.000000
775907.000000
776688.000000
777453.000000
778176.000000
778868.000000
779531.000000
780178.000000
780829.000000
781485.000000
782146.000000
782817.000000
783496.000000
784188.000000
784885.000000
785571.000000
786241.000000
786904.000000
787575.000000
788270.000000
789005.000000
789784.000000
790595.000000
791411.000000
792214.000000
792974.000000
793706.000000
794432.000000
795177.000000
795929.000000
796677.000000
797415.000000
798146.000000
798858.000000
799548.000000
800230.000000
800934.000000
801664.000000
802441.000000
803255.000000
804072.000000
804871.000000
805639.000000
806370.000000
807082.000000
807804.000000
808540.000000
809295.000000
810051.000000
810800.000000
811576.000000
812382.000000
813161.000000
813910.000000
814628.000000
815341.000000
816058.000000
816794.000000
817552.000000
818289.000000
819014.000000
819756.000000
820504.000000
821250.000000
821998.000000
822737.000000
823461.000000
824173.000000
824867.000000
825562.000000
826286.000000
827079.000000
827901.000000
828688.000000
829447.000000
830208.000000
830976.000000
831734.000000
832497.000000
833225.000000
833931.000000
834608.000000
835278.000000
835969.000000
836680.000000
837410.000000
838137.000000
838846.000000
839596.000000
840377.000000
841122.000000
841825.000000
842474.000000
843115.000000
843759.000000
844408.000000
845061.000000
845722.000000
846389.000000
847063.000000
847738.000000
848416.000000
849084.000000
849748.000000
850404.000000
851057.000000
851695.000000
852315.000000
852930.000000
853550.000000
854174.000000
854816.000000
855467.000000
856133.000000
856829.000000
857502.000000
858160.000000
858822.000000
859484.000000
860147.000000
860818.000000
861506.000000
862187.000000
862864.000000
863553.000000
864292.000000
865094.000000
865875.000000
866642.000000
867373.000000
868068.000000
868794.000000
869541.000000
870288.000000
871016.000000
871770.000000
872541.000000
873270.000000
873991.000000
874702.000000
875401.000000
876080.000000
876731.000000
877357.000000
877984.000000
878644.000000
879402.000000
880230.000000
881059.000000
881898.000000
882765.000000
883593.000000
884385.000000
885141.000000
885879.000000
886598.000000
887316.000000
888037.000000
888794.000000
889580.000000
890345.000000
891071.000000
891775.000000
892459.000000
893151.000000
893890.000000
894698.000000
895546.000000
896376.000000
897202.000000
897974.000000
898729.000000
899480.000000
900233.000000
