ECG (ms)
673.000000
1568.000000
2442.000000
3282.000000
4151.000000
5040.000000
5907.000000
6800.000000
7720.000000
8696.000000
9661.000000
10589.000000
11489.000000
12375.000000
13281.000000
14175.000000
15030.000000
15880.000000
16811.000000
17784.000000
18719.000000
19602.000000
20460.000000
21344.000000
22281.000000
23167.000000
24050.000000
24973.000000
25903.000000
26811.000000
27687.000000
28540.000000
29399.000000
30271.000000
31184.000000
32103.000000
33013.000000
33888.000000
34755.000000
35609.000000
36468.000000
37362.000000
38287.000000
39168.000000
40031.000000
40897.000000
41788.000000
42708.000000
43597.000000
44509.000000
45430.000000
46323.000000
47181.000000
48055.000000
48953.000000
49902.000000
50855.000000
51811.000000
52712.000000
53569.000000
54429.000000
55340.000000
56409.000000
57480.000000
58427.000000
59282.000000
60109.000000
60919.000000
61734.000000
62636.000000
63675.000000
64803.000000
65769.000000
66613.000000
67457.000000
68332.000000
69266.000000
70145.000000
71032.000000
71978.000000
73001.000000
74036.000000
74998.000000
75876.000000
76761.000000
77689.000000
78655.000000
79698.000000
80744.000000
81752.000000
82676.000000
83574.000000
84474.000000
85439.000000
86487.000000
87527.000000
88495.000000
89374.000000
90246.000000
91168.000000
92159.000000
93141.000000
94048.000000
94907.000000
95776.000000
96718.000000
97721.000000
98731.000000
99664.000000
100543.000000
101415.000000
102328.000000
103259.000000
104191.000000
105091.000000
105955.000000
106813.000000
107698.000000
108605.000000
109565.000000
110536.000000
111506.000000
112458.000000
113386.000000
114264.000000
115101.000000
115937.000000
116833.000000
117781.000000
118731.000000
119641.000000
120539.000000
121449.000000
122341.000000
123209.000000
124070.000000
124965.000000
125901.000000
126829.000000
127815.000000
128787.000000
129708.000000
130626.000000
131520.000000
132366.000000
133236.000000
134209.000000
135327.000000
136314.000000
137196.000000
138103.000000
139135.000000
140109.000000
141044.000000
141984.000000
142954.000000
144014.000000
145028.000000
145948.000000
146825.000000
147722.000000
148663.000000
149596.000000
150567.000000
151576.000000
152545.000000
153481.000000
154424.000000
155318.000000
156200.000000
157131.000000
158053.000000
158936.000000
159836.000000
160747.000000
161609.000000
162476.000000
163415.000000
164348.000000
165224.000000
166105.000000
167049.000000
167994.000000
168850.000000
169732.000000
170653.000000
171556.000000
172453.000000
173304.000000
174135.000000
175001.000000
175945.000000
177049.000000
178123.000000
179066.000000
179941.000000
180905.000000
182150.000000
183275.000000
184338.000000
185302.000000
186300.000000
187230.000000
188130.000000
189099.000000
190094.000000
191040.000000
191949.000000
192947.000000
194010.000000
194994.000000
195895.000000
196802.000000
197790.000000
198843.000000
199897.000000
201078.000000
202194.000000
203224.000000
204221.000000
205197.000000
206103.000000
206991.000000
207988.000000
209004.000000
209976.000000
210876.000000
211788.000000
212719.000000
213587.000000
214462.000000
215387.000000
216292.000000
217147.000000
218031.000000
218939.000000
219803.000000
220635.000000
221570.000000
222647.000000
223618.000000
224473.000000
225365.000000
226322.000000
227246.000000
228111.000000
228997.000000
229973.000000
230900.000000
231772.000000
232636.000000
233553.000000
234534.000000
235456.000000
236338.000000
237277.000000
238290.000000
239281.000000
240188.000000
241134.000000
242120.000000
243065.000000
243952.000000
244871.000000
245873.000000
246899.000000
247864.000000
248752.000000
249659.000000
250629.000000
251694.000000
252741.000000
253741.000000
254776.000000
255781.000000
256731.000000
257615.000000
258533.000000
259827.000000
260976.000000
262133.000000
263165.000000
264088.000000
264997.000000
265911.000000
266806.000000
267728.000000
268640.000000
269601.000000
270556.000000
271508.000000
272522.000000
273520.000000
274462.000000
275417.000000
276517.000000
277514.000000
278420.000000
279325.000000
280273.000000
281227.000000
282126.000000
283017.000000
284001.000000
285158.000000
286195.000000
287183.000000
288132.000000
289011.000000
289915.000000
290876.000000
291890.000000
292823.000000
293744.000000
294692.000000
295611.000000
296498.000000
297432.000000
298418.000000
299346.000000
300254.000000
301204.000000
302175.000000
303068.000000
303915.000000
304821.000000
305771.000000
306665.000000
307516.000000
308442.000000
309418.000000
310325.000000
311179.000000
312097.000000
313122.000000
314060.000000
314889.000000
315765.000000
316668.000000
317545.000000
318361.000000
319276.000000
320312.000000
321284.000000
322142.000000
323051.000000
323975.000000
324825.000000
325669.000000
326573.000000
327443.000000
328306.000000
329199.000000
330081.000000
330925.000000
331816.000000
332837.000000
333892.000000
334806.000000
335717.000000
336643.000000
337537.000000
338392.000000
339263.000000
340217.000000
341147.000000
341991.000000
342836.000000
343706.000000
344578.000000
345417.000000
346282.000000
347237.000000
348215.000000
349096.000000
349964.000000
350882.000000
351798.000000
352674.000000
353506.000000
354354.000000
355240.000000
356158.000000
357032.000000
357897.000000
358824.000000
359773.000000
360646.000000
361511.000000
362346.000000
363143.000000
363888.000000
364648.000000
365520.000000
366414.000000
367338.000000
368400.000000
369526.000000
370535.000000
371500.000000
372443.000000
373334.000000
374200.000000
375094.000000
376081.000000
377108.000000
378072.000000
379036.000000
380083.000000
381050.000000
381939.000000
382857.000000
383840.000000
384802.000000
385713.000000
386607.000000
387514.000000
388467.000000
389352.000000
390228.000000
391139.000000
392055.000000
392924.000000
393793.000000
394716.000000
395745.000000
396708.000000
397621.000000
398599.000000
399624.000000
400548.000000
401400.000000
402289.000000
403318.000000
404296.000000
405276.000000
406347.000000
407398.000000
408329.000000
409295.000000
410270.000000
411188.000000
412037.000000
412909.000000
413878.000000
415122.000000
416256.000000
417411.000000
418529.000000
419462.000000
420332.000000
421204.000000
422140.000000
423084.000000
423976.000000
424989.000000
426100.000000
427077.000000
428047.000000
428989.000000
429847.000000
430657.000000
431474.000000
432338.000000
433319.000000
434251.000000
435225.000000
436298.000000
437261.000000
438119.000000
439012.000000
439969.000000
440912.000000
441808.000000
442817.000000
443881.000000
444801.000000
445740.000000
446700.000000
447644.000000
448498.000000
449297.000000
450115.000000
450998.000000
452173.000000
453321.000000
454524.000000
455729.000000
456729.000000
457647.000000
458877.000000
460029.000000
461141.000000
462215.000000
463405.000000
464524.000000
465660.000000
466682.000000
467629.000000
468534.000000
469527.000000
470783.000000
471930.000000
473072.000000
474116.000000
475047.000000
475955.000000
476938.000000
477909.000000
478838.000000
479783.000000
480782.000000
481746.000000
482650.000000
483573.000000
484499.000000
485400.000000
486292.000000
487213.000000
488161.000000
489056.000000
489922.000000
490873.000000
491821.000000
492720.000000
493576.000000
494515.000000
495547.000000
496523.000000
497376.000000
498240.000000
499157.000000
500128.000000
501034.000000
501888.000000
502838.000000
504024.000000
505098.000000
506032.000000
506954.000000
507815.000000
508685.000000
509771.000000
510904.000000
511907.000000
512949.000000
513930.000000
514804.000000
515616.000000
516416.000000
517276.000000
518527.000000
519637.000000
520792.000000
521950.000000
523023.000000
524002.000000
525011.000000
525945.000000
526832.000000
527873.000000
529049.000000
530021.000000
530910.000000
531853.000000
532848.000000
533763.000000
534669.000000
535723.000000
536777.000000
537679.000000
538551.000000
539434.000000
540338.000000
541216.000000
542054.000000
542884.000000
543787.000000
544834.000000
545770.000000
546704.000000
547709.000000
548698.000000
549585.000000
550518.000000
551454.000000
552336.000000
553149.000000
553984.000000
555230.000000
556368.000000
557458.000000
558591.000000
559710.000000
560679.000000
561623.000000
562596.000000
563585.000000
564506.000000
565475.000000
566695.000000
567829.000000
568938.000000
569959.000000
570879.000000
571735.000000
572655.000000
573660.000000
574779.000000
575872.000000
577046.000000
578197.000000
579249.000000
580274.000000
581261.000000
582214.000000
583116.000000
584057.000000
585177.000000
586289.000000
587276.000000
588214.000000
589140.000000
590023.000000
590912.000000
591851.000000
592800.000000
593695.000000
594539.000000
595441.000000
596496.000000
597583.000000
598562.000000
599576.000000
600522.000000
601357.000000
602215.000000
603130.000000
604041.000000
604925.000000
605760.000000
606596.000000
607531.000000
608756.000000
609851.000000
610984.000000
612012.000000
612926.000000
613892.000000
614937.000000
615902.000000
616921.000000
618163.000000
619263.000000
620267.000000
621225.000000
622121.000000
622991.000000
623997.000000
625248.000000
626390.000000
627529.000000
628608.000000
629602.000000
630540.000000
631536.000000
632580.000000
633508.000000
634479.000000
635492.000000
636407.000000
637331.000000
638211.000000
639092.000000
639963.000000
640875.000000
641719.000000
642556.000000
643427.000000
644268.000000
645101.000000
645906.000000
646687.000000
647498.000000
648300.000000
649038.000000
649754.000000
650479.000000
651246.000000
652453.000000
653585.000000
654717.000000
655715.000000
656569.000000
657383.000000
658237.000000
659202.000000
660438.000000
661556.000000
662587.000000
663474.000000
664421.000000
665520.000000
666573.000000
667505.000000
668425.000000
669474.000000
670675.000000
671794.000000
672881.000000
673969.000000
674976.000000
675996.000000
677118.000000
678156.000000
679110.000000
680047.000000
681045.000000
682138.000000
683163.000000
684163.000000
685246.000000
686306.000000
687335.000000
688405.000000
689426.000000
690358.000000
691295.000000
692295.000000
693288.000000
694255.000000
695279.000000
696254.000000
697140.000000
698045.000000
699036.000000
699999.000000
700918.000000
701836.000000
702863.000000
703945.000000
704905.000000
705797.000000
706728.000000
707684.000000
708561.000000
709425.000000
710324.000000
711248.000000
712140.000000
713012.000000
713934.000000
714879.000000
715764.000000
716668.000000
717589.000000
718477.000000
719329.000000
720243.000000
721243.000000
722210.000000
723121.000000
724045.000000
725001.000000
725938.000000
726847.000000
727774.000000
728699.000000
729617.000000
730596.000000
731875.000000
733055.000000
734205.000000
735302.000000
736327.000000
737239.000000
738109.000000
739093.000000
740341.000000
741500.000000
742686.000000
743855.000000
744962.000000
745943.000000
746832.000000
747677.000000
748930.000000
750153.000000
751324.000000
752542.000000
753782.000000
754986.000000
756163.000000
757229.000000
758167.000000
759133.000000
760389.000000
761561.000000
762724.000000
763812.000000
764790.000000
765745.000000
766744.000000
767798.000000
768832.000000
770046.000000
771169.000000
772136.000000
773100.000000
774256.000000
775317.000000
776252.000000
777258.000000
778399.000000
779423.000000
780307.000000
781208.000000
782206.000000
783225.000000
784216.000000
785252.000000
786225.000000
787111.000000
788035.000000
789006.000000
789902.000000
790784.000000
791753.000000
792876.000000
793904.000000
794914.000000
796030.000000
797078.000000
798020.000000
798969.000000
799923.000000
800819.000000
801728.000000
802682.000000
803635.000000
804547.000000
805499.000000
806475.000000
807406.000000
808288.000000
809206.000000
810143.000000
811014.000000
811885.000000
812807.000000
813880.000000
814870.000000
815801.000000
816722.000000
817610.000000
818479.000000
819543.000000
820674.000000
821688.000000
822637.000000
823659.000000
824649.000000
825573.000000
826485.000000
827514.000000
828570.000000
829587.000000
830507.000000
831433.000000
832453.000000
833463.000000
834421.000000
835611.000000
836747.000000
837799.000000
838886.000000
840001.000000
841062.000000
842007.000000
842869.000000
843682.000000
844493.000000
845348.000000
846546.000000
847707.000000
848815.000000
849856.000000
850788.000000
851719.000000
852705.000000
853750.000000
854750.000000
855797.000000
856908.000000
857920.000000
858919.000000
860032.000000
861045.000000
861931.000000
862808.000000
863703.000000
864554.000000
865368.000000
866128.000000
866896.000000
867652.000000
868388.000000
869124.000000
869932.000000
870776.000000
871661.000000
872637.000000
873707.000000
874769.000000
875728.000000
876611.000000
877508.000000
878425.000000
879352.000000
880272.000000
881141.000000
881993.000000
882893.000000
883848.000000
884878.000000
885852.000000
886727.000000
887579.000000
888455.000000
889379.000000
890353.000000
891304.000000
892198.000000
893095.000000
894087.000000
895136.000000
896151.000000
897049.000000
897907.000000
898816.000000
