ECG (ms)
131.000000
1098.000000
2042.000000
3024.000000
3993.000000
4948.000000
5907.000000
6896.000000
7879.000000
8845.000000
9810.000000
10831.000000
11833.000000
12809.000000
13782.000000
14808.000000
15829.000000
16817.000000
17804.000000
18824.000000
19836.000000
20815.000000
21785.000000
22796.000000
23799.000000
24776.000000
25750.000000
26744.000000
27733.000000
28674.000000
29658.000000
30641.000000
31609.000000
32536.000000
33584.000000
34626.000000
35641.000000
36571.000000
37553.000000
38575.000000
39582.000000
40517.000000
41520.000000
42571.000000
43571.000000
44485.000000
45498.000000
46504.000000
47491.000000
48369.000000
49314.000000
50367.000000
51380.000000
52319.000000
53347.000000
54416.000000
55425.000000
56341.000000
57338.000000
58374.000000
59421.000000
60366.000000
61409.000000
62493.000000
63548.000000
64558.000000
65433.000000
66368.000000
67409.000000
68483.000000
69423.000000
70405.000000
71380.000000
72295.000000
73195.000000
74181.000000
75170.000000
76050.000000
76950.000000
77909.000000
78910.000000
79836.000000
80686.000000
81576.000000
82527.000000
83457.000000
84308.000000
85190.000000
86123.000000
87125.000000
88086.000000
89131.000000
90186.000000
91165.000000
92121.000000
93126.000000
94148.000000
95070.000000
96038.000000
97000.000000
97948.000000
98889.000000
99864.000000
100825.000000
101754.000000
102700.000000
103640.000000
104570.000000
105474.000000
106417.000000
107373.000000
108306.000000
109210.000000
110095.000000
111073.000000
112037.000000
112916.000000
113752.000000
114612.000000
115543.000000
116408.000000
117326.000000
118299.000000
119282.000000
120175.000000
121162.000000
122174.000000
123156.000000
124047.000000
124997.000000
126016.000000
126977.000000
127888.000000
128867.000000
129831.000000
130759.000000
131685.000000
132657.000000
133601.000000
134525.000000
135461.000000
136408.000000
137359.000000
138276.000000
139273.000000
140205.000000
141121.000000
141954.000000
142843.000000
143849.000000
144830.000000
145807.000000
146815.000000
147839.000000
148771.000000
149737.000000
150736.000000
151729.000000
152626.000000
153667.000000
154716.000000
155739.000000
156676.000000
157701.000000
158749.000000
159724.000000
160679.000000
161657.000000
162631.000000
163572.000000
164550.000000
165540.000000
166510.000000
167445.000000
168538.000000
169580.000000
170573.000000
171465.000000
172425.000000
173466.000000
174469.000000
175337.000000
176231.000000
177174.000000
178148.000000
179051.000000
179986.000000
180935.000000
181851.000000
182700.000000
183611.000000
184629.000000
185598.000000
186487.000000
187402.000000
188373.000000
189298.000000
190161.000000
191063.000000
191998.000000
192927.000000
193769.000000
194662.000000
195600.000000
196592.000000
197521.000000
198516.000000
199538.000000
200508.000000
201412.000000
202404.000000
203419.000000
204366.000000
205289.000000
206237.000000
207220.000000
208130.000000
209123.000000
210138.000000
211069.000000
211974.000000
212943.000000
213900.000000
214860.000000
215779.000000
216742.000000
217716.000000
218694.000000
219623.000000
220652.000000
221625.000000
222616.000000
223555.000000
224512.000000
225506.000000
226464.000000
227328.000000
228260.000000
229246.000000
230199.000000
231061.000000
231976.000000
232934.000000
233869.000000
234750.000000
235662.000000
236602.000000
237486.000000
238363.000000
239289.000000
240219.000000
241064.000000
241929.000000
242832.000000
243736.000000
244591.000000
245455.000000
246364.000000
247305.000000
248197.000000
249122.000000
250054.000000
250980.000000
251856.000000
252757.000000
253698.000000
254631.000000
255481.000000
256310.000000
257228.000000
258232.000000
259139.000000
260062.000000
261119.000000
262091.000000
262970.000000
263875.000000
264802.000000
265688.000000
266535.000000
267438.000000
268427.000000
269395.000000
270330.000000
271303.000000
272277.000000
273209.000000
274064.000000
275019.000000
276076.000000
277107.000000
278017.000000
278982.000000
280007.000000
281062.000000
282069.000000
282938.000000
283909.000000
284949.000000
285945.000000
286846.000000
287875.000000
288906.000000
289839.000000
290717.000000
291636.000000
292591.000000
293472.000000
294426.000000
295463.000000
296426.000000
297313.000000
298245.000000
299180.000000
300044.000000
300967.000000
302002.000000
303049.000000
304032.000000
305083.000000
306127.000000
307055.000000
308058.000000
309106.000000
310068.000000
311056.000000
312093.000000
313086.000000
314032.000000
315034.000000
316036.000000
317011.000000
317976.000000
318983.000000
319983.000000
320946.000000
321952.000000
322954.000000
323961.000000
324896.000000
325864.000000
326863.000000
327877.000000
328777.000000
329785.000000
330834.000000
331850.000000
332745.000000
333724.000000
334720.000000
335650.000000
336533.000000
337496.000000
338474.000000
339383.000000
340271.000000
341189.000000
342158.000000
343063.000000
343979.000000
344930.000000
345885.000000
346746.000000
347657.000000
348621.000000
349533.000000
350437.000000
351362.000000
352264.000000
353108.000000
353986.000000
354940.000000
355888.000000
356736.000000
357707.000000
358729.000000
359679.000000
360604.000000
361568.000000
362580.000000
363539.000000
364414.000000
365372.000000
366407.000000
367381.000000
368244.000000
369171.000000
370148.000000
371097.000000
371990.000000
372988.000000
374007.000000
374943.000000
375888.000000
376949.000000
378000.000000
378945.000000
379933.000000
381013.000000
382016.000000
382924.000000
383899.000000
384851.000000
385774.000000
386696.000000
387650.000000
388602.000000
389516.000000
390524.000000
391504.000000
392478.000000
393351.000000
394288.000000
395282.000000
396212.000000
397136.000000
398116.000000
399090.000000
399990.000000
400958.000000
401941.000000
402833.000000
403751.000000
404703.000000
405637.000000
406503.000000
407457.000000
408435.000000
409318.000000
410263.000000
411281.000000
412252.000000
413209.000000
414219.000000
415244.000000
416157.000000
417171.000000
418238.000000
419266.000000
420199.000000
420990.000000
421749.000000
423006.000000
424039.000000
425181.000000
426290.000000
427383.000000
428406.000000
429459.000000
430492.000000
431434.000000
432414.000000
433458.000000
434494.000000
435469.000000
436523.000000
437552.000000
438536.000000
439512.000000
440526.000000
441531.000000
442511.000000
443487.000000
444486.000000
445472.000000
446421.000000
447387.000000
448321.000000
449244.000000
450110.000000
451022.000000
451970.000000
452912.000000
453795.000000
454696.000000
455622.000000
456494.000000
457348.000000
458301.000000
459326.000000
460290.000000
461314.000000
462319.000000
463254.000000
464141.000000
465033.000000
465933.000000
466747.000000
467567.000000
468430.000000
469340.000000
470193.000000
471082.000000
472034.000000
472934.000000
473799.000000
474765.000000
475746.000000
476634.000000
477531.000000
478479.000000
479463.000000
480332.000000
481208.000000
482134.000000
483066.000000
483912.000000
484860.000000
485896.000000
486823.000000
487754.000000
488742.000000
489717.000000
490578.000000
491468.000000
492416.000000
493382.000000
494269.000000
495317.000000
496373.000000
497320.000000
498261.000000
499221.000000
500174.000000
501078.000000
502133.000000
503186.000000
504109.000000
505077.000000
506047.000000
506973.000000
507809.000000
508774.000000
509816.000000
510785.000000
511718.000000
512736.000000
513751.000000
514635.000000
515537.000000
516565.000000
517607.000000
518537.000000
519608.000000
520677.000000
521658.000000
522640.000000
523650.000000
524645.000000
525580.000000
526638.000000
527653.000000
528616.000000
529487.000000
530374.000000
531487.000000
532518.000000
533462.000000
534503.000000
535453.000000
536380.000000
537294.000000
538276.000000
539250.000000
540206.000000
541154.000000
542141.000000
543114.000000
544059.000000
545026.000000
546004.000000
546972.000000
547905.000000
548865.000000
549839.000000
550806.000000
551742.000000
552699.000000
553678.000000
554646.000000
555570.000000
556577.000000
557537.000000
558470.000000
559350.000000
560371.000000
561448.000000
562522.000000
563468.000000
564458.000000
565466.000000
566460.000000
567361.000000
568325.000000
569325.000000
570244.000000
571079.000000
572009.000000
573034.000000
574011.000000
574945.000000
575952.000000
576906.000000
577853.000000
578852.000000
579818.000000
580810.000000
581716.000000
582584.000000
583498.000000
584456.000000
585391.000000
586369.000000
587388.000000
588370.000000
589274.000000
590215.000000
591189.000000
592161.000000
593044.000000
594004.000000
595043.000000
595992.000000
596997.000000
598040.000000
599019.000000
599884.000000
600857.000000
601815.000000
602797.000000
603864.000000
604817.000000
605747.000000
606676.000000
607640.000000
608597.000000
609514.000000
610545.000000
611576.000000
612565.000000
613523.000000
614565.000000
615560.000000
616590.000000
617564.000000
618556.000000
619532.000000
620475.000000
621486.000000
622495.000000
623518.000000
624485.000000
625505.000000
626525.000000
627537.000000
628504.000000
629628.000000
630665.000000
631666.000000
632566.000000
633555.000000
634560.000000
635498.000000
636440.000000
637458.000000
638460.000000
639375.000000
640359.000000
641356.000000
642284.000000
643208.000000
644152.000000
645091.000000
645958.000000
646889.000000
647897.000000
648856.000000
649794.000000
650751.000000
651743.000000
652627.000000
653553.000000
654504.000000
655446.000000
656290.000000
657209.000000
658217.000000
659255.000000
660229.000000
661288.000000
662354.000000
663225.000000
664203.000000
665226.000000
666154.000000
667124.000000
668210.000000
669196.000000
670179.000000
671124.000000
672117.000000
673103.000000
674093.000000
675032.000000
676035.000000
677027.000000
677989.000000
678951.000000
679975.000000
680970.000000
681944.000000
682894.000000
683883.000000
684848.000000
685776.000000
686713.000000
687649.000000
688592.000000
689451.000000
690324.000000
691268.000000
692259.000000
693184.000000
694130.000000
695134.000000
696091.000000
696947.000000
697891.000000
698906.000000
699842.000000
700755.000000
701678.000000
702605.000000
703453.000000
704342.000000
705326.000000
706296.000000
707156.000000
708044.000000
708990.000000
709906.000000
710745.000000
711667.000000
712614.000000
713549.000000
714397.000000
715325.000000
716309.000000
717222.000000
718111.000000
719022.000000
719956.000000
720826.000000
721718.000000
722636.000000
723538.000000
724371.000000
725253.000000
726222.000000
727187.000000
728069.000000
728998.000000
729967.000000
730879.000000
731744.000000
732641.000000
733583.000000
734471.000000
735412.000000
736416.000000
737369.000000
738230.000000
739150.000000
740090.000000
740986.000000
741819.000000
742759.000000
743759.000000
744690.000000
745625.000000
746585.000000
747525.000000
748379.000000
749297.000000
750284.000000
751229.000000
752117.000000
753049.000000
754018.000000
754924.000000
755824.000000
756750.000000
757710.000000
758594.000000
759516.000000
760489.000000
761438.000000
762356.000000
763332.000000
764346.000000
765271.000000
766199.000000
767172.000000
768140.000000
769000.000000
769928.000000
770938.000000
771925.000000
772917.000000
773998.000000
775071.000000
776002.000000
776966.000000
777932.000000
778862.000000
779823.000000
780787.000000
781734.000000
782656.000000
783747.000000
784786.000000
785787.000000
786748.000000
787767.000000
788748.000000
789644.000000
790570.000000
791596.000000
792641.000000
793542.000000
794516.000000
795597.000000
796684.000000
797724.000000
798675.000000
799712.000000
800775.000000
801749.000000
802687.000000
803692.000000
804689.000000
805677.000000
806621.000000
807622.000000
808614.000000
809588.000000
810574.000000
811589.000000
812573.000000
813526.000000
814631.000000
815651.000000
816612.000000
817512.000000
818473.000000
819494.000000
820415.000000
821388.000000
822457.000000
823468.000000
824342.000000
825263.000000
826276.000000
827230.000000
828202.000000
829350.000000
830431.000000
831437.000000
832516.000000
833553.000000
834495.000000
835569.000000
836637.000000
837598.000000
838579.000000
839584.000000
840579.000000
841545.000000
842574.000000
843596.000000
844592.000000
845558.000000
846572.000000
847581.000000
848550.000000
849643.000000
850729.000000
851798.000000
852731.000000
853707.000000
854734.000000
855716.000000
856704.000000
857759.000000
858756.000000
859700.000000
860705.000000
861695.000000
862644.000000
863641.000000
864604.000000
865577.000000
866436.000000
867291.000000
868269.000000
869303.000000
870208.000000
871194.000000
872239.000000
873236.000000
874167.000000
875189.000000
876201.000000
877122.000000
878045.000000
879042.000000
880048.000000
880988.000000
881964.000000
882965.000000
884013.000000
884975.000000
886016.000000
887077.000000
888067.000000
888965.000000
889873.000000
890865.000000
891838.000000
892744.000000
893763.000000
894859.000000
895874.000000
896868.000000
897883.000000
898857.000000
899809.000000
900845.000000
901885.000000
