ECG (ms)
901.000000
1924.000000
2927.000000
3956.000000
4968.000000
5958.000000
6997.000000
8006.000000
8997.000000
9986.000000
10960.000000
11914.000000
12864.000000
13821.000000
14771.000000
15613.000000
16491.000000
17422.000000
18397.000000
19350.000000
20251.000000
21177.000000
22120.000000
23020.000000
23980.000000
24977.000000
25946.000000
26883.000000
27783.000000
28648.000000
29541.000000
30486.000000
31394.000000
32384.000000
33427.000000
34427.000000
35370.000000
36313.000000
37268.000000
38215.000000
39162.000000
40125.000000
41050.000000
41992.000000
42970.000000
43904.000000
44848.000000
45789.000000
46684.000000
47575.000000
48503.000000
49412.000000
50370.000000
51407.000000
52423.000000
53419.000000
54407.000000
55318.000000
56171.000000
57046.000000
57941.000000
58880.000000
59916.000000
60975.000000
61995.000000
63018.000000
63987.000000
64901.000000
65709.000000
66470.000000
67324.000000
68241.000000
69270.000000
70296.000000
71255.000000
72236.000000
73180.000000
74080.000000
74995.000000
75966.000000
76904.000000
77862.000000
78807.000000
79704.000000
80624.000000
81548.000000
82450.000000
83421.000000
84438.000000
85399.000000
86342.000000
87264.000000
88158.000000
89082.000000
90060.000000
91038.000000
92042.000000
93041.000000
94014.000000
95054.000000
96048.000000
97040.000000
98023.000000
98973.000000
99940.000000
100914.000000
101865.000000
102814.000000
103795.000000
104745.000000
105676.000000
106624.000000
107515.000000
108403.000000
109323.000000
110230.000000
111155.000000
112097.000000
113025.000000
113948.000000
114861.000000
115740.000000
116679.000000
117665.000000
118597.000000
119525.000000
120460.000000
121390.000000
122327.000000
123278.000000
124194.000000
125101.000000
126007.000000
126862.000000
127714.000000
128615.000000
129506.000000
130375.000000
131278.000000
132229.000000
133135.000000
134032.000000
134937.000000
135811.000000
136723.000000
137688.000000
138555.000000
139446.000000
140350.000000
141207.000000
142091.000000
143001.000000
143893.000000
144856.000000
145866.000000
146772.000000
147732.000000
148709.000000
149617.000000
150592.000000
151684.000000
152745.000000
153756.000000
154668.000000
155583.000000
156577.000000
157629.000000
158574.000000
159378.000000
160168.000000
160985.000000
161941.000000
163094.000000
164086.000000
165051.000000
165996.000000
166891.000000
167802.000000
168765.000000
169800.000000
170799.000000
171717.000000
172681.000000
173689.000000
174715.000000
175687.000000
176677.000000
177694.000000
178654.000000
179629.000000
180649.000000
181650.000000
182696.000000
183768.000000
184803.000000
185786.000000
186728.000000
187636.000000
188531.000000
189492.000000
190492.000000
191483.000000
192475.000000
193481.000000
194450.000000
195417.000000
196366.000000
197287.000000
198232.000000
199199.000000
200157.000000
201106.000000
201996.000000
202872.000000
203788.000000
204695.000000
205536.000000
206326.000000
207269.000000
208220.000000
209201.000000
210149.000000
211074.000000
212040.000000
212967.000000
213908.000000
214870.000000
215772.000000
216671.000000
217589.000000
218497.000000
219429.000000
220386.000000
221291.000000
222235.000000
223179.000000
224096.000000
225039.000000
225964.000000
226856.000000
227757.000000
228620.000000
229442.000000
230316.000000
231251.000000
232177.000000
233112.000000
234020.000000
234868.000000
235727.000000
236596.000000
237441.000000
238367.000000
239405.000000
240298.000000
241152.000000
242009.000000
242834.000000
243714.000000
244823.000000
245862.000000
246877.000000
247819.000000
248742.000000
249699.000000
250633.000000
251584.000000
252541.000000
253476.000000
254441.000000
255418.000000
256382.000000
257368.000000
258273.000000
259083.000000
259856.000000
260675.000000
261540.000000
262600.000000
263595.000000
264580.000000
265562.000000
266458.000000
267343.000000
268286.000000
269198.000000
270205.000000
271173.000000
272108.000000
273083.000000
274069.000000
275010.000000
275980.000000
276964.000000
277900.000000
278865.000000
279829.000000
280788.000000
281776.000000
282742.000000
283672.000000
284626.000000
285528.000000
286435.000000
287366.000000
288269.000000
289219.000000
290201.000000
291168.000000
292187.000000
293145.000000
294073.000000
295013.000000
295919.000000
296848.000000
297784.000000
298712.000000
299725.000000
300809.000000
301842.000000
302871.000000
303873.000000
304841.000000
305813.000000
306779.000000
307679.000000
308608.000000
309559.000000
310478.000000
311451.000000
312483.000000
313526.000000
314626.000000
315671.000000
316632.000000
317589.000000
318518.000000
319422.000000
320362.000000
321314.000000
322270.000000
323308.000000
324348.000000
325387.000000
326428.000000
327403.000000
328248.000000
329028.000000
329847.000000
330729.000000
331775.000000
332787.000000
333780.000000
334800.000000
335790.000000
336777.000000
337812.000000
338808.000000
339813.000000
340802.000000
341742.000000
342696.000000
343629.000000
344563.000000
345565.000000
346523.000000
347475.000000
348435.000000
349350.000000
350265.000000
351229.000000
352154.000000
353124.000000
354124.000000
355092.000000
356086.000000
357077.000000
358033.000000
358993.000000
359924.000000
360841.000000
361767.000000
362690.000000
363652.000000
364627.000000
365593.000000
366585.000000
367559.000000
368513.000000
369447.000000
370352.000000
371285.000000
372243.000000
373162.000000
373979.000000
374758.000000
375618.000000
376562.000000
377626.000000
378651.000000
379723.000000
380763.000000
381724.000000
382685.000000
383642.000000
384604.000000
385521.000000
386335.000000
387082.000000
387852.000000
388741.000000
389824.000000
390866.000000
391944.000000
392941.000000
393936.000000
394894.000000
395862.000000
396835.000000
397767.000000
398739.000000
399764.000000
400740.000000
401723.000000
402708.000000
403631.000000
404573.000000
405633.000000
406643.000000
407690.000000
408723.000000
409691.000000
410651.000000
411610.000000
412549.000000
413545.000000
414555.000000
415557.000000
416555.000000
417503.000000
418457.000000
419467.000000
420440.000000
421438.000000
422447.000000
423439.000000
424467.000000
425459.000000
426443.000000
427456.000000
428456.000000
429461.000000
430507.000000
431512.000000
432520.000000
433499.000000
434432.000000
435413.000000
436421.000000
437392.000000
438349.000000
439282.000000
440203.000000
441209.000000
442231.000000
443212.000000
444181.000000
445103.000000
445987.000000
446828.000000
447592.000000
448359.000000
449276.000000
450548.000000
451630.000000
452705.000000
453736.000000
454740.000000
455675.000000
456551.000000
457414.000000
458252.000000
459093.000000
459986.000000
461126.000000
462133.000000
463124.000000
464086.000000
465027.000000
465976.000000
466949.000000
467924.000000
468925.000000
469854.000000
470804.000000
471784.000000
472752.000000
473755.000000
474743.000000
475719.000000
476706.000000
477664.000000
478630.000000
479624.000000
480551.000000
481479.000000
482409.000000
483312.000000
484257.000000
485250.000000
486250.000000
487252.000000
488190.000000
489103.000000
490030.000000
490916.000000
491802.000000
492715.000000
493610.000000
494517.000000
495434.000000
496325.000000
497255.000000
498180.000000
499084.000000
499987.000000
500871.000000
501730.000000
502629.000000
503556.000000
504421.000000
505296.000000
506198.000000
507059.000000
507925.000000
508829.000000
509724.000000
510607.000000
511458.000000
512260.000000
513064.000000
513869.000000
514628.000000
515358.000000
516086.000000
516905.000000
517743.000000
518592.000000
519421.000000
520281.000000
521153.000000
522000.000000
522868.000000
523743.000000
524551.000000
525367.000000
526180.000000
526968.000000
527757.000000
528576.000000
529357.000000
530169.000000
531026.000000
531895.000000
532799.000000
533739.000000
534628.000000
535526.000000
536405.000000
537230.000000
538085.000000
538953.000000
539795.000000
540649.000000
541570.000000
542482.000000
543451.000000
544366.000000
545227.000000
546105.000000
546969.000000
547963.000000
549064.000000
550067.000000
551066.000000
552003.000000
552946.000000
553926.000000
554897.000000
555885.000000
556864.000000
557792.000000
558716.000000
559671.000000
560637.000000
561664.000000
562693.000000
563688.000000
564664.000000
565643.000000
566568.000000
567485.000000
568380.000000
569250.000000
570150.000000
571082.000000
571999.000000
572947.000000
573936.000000
574900.000000
575873.000000
576845.000000
577783.000000
578728.000000
579664.000000
580572.000000
581466.000000
582369.000000
583254.000000
584152.000000
585070.000000
585971.000000
586926.000000
587913.000000
588856.000000
589688.000000
590452.000000
591270.000000
592127.000000
593090.000000
594200.000000
595174.000000
596147.000000
597129.000000
598076.000000
599058.000000
600054.000000
601009.000000
601934.000000
602860.000000
603755.000000
604628.000000
605609.000000
606666.000000
607654.000000
608640.000000
609565.000000
610476.000000
611423.000000
612381.000000
613315.000000
614241.000000
615119.000000
615978.000000
616848.000000
617720.000000
618579.000000
619359.000000
620114.000000
620909.000000
621747.000000
622722.000000
623722.000000
624660.000000
625555.000000
626393.000000
627209.000000
628084.000000
629097.000000
630089.000000
630993.000000
631843.000000
632650.000000
633469.000000
634388.000000
635319.000000
636274.000000
637342.000000
638308.000000
639183.000000
640042.000000
640876.000000
642006.000000
643034.000000
643926.000000
644720.000000
645520.000000
646369.000000
647306.000000
648363.000000
649307.000000
650275.000000
651213.000000
652151.000000
653081.000000
654010.000000
654987.000000
655998.000000
657005.000000
657999.000000
658934.000000
659863.000000
660840.000000
661847.000000
662874.000000
663941.000000
664961.000000
665931.000000
666895.000000
667800.000000
668708.000000
669627.000000
670564.000000
671556.000000
672551.000000
673555.000000
674607.000000
675601.000000
676581.000000
677532.000000
678431.000000
679244.000000
680066.000000
681022.000000
681955.000000
682770.000000
683658.000000
684705.000000
685721.000000
686713.000000
687667.000000
688595.000000
689548.000000
690511.000000
691437.000000
692369.000000
693321.000000
694249.000000
695199.000000
696176.000000
697135.000000
698124.000000
699128.000000
700124.000000
701123.000000
702104.000000
703113.000000
704112.000000
705096.000000
706112.000000
707093.000000
708119.000000
709176.000000
710159.000000
711160.000000
712137.000000
713092.000000
714065.000000
715030.000000
715876.000000
716647.000000
717485.000000
718380.000000
719484.000000
720541.000000
721540.000000
722541.000000
723519.000000
724432.000000
725344.000000
726302.000000
727290.000000
728296.000000
729327.000000
730338.000000
731324.000000
732267.000000
733194.000000
734111.000000
735062.000000
736012.000000
736918.000000
737832.000000
738761.000000
739648.000000
740580.000000
741532.000000
742399.000000
743338.000000
744547.000000
745601.000000
746623.000000
747578.000000
748490.000000
749395.000000
750286.000000
751166.000000
752152.000000
753139.000000
754092.000000
755046.000000
755999.000000
756914.000000
757745.000000
758515.000000
759351.000000
760243.000000
761284.000000
762312.000000
763281.000000
764250.000000
765189.000000
766108.000000
767070.000000
767994.000000
768881.000000
769820.000000
770741.000000
771659.000000
772623.000000
773545.000000
774464.000000
775401.000000
776329.000000
777305.000000
778367.000000
779373.000000
780382.000000
781344.000000
782249.000000
783172.000000
784128.000000
785023.000000
785938.000000
786906.000000
787932.000000
788919.000000
789884.000000
790803.000000
791723.000000
792659.000000
793593.000000
794555.000000
795546.000000
796497.000000
797462.000000
798414.000000
799321.000000
800230.000000
801100.000000
801891.000000
802668.000000
803482.000000
804305.000000
805165.000000
806096.000000
807006.000000
807906.000000
808830.000000
809677.000000
810536.000000
811431.000000
812294.000000
813147.000000
814028.000000
814859.000000
815697.000000
816551.000000
817416.000000
818289.000000
819233.000000
820152.000000
821010.000000
821888.000000
822738.000000
823587.000000
824512.000000
825387.000000
826232.000000
827103.000000
827928.000000
828767.000000
829668.000000
830598.000000
831480.000000
832361.000000
833212.000000
834090.000000
834973.000000
835818.000000
836693.000000
837676.000000
838609.000000
839450.000000
840316.000000
841175.000000
841948.000000
842699.000000
843561.000000
844405.000000
845313.000000
846292.000000
847198.000000
848112.000000
849063.000000
849958.000000
850861.000000
851771.000000
852635.000000
853541.000000
854465.000000
855344.000000
856274.000000
857207.000000
858071.000000
858968.000000
859866.000000
860710.000000
861592.000000
862498.000000
863375.000000
864288.000000
865274.000000
866195.000000
867191.000000
868304.000000
869256.000000
870204.000000
871173.000000
872108.000000
873095.000000
874190.000000
875244.000000
876249.000000
877224.000000
878152.000000
879108.000000
880107.000000
881041.000000
881997.000000
882976.000000
883990.000000
885044.000000
886126.000000
887125.000000
888104.000000
889040.000000
889916.000000
890813.000000
891729.000000
892649.000000
893646.000000
894621.000000
895595.000000
896560.000000
897477.000000
898396.000000
899354.000000
900274.000000
901229.000000
902209.000000
903141.000000
904086.000000
905019.000000
905905.000000
906795.000000
907689.000000
908582.000000
909530.000000
910495.000000
911473.000000
912460.000000
913357.000000
914161.000000
914934.000000
915766.000000
916645.000000
917626.000000
918698.000000
919718.000000
920700.000000
921607.000000
922483.000000
