ECG (ms)
156.000000
1402.000000
2490.000000
3622.000000
4844.000000
5841.000000
7171.000000
8390.000000
9555.000000
10813.000000
11907.000000
13296.000000
14559.000000
15655.000000
16837.000000
18052.000000
19198.000000
20453.000000
21624.000000
22824.000000
24112.000000
25354.000000
26540.000000
27639.000000
28816.000000
30078.000000
31326.000000
32470.000000
33464.000000
34354.000000
35172.000000
36605.000000
37822.000000
39128.000000
40360.000000
41489.000000
42665.000000
43738.000000
44847.000000
46030.000000
47193.000000
48381.000000
49535.000000
50715.000000
51955.000000
53254.000000
54562.000000
55736.000000
57060.000000
58321.000000
59525.000000
60821.000000
62069.000000
63346.000000
64571.000000
65673.000000
67007.000000
68227.000000
69414.000000
70639.000000
71745.000000
73066.000000
74243.000000
75357.000000
76623.000000
77767.000000
78865.000000
80120.000000
81251.000000
82344.000000
83641.000000
84742.000000
85882.000000
87145.000000
88260.000000
89518.000000
90765.000000
91834.000000
93067.000000
94269.000000
95366.000000
96620.000000
97677.000000
98748.000000
100099.000000
101232.000000
102398.000000
103585.000000
104754.000000
105976.000000
107105.000000
108394.000000
109507.000000
110571.000000
111821.000000
112933.000000
114274.000000
115531.000000
116750.000000
117884.000000
118925.000000
120110.000000
121368.000000
122662.000000
123958.000000
125084.000000
126288.000000
127460.000000
128550.000000
129699.000000
130829.000000
131853.000000
133026.000000
134140.000000
135264.000000
136424.000000
137595.000000
138797.000000
139930.000000
141070.000000
142346.000000
143451.000000
144725.000000
145884.000000
147031.000000
148194.000000
149317.000000
150368.000000
151679.000000
152828.000000
154028.000000
155234.000000
156277.000000
157591.000000
158762.000000
159937.000000
161273.000000
162543.000000
163840.000000
165013.000000
166164.000000
167383.000000
168509.000000
169686.000000
170887.000000
172051.000000
173307.000000
174425.000000
175612.000000
176922.000000
178049.000000
179191.000000
180474.000000
181618.000000
182902.000000
184219.000000
185318.000000
186522.000000
187616.000000
188685.000000
189989.000000
191125.000000
192349.000000
193560.000000
194679.000000
195895.000000
197023.000000
198110.000000
199213.000000
200272.000000
201458.000000
202506.000000
203631.000000
204723.000000
205707.000000
207040.000000
208288.000000
209629.000000
210898.000000
212131.000000
213495.000000
214699.000000
216065.000000
217312.000000
218634.000000
219959.000000
221144.000000
222446.000000
223686.000000
225010.000000
226131.000000
227228.000000
228267.000000
229419.000000
230823.000000
231951.000000
233355.000000
234599.000000
236001.000000
237288.000000
238587.000000
239796.000000
240853.000000
242108.000000
243205.000000
244322.000000
245562.000000
246726.000000
247794.000000
248878.000000
249989.000000
251193.000000
252316.000000
253457.000000
254602.000000
255689.000000
256841.000000
257896.000000
258872.000000
260018.000000
261033.000000
262040.000000
263236.000000
264343.000000
265202.000000
266002.000000
266779.000000
268242.000000
269418.000000
270550.000000
271799.000000
272883.000000
274081.000000
275194.000000
276280.000000
277401.000000
278416.000000
279614.000000
280719.000000
281825.000000
282962.000000
284023.000000
285244.000000
286329.000000
287521.000000
288488.000000
289498.000000
290623.000000
291707.000000
292983.000000
294163.000000
295339.000000
296409.000000
297467.000000
298592.000000
299608.000000
300489.000000
301305.000000
302130.000000
303626.000000
304894.000000
306204.000000
307361.000000
308652.000000
309796.000000
310997.000000
312086.000000
313165.000000
314492.000000
315652.000000
316847.000000
318022.000000
319157.000000
320457.000000
321670.000000
323027.000000
324316.000000
325574.000000
326782.000000
327933.000000
329222.000000
330389.000000
331540.000000
332823.000000
334005.000000
335211.000000
336387.000000
337524.000000
338884.000000
340141.000000
341348.000000
342649.000000
343870.000000
345094.000000
346428.000000
347580.000000
348958.000000
350318.000000
351595.000000
352936.000000
354001.000000
355303.000000
356597.000000
357734.000000
359250.000000
360578.000000
361986.000000
362966.000000
363819.000000
364630.000000
366073.000000
367227.000000
368531.000000
369736.000000
370803.000000
371707.000000
372607.000000
373617.000000
375035.000000
376239.000000
377583.000000
378715.000000
379963.000000
381095.000000
382280.000000
383373.000000
384484.000000
385589.000000
386686.000000
387839.000000
389058.000000
390260.000000
391412.000000
392623.000000
393912.000000
395187.000000
396397.000000
397489.000000
398822.000000
399998.000000
401227.000000
402373.000000
403621.000000
404820.000000
406001.000000
407183.000000
408345.000000
409583.000000
410651.000000
411607.000000
412451.000000
413241.000000
414693.000000
415843.000000
417098.000000
418219.000000
419341.000000
420464.000000
421511.000000
422833.000000
423995.000000
425239.000000
426517.000000
427726.000000
428952.000000
430040.000000
431295.000000
432674.000000
434013.000000
435364.000000
436610.000000
437949.000000
439167.000000
440436.000000
441647.000000
442944.000000
444202.000000
445476.000000
446637.000000
447682.000000
448898.000000
449903.000000
451053.000000
452313.000000
453465.000000
454741.000000
455884.000000
456994.000000
457992.000000
459020.000000
460208.000000
461274.000000
462535.000000
463570.000000
464664.000000
465947.000000
467034.000000
467903.000000
468716.000000
469687.000000
470963.000000
472093.000000
473332.000000
474396.000000
475626.000000
476715.000000
477785.000000
479025.000000
480133.000000
481501.000000
482677.000000
483732.000000
485145.000000
486548.000000
487965.000000
489335.000000
490718.000000
491983.000000
493303.000000
494487.000000
495704.000000
496913.000000
498216.000000
499338.000000
500566.000000
502043.000000
503447.000000
504784.000000
506117.000000
507365.000000
508779.000000
509879.000000
510992.000000
512167.000000
513246.000000
514559.000000
515674.000000
516932.000000
518180.000000
519481.000000
520767.000000
521955.000000
523118.000000
524300.000000
525513.000000
526756.000000
527852.000000
529221.000000
530503.000000
531705.000000
533043.000000
534255.000000
535424.000000
536636.000000
537849.000000
539089.000000
540470.000000
541713.000000
543086.000000
544369.000000
545421.000000
546604.000000
547908.000000
549088.000000
550506.000000
551774.000000
553080.000000
554267.000000
555247.000000
556545.000000
557824.000000
559153.000000
560461.000000
561649.000000
562861.000000
563990.000000
565055.000000
566220.000000
567303.000000
568397.000000
569631.000000
570723.000000
571935.000000
572919.000000
573752.000000
574524.000000
575439.000000
576763.000000
577959.000000
579190.000000
580290.000000
581483.000000
582619.000000
583612.000000
584677.000000
585747.000000
586706.000000
587977.000000
589233.000000
590477.000000
591764.000000
592892.000000
594129.000000
595227.000000
596554.000000
597733.000000
599026.000000
600316.000000
601527.000000
602703.000000
603970.000000
605162.000000
606367.000000
607454.000000
608473.000000
609826.000000
611048.000000
612241.000000
613424.000000
614561.000000
615710.000000
616765.000000
617937.000000
619025.000000
620048.000000
621121.000000
622129.000000
623302.000000
624462.000000
625536.000000
626790.000000
627847.000000
628936.000000
630275.000000
631494.000000
632595.000000
633924.000000
635138.000000
636362.000000
637555.000000
638720.000000
639972.000000
641137.000000
642265.000000
643668.000000
644942.000000
646354.000000
647631.000000
648879.000000
650235.000000
651401.000000
652743.000000
653976.000000
655259.000000
656487.000000
657605.000000
658968.000000
660142.000000
661455.000000
662718.000000
663917.000000
665218.000000
666431.000000
667620.000000
668991.000000
670182.000000
671483.000000
672685.000000
673805.000000
675178.000000
676399.000000
677606.000000
678904.000000
680117.000000
681260.000000
682544.000000
683663.000000
684819.000000
686092.000000
687224.000000
688471.000000
689718.000000
690873.000000
692241.000000
693451.000000
694524.000000
695585.000000
696543.000000
697471.000000
698952.000000
700328.000000
701598.000000
702856.000000
703709.000000
704505.000000
705427.000000
706609.000000
707727.000000
708823.000000
709883.000000
710945.000000
712127.000000
713137.000000
714207.000000
715308.000000
716379.000000
717676.000000
718832.000000
720007.000000
721127.000000
722250.000000
723436.000000
724518.000000
725808.000000
726827.000000
728002.000000
729004.000000
729861.000000
730662.000000
731466.000000
732855.000000
733995.000000
735171.000000
736261.000000
737417.000000
738547.000000
739619.000000
740714.000000
741792.000000
742999.000000
744136.000000
745327.000000
746572.000000
747806.000000
749113.000000
750335.000000
751602.000000
752825.000000
754065.000000
755396.000000
756566.000000
757918.000000
759087.000000
760371.000000
761552.000000
762734.000000
763994.000000
765209.000000
766304.000000
767751.000000
769081.000000
770454.000000
771763.000000
772939.000000
774131.000000
775213.000000
776332.000000
777617.000000
778764.000000
780027.000000
781209.000000
782713.000000
783994.000000
785381.000000
786656.000000
787901.000000
789130.000000
790320.000000
791758.000000
793039.000000
794452.000000
795633.000000
797012.000000
798241.000000
799357.000000
800659.000000
801785.000000
802840.000000
804093.000000
805143.000000
806475.000000
807662.000000
808800.000000
809969.000000
811062.000000
812304.000000
813467.000000
814518.000000
815681.000000
816875.000000
818171.000000
819333.000000
820432.000000
821722.000000
822922.000000
824170.000000
825343.000000
826596.000000
827885.000000
829194.000000
830516.000000
831783.000000
832988.000000
834175.000000
835279.000000
836379.000000
837633.000000
838718.000000
839938.000000
841203.000000
842355.000000
843496.000000
844652.000000
845730.000000
847058.000000
848242.000000
849463.000000
850808.000000
852045.000000
853345.000000
854514.000000
855686.000000
857032.000000
858253.000000
859535.000000
860972.000000
862261.000000
863622.000000
864919.000000
866222.000000
867493.000000
868621.000000
869761.000000
870990.000000
872261.000000
873630.000000
874862.000000
876221.000000
877470.000000
878638.000000
879885.000000
880985.000000
882218.000000
883431.000000
884544.000000
885911.000000
887111.000000
888303.000000
889515.000000
890551.000000
891695.000000
892780.000000
893804.000000
895084.000000
896295.000000
897473.000000
898721.000000
899799.000000
900879.000000
902029.000000
903058.000000
904393.000000
905591.000000
906747.000000
908073.000000
909219.000000
910421.000000
911590.000000
912712.000000
913796.000000
914646.000000
915445.000000
916350.000000
917683.000000
918905.000000
920135.000000
921222.000000
922398.000000
923635.000000
924796.000000
925966.000000
927068.000000
928156.000000
929428.000000
930514.000000
931690.000000
932798.000000
933868.000000
935055.000000
936228.000000
937428.000000
938580.000000
939649.000000
940963.000000
942080.000000
943248.000000
944534.000000
945698.000000
946994.000000
948147.000000
949338.000000
950568.000000
951662.000000
952855.000000
954099.000000
955250.000000
956462.000000
957544.000000
958634.000000
959801.000000
960992.000000
962205.000000
963484.000000
964640.000000
965882.000000
967165.000000
968321.000000
969625.000000
970774.000000
971887.000000
973251.000000
974559.000000
975848.000000
977142.000000
978365.000000
979669.000000
980969.000000
982166.000000
983489.000000
984759.000000
985969.000000
987199.000000
988341.000000
989501.000000
990889.000000
992140.000000
993366.000000
994571.000000
995669.000000
997082.000000
998349.000000
999703.000000
1001040.000000
1002246.000000
1003572.000000
1004865.000000
1006072.000000
1007439.000000
1008721.000000
1010007.000000
1011314.000000
1012487.000000
1013642.000000
1014914.000000
1016046.000000
1017405.000000
1018716.000000
1019970.000000
1021344.000000
1022643.000000
1023900.000000
1025156.000000
1026291.000000
1027533.000000
1028736.000000
1029884.000000
1031267.000000
1032485.000000
1033745.000000
1034771.000000
1035693.000000
1036820.000000
1037864.000000
1039049.000000
1040194.000000
1041343.000000
1042454.000000
1043508.000000
1044596.000000
1045638.000000
1046598.000000
1047640.000000
1048904.000000
1049994.000000
1051151.000000
1052287.000000
1053377.000000
1054642.000000
1055774.000000
1056848.000000
1058093.000000
1059203.000000
1060524.000000
1061743.000000
1062807.000000
1064000.000000
1065288.000000
1066443.000000
1067565.000000
1068747.000000
1069781.000000
1071103.000000
1072318.000000
1073263.000000
1074127.000000
1074909.000000
1076470.000000
1077695.000000
1079047.000000
1080345.000000
1081601.000000
1082867.000000
1084005.000000
1085288.000000
1086405.000000
1087542.000000
1088792.000000
1090025.000000
1091428.000000
1092673.000000
1093833.000000
1095110.000000
1096389.000000
1097472.000000
1098629.000000
1099913.000000
1101100.000000
1102490.000000
1103552.000000
1104538.000000
1105932.000000
1107109.000000
1108431.000000
1109763.000000
1110927.000000
1112254.000000
1113276.000000
1114322.000000
1115522.000000
1116499.000000
1117628.000000
1118857.000000
1119909.000000
1120963.000000
1121810.000000
1122601.000000
1123374.000000
1124847.000000
1125966.000000
1127001.000000
1128193.000000
1129264.000000
1130441.000000
1131531.000000
1132605.000000
1133785.000000
1134835.000000
1136142.000000
1137268.000000
1138457.000000
1139739.000000
1140907.000000
1142112.000000
1143331.000000
1144624.000000
1145998.000000
1147268.000000
1148481.000000
1149746.000000
1150998.000000
1152184.000000
1153281.000000
1154513.000000
1155475.000000
1156470.000000
1157953.000000
1159231.000000
1160557.000000
1161843.000000
1163055.000000
1164293.000000
1165414.000000
1166686.000000
1167783.000000
1168757.000000
1169653.000000
1170487.000000
1171767.000000
1173075.000000
1174238.000000
1175427.000000
1176609.000000
1177686.000000
1178770.000000
1179832.000000
1181063.000000
1182166.000000
1183216.000000
1184418.000000
1185405.000000
1186755.000000
1187938.000000
1189301.000000
1190577.000000
1191720.000000
1192737.000000
1193781.000000
