ECG (ms)
578.000000
1358.000000
2364.000000
3659.000000
4823.000000
5889.000000
6883.000000
7802.000000
8684.000000
9533.000000
10309.000000
11040.000000
11860.000000
13041.000000
14236.000000
15306.000000
16376.000000
17381.000000
18273.000000
19108.000000
19906.000000
20692.000000
21462.000000
22370.000000
23510.000000
24512.000000
25426.000000
26275.000000
27105.000000
27930.000000
28971.000000
29959.000000
30892.000000
31787.000000
32642.000000
33493.000000
34317.000000
35259.000000
36296.000000
37275.000000
38198.000000
39076.000000
39927.000000
40736.000000
41578.000000
42656.000000
43742.000000
44790.000000
45769.000000
46611.000000
47353.000000
48104.000000
48883.000000
49762.000000
50895.000000
51878.000000
52822.000000
53742.000000
54646.000000
55554.000000
56461.000000
57376.000000
58339.000000
59290.000000
60242.000000
61169.000000
62083.000000
62985.000000
63879.000000
64775.000000
65721.000000
66729.000000
67696.000000
68659.000000
69598.000000
70519.000000
71413.000000
72300.000000
73190.000000
74126.000000
75116.000000
76111.000000
77108.000000
78076.000000
79022.000000
79949.000000
80869.000000
81842.000000
82883.000000
83864.000000
84830.000000
85793.000000
86725.000000
87640.000000
88545.000000
89460.000000
90464.000000
91540.000000
92581.000000
93591.000000
94579.000000
95531.000000
96467.000000
97382.000000
98311.000000
99284.000000
100277.000000
101284.000000
102298.000000
103308.000000
104283.000000
105240.000000
106214.000000
107194.000000
108169.000000
109134.000000
110087.000000
111033.000000
111964.000000
112903.000000
113876.000000
114884.000000
115879.000000
116870.000000
117843.000000
118801.000000
119746.000000
120675.000000
121614.000000
122585.000000
123595.000000
124652.000000
125644.000000
126638.000000
127605.000000
128563.000000
129503.000000
130435.000000
131377.000000
132359.000000
133373.000000
134385.000000
135379.000000
136365.000000
137335.000000
138300.000000
139276.000000
140222.000000
141179.000000
142152.000000
143158.000000
144162.000000
145141.000000
146119.000000
147096.000000
148072.000000
149016.000000
149963.000000
150953.000000
151959.000000
152979.000000
154008.000000
155021.000000
156007.000000
156959.000000
157888.000000
158812.000000
159767.000000
160739.000000
161716.000000
162701.000000
163669.000000
164645.000000
165598.000000
166550.000000
167534.000000
168538.000000
169545.000000
170471.000000
171337.000000
172116.000000
173007.000000
173930.000000
174842.000000
175750.000000
176676.000000
177611.000000
178608.000000
179576.000000
180517.000000
181417.000000
182327.000000
183215.000000
184180.000000
185100.000000
186042.000000
186989.000000
187895.000000
188831.000000
189758.000000
190696.000000
191664.000000
192658.000000
193706.000000
194723.000000
195714.000000
196675.000000
197628.000000
198580.000000
199529.000000
200497.000000
201475.000000
202456.000000
203425.000000
204364.000000
205337.000000
206336.000000
207311.000000
208271.000000
209227.000000
210161.000000
211130.000000
212090.000000
213027.000000
213932.000000
214860.000000
215886.000000
216902.000000
217914.000000
218888.000000
219819.000000
220717.000000
221627.000000
222559.000000
223519.000000
224504.000000
225481.000000
226431.000000
227374.000000
228312.000000
229257.000000
230201.000000
231184.000000
232170.000000
233180.000000
234154.000000
235094.000000
236000.000000
236932.000000
237862.000000
238874.000000
239859.000000
240815.000000
241787.000000
242766.000000
243752.000000
244716.000000
245681.000000
246630.000000
247583.000000
248496.000000
249424.000000
250416.000000
251442.000000
252477.000000
253453.000000
254400.000000
255303.000000
256192.000000
257031.000000
257860.000000
258668.000000
259413.000000
260209.000000
261169.000000
262160.000000
263149.000000
264156.000000
265126.000000
266056.000000
266975.000000
267910.000000
268798.000000
269698.000000
270618.000000
271581.000000
272562.000000
273555.000000
274513.000000
275411.000000
276299.000000
277224.000000
278201.000000
279173.000000
280157.000000
281086.000000
282014.000000
282970.000000
283934.000000
284930.000000
285827.000000
286678.000000
287571.000000
288515.000000
289480.000000
290480.000000
291419.000000
292301.000000
293197.000000
294188.000000
295181.000000
296118.000000
297005.000000
297932.000000
298902.000000
299873.000000
300830.000000
301794.000000
302701.000000
303607.000000
304526.000000
305478.000000
306413.000000
307316.000000
308236.000000
309140.000000
310076.000000
310997.000000
311895.000000
312792.000000
313739.000000
314846.000000
315849.000000
316765.000000
317642.000000
318558.000000
319522.000000
320496.000000
321409.000000
322360.000000
323365.000000
324358.000000
325306.000000
326212.000000
327103.000000
328062.000000
329029.000000
329930.000000
330856.000000
331844.000000
332805.000000
333716.000000
334637.000000
335569.000000
336423.000000
337180.000000
337981.000000
338957.000000
339917.000000
340825.000000
341746.000000
342721.000000
343649.000000
344522.000000
345361.000000
346187.000000
347142.000000
348055.000000
348939.000000
349857.000000
350807.000000
351767.000000
352634.000000
353512.000000
354406.000000
355381.000000
356321.000000
357197.000000
358101.000000
359040.000000
360003.000000
360930.000000
361818.000000
362710.000000
363626.000000
364552.000000
365479.000000
366373.000000
367269.000000
368180.000000
369093.000000
370007.000000
370879.000000
371748.000000
372696.000000
373626.000000
374541.000000
375422.000000
376297.000000
377183.000000
378123.000000
379033.000000
379933.000000
380805.000000
381755.000000
382756.000000
383707.000000
384632.000000
385554.000000
386533.000000
387513.000000
388420.000000
389313.000000
390227.000000
391206.000000
392205.000000
393130.000000
394078.000000
395059.000000
396110.000000
397125.000000
398070.000000
398988.000000
399913.000000
400905.000000
401879.000000
402787.000000
403706.000000
404677.000000
405691.000000
406652.000000
407602.000000
408589.000000
409625.000000
410638.000000
411587.000000
412485.000000
413414.000000
414429.000000
415472.000000
416445.000000
417362.000000
418265.000000
419199.000000
420182.000000
421150.000000
422066.000000
423001.000000
424032.000000
425134.000000
426169.000000
427117.000000
428064.000000
429049.000000
430086.000000
431068.000000
432062.000000
433095.000000
434150.000000
435161.000000
436114.000000
437063.000000
438005.000000
438863.000000
439649.000000
440503.000000
441510.000000
442444.000000
443428.000000
444437.000000
445426.000000
446358.000000
447291.000000
448253.000000
449213.000000
450106.000000
450971.000000
451837.000000
452787.000000
453725.000000
454659.000000
455650.000000
456680.000000
457696.000000
458654.000000
459574.000000
460490.000000
461426.000000
462351.000000
463273.000000
464231.000000
465236.000000
466202.000000
467144.000000
468089.000000
469014.000000
469917.000000
470817.000000
471762.000000
472690.000000
473599.000000
474502.000000
475410.000000
476350.000000
477303.000000
478222.000000
479113.000000
480018.000000
480961.000000
481894.000000
482855.000000
483815.000000
484828.000000
485765.000000
486651.000000
487536.000000
488455.000000
489444.000000
490378.000000
491308.000000
492289.000000
493312.000000
494303.000000
495266.000000
496245.000000
497262.000000
498259.000000
499203.000000
500137.000000
501127.000000
502091.000000
503011.000000
503922.000000
504861.000000
505855.000000
506797.000000
507731.000000
508705.000000
509717.000000
510704.000000
511653.000000
512560.000000
513456.000000
514343.000000
515242.000000
516130.000000
517045.000000
518055.000000
519084.000000
520021.000000
520892.000000
521685.000000
522444.000000
523334.000000
524323.000000
525285.000000
526218.000000
527158.000000
528105.000000
529048.000000
529931.000000
530809.000000
531702.000000
532622.000000
533519.000000
534383.000000
535275.000000
536221.000000
537136.000000
538023.000000
538927.000000
539900.000000
540860.000000
541766.000000
542647.000000
543571.000000
544503.000000
545405.000000
546308.000000
547242.000000
548231.000000
549158.000000
550096.000000
551061.000000
552010.000000
552920.000000
553860.000000
554816.000000
555789.000000
556710.000000
557604.000000
558515.000000
559480.000000
560410.000000
561344.000000
562288.000000
563263.000000
564166.000000
565019.000000
565876.000000
566799.000000
567795.000000
568704.000000
569624.000000
570625.000000
571630.000000
572531.000000
573398.000000
574297.000000
575201.000000
576103.000000
577053.000000
578040.000000
579032.000000
580013.000000
580946.000000
581853.000000
582758.000000
583696.000000
584646.000000
585603.000000
586532.000000
587460.000000
588424.000000
589383.000000
590287.000000
591197.000000
592130.000000
593077.000000
593982.000000
594923.000000
595901.000000
596814.000000
597697.000000
598594.000000
599578.000000
600596.000000
601537.000000
602513.000000
603477.000000
604427.000000
605319.000000
606127.000000
606873.000000
607710.000000
608686.000000
609662.000000
610623.000000
611558.000000
612468.000000
613359.000000
614222.000000
615097.000000
615983.000000
616881.000000
617746.000000
618580.000000
619408.000000
620292.000000
621177.000000
622042.000000
622911.000000
623883.000000
624822.000000
625713.000000
626591.000000
627527.000000
628519.000000
629484.000000
630392.000000
631272.000000
632160.000000
633116.000000
634028.000000
634894.000000
635779.000000
636703.000000
637658.000000
638563.000000
639454.000000
640384.000000
641373.000000
642311.000000
643187.000000
644047.000000
644953.000000
645890.000000
646812.000000
647752.000000
648666.000000
649609.000000
650561.000000
651457.000000
652342.000000
653270.000000
654300.000000
655269.000000
656162.000000
657033.000000
657919.000000
658912.000000
659893.000000
660809.000000
661776.000000
662775.000000
663786.000000
664732.000000
665639.000000
666563.000000
667528.000000
668473.000000
669396.000000
670323.000000
671294.000000
672262.000000
673214.000000
674129.000000
675049.000000
675991.000000
676954.000000
677916.000000
678831.000000
679736.000000
680662.000000
681636.000000
682613.000000
683551.000000
684472.000000
685430.000000
686425.000000
687391.000000
688290.000000
689168.000000
690093.000000
691039.000000
691960.000000
692890.000000
693884.000000
694904.000000
695858.000000
696802.000000
697780.000000
698807.000000
699789.000000
700707.000000
701621.000000
702575.000000
703568.000000
704533.000000
705457.000000
706395.000000
707362.000000
708367.000000
709337.000000
710265.000000
711188.000000
712150.000000
713101.000000
714035.000000
714925.000000
715788.000000
716700.000000
717677.000000
718632.000000
719642.000000
720677.000000
721679.000000
722587.000000
723472.000000
724408.000000
725382.000000
726333.000000
727267.000000
728254.000000
729300.000000
730298.000000
731250.000000
732173.000000
733107.000000
734075.000000
735017.000000
735970.000000
736956.000000
737982.000000
738963.000000
739888.000000
740815.000000
741830.000000
742776.000000
743655.000000
744553.000000
745472.000000
746518.000000
747504.000000
748459.000000
749431.000000
750410.000000
751363.000000
752270.000000
753159.000000
754111.000000
755056.000000
755971.000000
756927.000000
757894.000000
758850.000000
759744.000000
760669.000000
761647.000000
762640.000000
763546.000000
764415.000000
765304.000000
766267.000000
767167.000000
768095.000000
769049.000000
770005.000000
770916.000000
771769.000000
772623.000000
773516.000000
774467.000000
775350.000000
776242.000000
777175.000000
778095.000000
778951.000000
779785.000000
780644.000000
781576.000000
782540.000000
783445.000000
784303.000000
785180.000000
786109.000000
787012.000000
787926.000000
788876.000000
789849.000000
790813.000000
791748.000000
792630.000000
793495.000000
794346.000000
795202.000000
796042.000000
796910.000000
797845.000000
798778.000000
799686.000000
800574.000000
801510.000000
802478.000000
803372.000000
804201.000000
805052.000000
805948.000000
806846.000000
807724.000000
808644.000000
809641.000000
810634.000000
811554.000000
812448.000000
813351.000000
814279.000000
815212.000000
816135.000000
817025.000000
817898.000000
818775.000000
819738.000000
820694.000000
821607.000000
822509.000000
823457.000000
824447.000000
825389.000000
826271.000000
827135.000000
828020.000000
828933.000000
829813.000000
830710.000000
831667.000000
832718.000000
833750.000000
834706.000000
835635.000000
836557.000000
837479.000000
838382.000000
839303.000000
840305.000000
841348.000000
842348.000000
843330.000000
844328.000000
845327.000000
846254.000000
847168.000000
848112.000000
849081.000000
850051.000000
850945.000000
851867.000000
852888.000000
853965.000000
854941.000000
855863.000000
856802.000000
857806.000000
858843.000000
859871.000000
860855.000000
861921.000000
862971.000000
864002.000000
864984.000000
865918.000000
866879.000000
867933.000000
869012.000000
870006.000000
870963.000000
871941.000000
872946.000000
873909.000000
874861.000000
875827.000000
876874.000000
877864.000000
878801.000000
879727.000000
880671.000000
881653.000000
882627.000000
883585.000000
884579.000000
885592.000000
886606.000000
887571.000000
888526.000000
889494.000000
890459.000000
891401.000000
892329.000000
893284.000000
894253.000000
895238.000000
896210.000000
897189.000000
898160.000000
899138.000000
900096.000000
901053.000000
902008.000000
902969.000000
903923.000000
904878.000000
905837.000000
906825.000000
907815.000000
908782.000000
909750.000000
910741.000000
911726.000000
912691.000000
913638.000000
914597.000000
915568.000000
916550.000000
917519.000000
