ECG (ms)
763.000000
1695.000000
2653.000000
3606.000000
4532.000000
5413.000000
6255.000000
7100.000000
7953.000000
8819.000000
9649.000000
10522.000000
11378.000000
12286.000000
13275.000000
14316.000000
15234.000000
16154.000000
17081.000000
18016.000000
18894.000000
19779.000000
20710.000000
21671.000000
22587.000000
23517.000000
24471.000000
25457.000000
26432.000000
27359.000000
28284.000000
29225.000000
30186.000000
31092.000000
31963.000000
32936.000000
33956.000000
34967.000000
35971.000000
36930.000000
37775.000000
38750.000000
39845.000000
40858.000000
41854.000000
42819.000000
43757.000000
44702.000000
45694.000000
46661.000000
47625.000000
48628.000000
49631.000000
50619.000000
51596.000000
52562.000000
53534.000000
54442.000000
55247.000000
56121.000000
57189.000000
58212.000000
59213.000000
60193.000000
61174.000000
62156.000000
63140.000000
64106.000000
65037.000000
65998.000000
67005.000000
68027.000000
69058.000000
70049.000000
71038.000000
72037.000000
73058.000000
74066.000000
75091.000000
76136.000000
77179.000000
78201.000000
79235.000000
80253.000000
81251.000000
82244.000000
83278.000000
84367.000000
85404.000000
86409.000000
87439.000000
88523.000000
89585.000000
90598.000000
91573.000000
92575.000000
93611.000000
94684.000000
95744.000000
96775.000000
97829.000000
98885.000000
99934.000000
100957.000000
101947.000000
102900.000000
103878.000000
104885.000000
105933.000000
106973.000000
107990.000000
109036.000000
110081.000000
111095.000000
112090.000000
113080.000000
114090.000000
115085.000000
116032.000000
116984.000000
117961.000000
118933.000000
119899.000000
120871.000000
121895.000000
122970.000000
124036.000000
125069.000000
126137.000000
127214.000000
128294.000000
129321.000000
130359.000000
131393.000000
132424.000000
133413.000000
134419.000000
135442.000000
136448.000000
137392.000000
138349.000000
139310.000000
140284.000000
141219.000000
142194.000000
143183.000000
144175.000000
145136.000000
146059.000000
146985.000000
147977.000000
148989.000000
150018.000000
151049.000000
152047.000000
153004.000000
153992.000000
154964.000000
155928.000000
156866.000000
157746.000000
158590.000000
159611.000000
160468.000000
161286.000000
162125.000000
163080.000000
164010.000000
165070.000000
166123.000000
167153.000000
168192.000000
169189.000000
170155.000000
171141.000000
172121.000000
173095.000000
174089.000000
175061.000000
176033.000000
177037.000000
178070.000000
179102.000000
180109.000000
181074.000000
182058.000000
183077.000000
184115.000000
185131.000000
186107.000000
187088.000000
188097.000000
189175.000000
190267.000000
191306.000000
192347.000000
193427.000000
194493.000000
195550.000000
196577.000000
197622.000000
198707.000000
199769.000000
200795.000000
201827.000000
202860.000000
203832.000000
204839.000000
205868.000000
206887.000000
207941.000000
209044.000000
210152.000000
211221.000000
212293.000000
213332.000000
214356.000000
215398.000000
216437.000000
217451.000000
218484.000000
219516.000000
220511.000000
221517.000000
222553.000000
223589.000000
224594.000000
225635.000000
226681.000000
227726.000000
228708.000000
229704.000000
230722.000000
231728.000000
232741.000000
233782.000000
234829.000000
235863.000000
236880.000000
237927.000000
238996.000000
240058.000000
241078.000000
242074.000000
243097.000000
244162.000000
245276.000000
246381.000000
247427.000000
248454.000000
249498.000000
250553.000000
251585.000000
252579.000000
253581.000000
254581.000000
255611.000000
256616.000000
257674.000000
258792.000000
259885.000000
260910.000000
261922.000000
262953.000000
263991.000000
264990.000000
266022.000000
267099.000000
268160.000000
269186.000000
270248.000000
271299.000000
272340.000000
273345.000000
274343.000000
275361.000000
276377.000000
277397.000000
278392.000000
279355.000000
280357.000000
281399.000000
282453.000000
283460.000000
284514.000000
285588.000000
286629.000000
287607.000000
288592.000000
289552.000000
290502.000000
291530.000000
292686.000000
293821.000000
295005.000000
296134.000000
297249.000000
298354.000000
299439.000000
300507.000000
301561.000000
302567.000000
303586.000000
304616.000000
305594.000000
306600.000000
307653.000000
308672.000000
309713.000000
310743.000000
311752.000000
312786.000000
313829.000000
314830.000000
315816.000000
316836.000000
317837.000000
318827.000000
319852.000000
320871.000000
321879.000000
322893.000000
323931.000000
324977.000000
325987.000000
326966.000000
327972.000000
328985.000000
329995.000000
330965.000000
331956.000000
332960.000000
333958.000000
334963.000000
335999.000000
337035.000000
338042.000000
339040.000000
340084.000000
341131.000000
342128.000000
343121.000000
344118.000000
345133.000000
346160.000000
347165.000000
348226.000000
349391.000000
350506.000000
351562.000000
352656.000000
353780.000000
354879.000000
355942.000000
357008.000000
358072.000000
359131.000000
360133.000000
361150.000000
362187.000000
363241.000000
364328.000000
365368.000000
366396.000000
367456.000000
368531.000000
369570.000000
370598.000000
371654.000000
372709.000000
373761.000000
374786.000000
375817.000000
376859.000000
377841.000000
378813.000000
379825.000000
380874.000000
381922.000000
383071.000000
384223.000000
385370.000000
386452.000000
387566.000000
388700.000000
389770.000000
390844.000000
391913.000000
392945.000000
393873.000000
394907.000000
395966.000000
396957.000000
397986.000000
399087.000000
400176.000000
401234.000000
402288.000000
403349.000000
404372.000000
405372.000000
406430.000000
407477.000000
408490.000000
409549.000000
410638.000000
411733.000000
412779.000000
413847.000000
414902.000000
415918.000000
416972.000000
418065.000000
419183.000000
420253.000000
421279.000000
422348.000000
423410.000000
424436.000000
425436.000000
426493.000000
427591.000000
428660.000000
429686.000000
430727.000000
431802.000000
432925.000000
433975.000000
434998.000000
436062.000000
437131.000000
438186.000000
439195.000000
440199.000000
441223.000000
442279.000000
443352.000000
444398.000000
445447.000000
446527.000000
447596.000000
448611.000000
449539.000000
450480.000000
451599.000000
452653.000000
453684.000000
454678.000000
455711.000000
456792.000000
457877.000000
458936.000000
460011.000000
461083.000000
462120.000000
463130.000000
464136.000000
465145.000000
466165.000000
467153.000000
468178.000000
469223.000000
470287.000000
471294.000000
472313.000000
473357.000000
474438.000000
475519.000000
476558.000000
477597.000000
478611.000000
479578.000000
480569.000000
481598.000000
482605.000000
483642.000000
484713.000000
485781.000000
486810.000000
487863.000000
488931.000000
489983.000000
490992.000000
491957.000000
492947.000000
493959.000000
495010.000000
496062.000000
497081.000000
498131.000000
499196.000000
500258.000000
501306.000000
502365.000000
503431.000000
504466.000000
505476.000000
506513.000000
507565.000000
508593.000000
509592.000000
510611.000000
511641.000000
512640.000000
513653.000000
514729.000000
515885.000000
516983.000000
518064.000000
519179.000000
520282.000000
521330.000000
522375.000000
523418.000000
524425.000000
525410.000000
526427.000000
527461.000000
528469.000000
529459.000000
530488.000000
531571.000000
532650.000000
533705.000000
534789.000000
535895.000000
536948.000000
537998.000000
539055.000000
540117.000000
541122.000000
542153.000000
543225.000000
544319.000000
545384.000000
546446.000000
547526.000000
548613.000000
549651.000000
550686.000000
551742.000000
552783.000000
553820.000000
554811.000000
555753.000000
556737.000000
557740.000000
558778.000000
559810.000000
560822.000000
561871.000000
562939.000000
564019.000000
565086.000000
566123.000000
567182.000000
568250.000000
569308.000000
570332.000000
571330.000000
572381.000000
573488.000000
574630.000000
575746.000000
576839.000000
577951.000000
579066.000000
580149.000000
581185.000000
582188.000000
583229.000000
584333.000000
585469.000000
586563.000000
587655.000000
588789.000000
589904.000000
590963.000000
592007.000000
593076.000000
594180.000000
595288.000000
596358.000000
597458.000000
598591.000000
599661.000000
600673.000000
601647.000000
602673.000000
603729.000000
604784.000000
605842.000000
606921.000000
608015.000000
609124.000000
610144.000000
611104.000000
612191.000000
613248.000000
614259.000000
615299.000000
616384.000000
617501.000000
618570.000000
619596.000000
620639.000000
621691.000000
622693.000000
623693.000000
624731.000000
625762.000000
626763.000000
627803.000000
628883.000000
629975.000000
631015.000000
632041.000000
633071.000000
634070.000000
635026.000000
636050.000000
637117.000000
638177.000000
639217.000000
640214.000000
641222.000000
642257.000000
643298.000000
644330.000000
645327.000000
646313.000000
647345.000000
648394.000000
649440.000000
650459.000000
651500.000000
652623.000000
653738.000000
654814.000000
655842.000000
656874.000000
657964.000000
659022.000000
660035.000000
661097.000000
662180.000000
663207.000000
664237.000000
665277.000000
666331.000000
667287.000000
668174.000000
669117.000000
670233.000000
671249.000000
672248.000000
673321.000000
674424.000000
675521.000000
676646.000000
677756.000000
678814.000000
679899.000000
680972.000000
682013.000000
683073.000000
684127.000000
685150.000000
686208.000000
687287.000000
688354.000000
689459.000000
690561.000000
691591.000000
692648.000000
693688.000000
694665.000000
695688.000000
696730.000000
697748.000000
698808.000000
699885.000000
700978.000000
702061.000000
703132.000000
704184.000000
705147.000000
706132.000000
707170.000000
708214.000000
709257.000000
710269.000000
711289.000000
712345.000000
713428.000000
714511.000000
715548.000000
716595.000000
717653.000000
718704.000000
719731.000000
720730.000000
721805.000000
722967.000000
724133.000000
725249.000000
726366.000000
727487.000000
728606.000000
729639.000000
730664.000000
731739.000000
732831.000000
733947.000000
735057.000000
736205.000000
737340.000000
738410.000000
739507.000000
740612.000000
741700.000000
742759.000000
743835.000000
744917.000000
745956.000000
746999.000000
748066.000000
749168.000000
750241.000000
751381.000000
752463.000000
753510.000000
754603.000000
755751.000000
756886.000000
757969.000000
759079.000000
760227.000000
761341.000000
762392.000000
763498.000000
764621.000000
765665.000000
766715.000000
767803.000000
768876.000000
769913.000000
770889.000000
771919.000000
772967.000000
773990.000000
774995.000000
776031.000000
777093.000000
778085.000000
779026.000000
780048.000000
781136.000000
782170.000000
783166.000000
784232.000000
785352.000000
786425.000000
787521.000000
788665.000000
789749.000000
790844.000000
791957.000000
793015.000000
794006.000000
795019.000000
796038.000000
797064.000000
798062.000000
799076.000000
800143.000000
801285.000000
802379.000000
803397.000000
804439.000000
805489.000000
806516.000000
807514.000000
808511.000000
809548.000000
810650.000000
811726.000000
812761.000000
813840.000000
814923.000000
816011.000000
817055.000000
818111.000000
819196.000000
820302.000000
821344.000000
822381.000000
823440.000000
824512.000000
825573.000000
826599.000000
827651.000000
828720.000000
829773.000000
830779.000000
831749.000000
832689.000000
833612.000000
834554.000000
835768.000000
836896.000000
838031.000000
839217.000000
840393.000000
841504.000000
842498.000000
843507.000000
844564.000000
845614.000000
846629.000000
847613.000000
848664.000000
849784.000000
850827.000000
851903.000000
852983.000000
854002.000000
855029.000000
856092.000000
857138.000000
858209.000000
859303.000000
860367.000000
861426.000000
862508.000000
863585.000000
864585.000000
865521.000000
866473.000000
867547.000000
868610.000000
869622.000000
870625.000000
871693.000000
872782.000000
873809.000000
874753.000000
875760.000000
876879.000000
877942.000000
878970.000000
880072.000000
881196.000000
882249.000000
883301.000000
884383.000000
885462.000000
886488.000000
887552.000000
888616.000000
889663.000000
890753.000000
891853.000000
892920.000000
893996.000000
895064.000000
896127.000000
897149.000000
898208.000000
899304.000000
900388.000000
901473.000000
902578.000000
903678.000000
904725.000000
905779.000000
906847.000000
907919.000000
908960.000000
909963.000000
910994.000000
912049.000000
913110.000000
914124.000000
915160.000000
916215.000000
917256.000000
918253.000000
919263.000000
920279.000000
921305.000000
922296.000000
923270.000000
924337.000000
925382.000000
926400.000000
927442.000000
928512.000000
929629.000000
930658.000000
931696.000000
932761.000000
933799.000000
934791.000000
935847.000000
936912.000000
937992.000000
939046.000000
940098.000000
941151.000000
942204.000000
943216.000000
944246.000000
945317.000000
946426.000000
947509.000000
948557.000000
949623.000000
950671.000000
951687.000000
952680.000000
953718.000000
954799.000000
955876.000000
956953.000000
958053.000000
959160.000000
960247.000000
961288.000000
962333.000000
963423.000000
964538.000000
965651.000000
966721.000000
967734.000000
968786.000000
969883.000000
970978.000000
972051.000000
973084.000000
974164.000000
975259.000000
976350.000000
977398.000000
978436.000000
979525.000000
980672.000000
981768.000000
982832.000000
983927.000000
985020.000000
986094.000000
987184.000000
988335.000000
989492.000000
990611.000000
991691.000000
992775.000000
993863.000000
994950.000000
995992.000000
997081.000000
998188.000000
999268.000000
1000332.000000
1001430.000000
1002502.000000
1003522.000000
1004509.000000
1005565.000000
1006650.000000
1007768.000000
1008852.000000
1009964.000000
1011068.000000
1012207.000000
1013262.000000
1014323.000000
1015417.000000
1016459.000000
1017475.000000
1018526.000000
1019615.000000
1020717.000000
1021775.000000
1022845.000000
1023939.000000
1024995.000000
1026047.000000
1027121.000000
1028172.000000
1029198.000000
1030261.000000
1031287.000000
1032305.000000
1033376.000000
1034507.000000
1035575.000000
1036639.000000
1037732.000000
1038818.000000
1039846.000000
1040849.000000
1041904.000000
1042979.000000
1044018.000000
1045083.000000
1046180.000000
1047251.000000
1048312.000000
1049413.000000
1050520.000000
1051593.000000
1052638.000000
1053733.000000
1054837.000000
1055868.000000
1056899.000000
1057964.000000
1059036.000000
1060067.000000
1061057.000000
1062151.000000
1063320.000000
1064411.000000
1065449.000000
1066483.000000
1067569.000000
1068685.000000
1069766.000000
1070790.000000
1071842.000000
1072899.000000
1073953.000000
1074983.000000
1076016.000000
1077073.000000
1078140.000000
1079190.000000
1080196.000000
1081204.000000
1082233.000000
1083276.000000
1084288.000000
1085338.000000
1086447.000000
1087537.000000
1088628.000000
1089781.000000
1090863.000000
1091896.000000
1092953.000000
1094036.000000
1095077.000000
1096116.000000
1097182.000000
1098268.000000
1099350.000000
1100449.000000
1101547.000000
1102620.000000
1103644.000000
1104674.000000
1105701.000000
1106704.000000
1107673.000000
1108675.000000
1109713.000000
1110744.000000
1111793.000000
1112878.000000
1113955.000000
1114966.000000
1115982.000000
1117012.000000
1118055.000000
1119009.000000
1119831.000000
1120603.000000
1121414.000000
1122406.000000
1123334.000000
1124172.000000
1124991.000000
1126208.000000
1127314.000000
1128422.000000
1129537.000000
1130619.000000
1131640.000000
1132650.000000
1133672.000000
1134703.000000
1135734.000000
1136724.000000
1137681.000000
1138717.000000
1139801.000000
1140864.000000
1141887.000000
1142793.000000
1143717.000000
1144686.000000
1145801.000000
1146896.000000
1147979.000000
1149053.000000
1150181.000000
1151327.000000
1152452.000000
1153506.000000
1154526.000000
1155607.000000
1156688.000000
1157745.000000
1158754.000000
1159806.000000
1160893.000000
1161982.000000
1163051.000000
1164089.000000
1165131.000000
1166175.000000
1167221.000000
1168232.000000
1169230.000000
1170281.000000
1171362.000000
1172455.000000
1173543.000000
1174654.000000
1175698.000000
1176648.000000
1177706.000000
1178764.000000
1179769.000000
1180775.000000
1181818.000000
1182823.000000
1183771.000000
1184758.000000
1185780.000000
1186767.000000
1187704.000000
1188703.000000
1189711.000000
1190685.000000
1191608.000000
1192470.000000
1193503.000000
1194579.000000
1195601.000000
1196599.000000
1197614.000000
1198642.000000
1199687.000000
1200725.000000
1201733.000000
1202722.000000
1203762.000000
1204791.000000
