ECG (ms)
141.000000
1076.000000
1910.000000
2695.000000
3508.000000
4335.000000
5179.000000
6008.000000
6828.000000
7652.000000
8472.000000
9246.000000
9996.000000
10754.000000
11532.000000
12378.000000
13264.000000
14205.000000
15151.000000
16072.000000
16950.000000
17770.000000
18567.000000
19323.000000
20069.000000
20835.000000
21663.000000
22538.000000
23453.000000
24345.000000
25198.000000
26050.000000
26874.000000
27643.000000
28403.000000
29191.000000
30034.000000
30939.000000
31835.000000
32698.000000
33504.000000
34280.000000
35072.000000
35907.000000
36752.000000
37653.000000
38471.000000
39246.000000
40048.000000
40904.000000
41766.000000
42605.000000
43490.000000
44385.000000
45227.000000
46059.000000
46832.000000
47575.000000
48337.000000
49134.000000
50014.000000
50914.000000
51743.000000
52529.000000
53351.000000
54226.000000
55119.000000
55969.000000
56755.000000
57488.000000
58275.000000
59318.000000
60292.000000
61092.000000
61796.000000
62460.000000
63133.000000
63838.000000
64527.000000
65268.000000
66352.000000
67347.000000
68230.000000
69012.000000
69777.000000
70538.000000
71269.000000
71961.000000
72650.000000
73560.000000
74351.000000
75126.000000
76064.000000
77051.000000
78010.000000
78954.000000
79796.000000
80557.000000
81293.000000
82086.000000
83117.000000
84137.000000
85103.000000
85947.000000
86720.000000
87477.000000
88407.000000
89458.000000
90489.000000
91460.000000
92357.000000
93225.000000
94029.000000
94821.000000
95755.000000
96751.000000
97766.000000
98696.000000
99518.000000
100325.000000
101178.000000
102090.000000
103064.000000
103987.000000
104861.000000
105718.000000
106514.000000
107299.000000
108145.000000
109124.000000
110096.000000
111094.000000
112035.000000
112867.000000
113658.000000
114476.000000
115359.000000
116368.000000
117306.000000
118124.000000
118885.000000
119608.000000
120437.000000
121253.000000
122017.000000
122769.000000
123698.000000
124773.000000
125745.000000
126617.000000
127411.000000
128142.000000
128863.000000
129673.000000
130578.000000
131515.000000
132445.000000
133310.000000
134131.000000
134931.000000
135749.000000
136640.000000
137379.000000
138090.000000
138832.000000
139690.000000
140765.000000
141717.000000
142562.000000
143380.000000
144199.000000
145007.000000
145773.000000
146525.000000
147307.000000
148129.000000
148976.000000
149854.000000
150719.000000
151576.000000
152411.000000
153230.000000
153998.000000
154779.000000
155594.000000
156437.000000
157268.000000
158055.000000
158828.000000
159623.000000
160459.000000
161283.000000
162118.000000
162921.000000
163734.000000
164537.000000
165298.000000
166031.000000
166772.000000
167525.000000
168301.000000
169089.000000
169905.000000
170712.000000
171490.000000
172303.000000
173081.000000
173854.000000
174606.000000
175329.000000
176066.000000
176852.000000
177663.000000
178461.000000
179239.000000
179992.000000
180723.000000
181427.000000
182134.000000
182881.000000
183693.000000
184473.000000
185236.000000
186011.000000
186735.000000
187435.000000
188144.000000
188913.000000
189721.000000
190517.000000
191273.000000
192032.000000
192839.000000
193664.000000
194429.000000
195160.000000
195905.000000
196727.000000
197540.000000
198409.000000
199231.000000
200067.000000
200866.000000
201668.000000
202455.000000
203202.000000
203924.000000
204685.000000
205530.000000
206380.000000
207237.000000
208045.000000
209025.000000
210004.000000
210847.000000
211581.000000
212317.000000
213377.000000
214317.000000
215162.000000
215961.000000
216754.000000
217576.000000
218432.000000
219300.000000
220128.000000
221013.000000
221876.000000
222727.000000
223606.000000
224503.000000
225411.000000
226296.000000
227118.000000
227926.000000
228802.000000
229837.000000
230870.000000
231831.000000
232721.000000
233612.000000
234509.000000
235364.000000
236156.000000
236924.000000
237725.000000
238575.000000
239429.000000
240283.000000
241087.000000
241898.000000
242761.000000
243687.000000
244602.000000
245427.000000
246216.000000
247027.000000
247875.000000
248759.000000
249645.000000
250552.000000
251433.000000
252296.000000
253119.000000
253901.000000
254701.000000
255555.000000
256444.000000
257342.000000
258201.000000
259009.000000
259806.000000
260626.000000
261477.000000
262322.000000
263159.000000
263993.000000
264823.000000
265647.000000
266457.000000
267230.000000
267995.000000
268801.000000
269702.000000
270639.000000
271531.000000
272378.000000
273267.000000
274119.000000
274935.000000
275715.000000
276507.000000
277366.000000
278301.000000
279171.000000
279965.000000
280709.000000
281406.000000
282151.000000
282917.000000
283646.000000
284394.000000
285295.000000
286354.000000
287326.000000
288213.000000
289001.000000
289766.000000
290556.000000
291423.000000
292383.000000
293345.000000
294332.000000
295258.000000
296147.000000
297095.000000
298066.000000
299022.000000
299955.000000
300860.000000
301706.000000
302530.000000
303368.000000
304206.000000
305024.000000
305861.000000
306849.000000
307823.000000
308741.000000
309658.000000
310617.000000
311576.000000
312423.000000
313261.000000
314139.000000
315038.000000
315868.000000
316656.000000
317507.000000
318511.000000
319435.000000
320278.000000
321203.000000
322150.000000
323057.000000
323892.000000
324714.000000
325567.000000
326439.000000
327264.000000
328088.000000
328972.000000
329890.000000
330803.000000
331648.000000
332466.000000
333296.000000
334163.000000
335020.000000
335869.000000
336789.000000
337750.000000
338710.000000
339584.000000
340487.000000
341349.000000
342177.000000
342963.000000
343757.000000
344570.000000
345380.000000
346169.000000
346981.000000
347801.000000
348634.000000
349459.000000
350310.000000
351200.000000
352063.000000
352875.000000
353702.000000
354517.000000
355311.000000
356100.000000
356883.000000
357685.000000
358508.000000
359299.000000
360085.000000
360896.000000
361710.000000
362487.000000
363256.000000
364039.000000
364833.000000
365602.000000
366365.000000
367142.000000
367943.000000
368723.000000
369500.000000
370297.000000
371125.000000
371902.000000
372665.000000
373447.000000
374266.000000
375071.000000
375836.000000
376620.000000
377416.000000
378211.000000
378991.000000
379792.000000
380600.000000
381399.000000
382166.000000
382936.000000
383740.000000
384549.000000
385338.000000
386118.000000
386936.000000
387821.000000
388677.000000
389469.000000
390246.000000
391021.000000
391783.000000
392533.000000
393284.000000
394060.000000
394880.000000
395701.000000
396505.000000
397335.000000
398180.000000
398992.000000
399769.000000
400558.000000
401368.000000
402195.000000
402980.000000
403760.000000
404572.000000
405429.000000
406277.000000
407101.000000
407935.000000
408762.000000
409556.000000
410344.000000
411153.000000
411988.000000
412817.000000
413617.000000
414461.000000
415334.000000
416202.000000
416999.000000
417785.000000
418589.000000
419421.000000
420241.000000
421088.000000
421996.000000
422905.000000
423746.000000
424545.000000
425361.000000
426202.000000
427052.000000
427886.000000
428777.000000
429717.000000
430646.000000
431508.000000
432306.000000
433096.000000
433919.000000
434781.000000
435668.000000
436568.000000
437477.000000
438359.000000
439191.000000
439981.000000
440761.000000
441488.000000
442173.000000
442914.000000
443749.000000
444521.000000
445450.000000
446497.000000
447425.000000
448239.000000
449053.000000
449880.000000
450649.000000
451431.000000
452303.000000
453259.000000
454117.000000
454965.000000
455887.000000
456816.000000
457659.000000
458402.000000
459188.000000
459995.000000
460830.000000
461652.000000
462590.000000
463635.000000
464573.000000
465406.000000
466181.000000
466975.000000
467769.000000
468553.000000
469387.000000
470355.000000
471235.000000
472017.000000
472782.000000
473596.000000
474448.000000
475219.000000
475983.000000
476793.000000
477634.000000
478421.000000
479205.000000
480003.000000
480836.000000
481625.000000
482377.000000
483145.000000
483943.000000
484732.000000
485494.000000
486285.000000
487057.000000
487840.000000
488603.000000
489361.000000
490171.000000
491000.000000
491758.000000
492520.000000
493297.000000
494086.000000
494864.000000
495621.000000
496401.000000
497202.000000
497989.000000
498742.000000
499544.000000
500338.000000
501114.000000
501871.000000
502624.000000
503478.000000
504294.000000
505058.000000
505846.000000
506665.000000
507504.000000
508279.000000
509043.000000
509808.000000
510615.000000
511380.000000
512124.000000
512890.000000
513738.000000
514559.000000
515335.000000
516087.000000
516851.000000
517662.000000
518428.000000
519171.000000
519936.000000
520722.000000
521543.000000
522357.000000
523205.000000
524069.000000
524867.000000
525618.000000
526372.000000
527158.000000
527946.000000
528734.000000
529549.000000
530452.000000
531360.000000
532193.000000
532997.000000
533833.000000
534707.000000
535541.000000
536293.000000
537028.000000
537833.000000
538913.000000
539894.000000
540735.000000
541553.000000
542385.000000
543239.000000
544076.000000
544846.000000
545596.000000
546294.000000
546983.000000
547957.000000
548755.000000
549575.000000
550473.000000
551402.000000
552240.000000
553061.000000
553942.000000
554823.000000
555647.000000
556454.000000
557306.000000
558190.000000
559047.000000
559967.000000
560964.000000
561924.000000
562791.000000
563675.000000
564564.000000
565427.000000
566240.000000
567094.000000
567990.000000
568956.000000
569805.000000
570663.000000
571524.000000
572378.000000
573229.000000
574097.000000
574974.000000
575872.000000
576748.000000
577559.000000
578405.000000
579336.000000
580263.000000
581148.000000
581976.000000
582786.000000
583571.000000
584324.000000
585073.000000
585857.000000
586683.000000
587555.000000
588368.000000
589164.000000
590002.000000
590831.000000
591629.000000
592402.000000
593172.000000
593950.000000
594737.000000
595500.000000
596264.000000
597041.000000
597841.000000
598664.000000
599448.000000
600229.000000
601028.000000
601825.000000
602592.000000
603344.000000
604109.000000
604877.000000
605622.000000
606368.000000
607148.000000
607962.000000
608822.000000
609632.000000
610438.000000
611257.000000
612076.000000
612857.000000
613645.000000
614450.000000
615247.000000
616024.000000
616789.000000
617570.000000
618373.000000
619160.000000
619933.000000
620734.000000
621554.000000
622376.000000
623171.000000
623973.000000
624796.000000
625613.000000
626404.000000
627185.000000
627997.000000
628805.000000
629597.000000
630389.000000
631206.000000
632037.000000
632814.000000
633579.000000
634373.000000
635220.000000
636060.000000
636869.000000
637691.000000
638547.000000
639418.000000
640228.000000
641027.000000
641847.000000
642669.000000
643444.000000
644227.000000
645017.000000
645838.000000
646639.000000
647424.000000
648242.000000
649111.000000
649941.000000
650753.000000
651590.000000
652418.000000
653212.000000
653992.000000
654782.000000
655595.000000
656397.000000
657187.000000
657990.000000
658833.000000
659737.000000
660613.000000
661445.000000
662314.000000
663167.000000
663963.000000
664723.000000
665484.000000
666263.000000
667079.000000
667858.000000
668623.000000
669409.000000
670200.000000
670960.000000
671720.000000
672500.000000
673299.000000
674094.000000
674838.000000
675563.000000
676233.000000
676874.000000
677519.000000
678245.000000
678922.000000
679600.000000
680320.000000
681112.000000
681909.000000
682646.000000
683375.000000
684142.000000
684904.000000
685665.000000
686403.000000
687132.000000
687914.000000
688777.000000
689630.000000
690399.000000
691164.000000
691931.000000
692709.000000
693487.000000
694272.000000
695079.000000
695906.000000
696679.000000
697430.000000
698206.000000
698963.000000
699690.000000
700419.000000
701173.000000
701915.000000
702660.000000
703384.000000
704090.000000
704841.000000
705602.000000
706351.000000
707101.000000
707816.000000
708557.000000
709315.000000
710054.000000
710782.000000
711506.000000
712260.000000
713073.000000
713829.000000
714577.000000
715369.000000
716149.000000
716911.000000
717673.000000
718420.000000
719202.000000
720037.000000
720820.000000
721574.000000
722375.000000
723216.000000
724022.000000
724780.000000
725570.000000
726458.000000
727303.000000
728112.000000
728886.000000
729796.000000
730754.000000
731593.000000
732359.000000
733131.000000
733943.000000
734719.000000
735538.000000
736430.000000
737470.000000
738421.000000
739378.000000
740269.000000
741100.000000
741910.000000
742754.000000
743632.000000
744507.000000
745385.000000
746352.000000
747318.000000
748212.000000
749121.000000
750019.000000
750858.000000
751679.000000
752510.000000
753383.000000
754221.000000
755079.000000
755983.000000
756859.000000
757705.000000
758582.000000
759527.000000
760436.000000
761261.000000
762100.000000
762936.000000
763747.000000
764534.000000
765323.000000
766150.000000
766995.000000
767799.000000
768536.000000
769240.000000
769972.000000
771113.000000
772113.000000
773059.000000
773944.000000
774777.000000
775566.000000
776352.000000
777199.000000
778103.000000
779026.000000
779881.000000
780769.000000
781659.000000
782587.000000
783459.000000
784310.000000
785192.000000
786075.000000
786956.000000
787800.000000
788682.000000
789568.000000
790468.000000
791375.000000
792222.000000
793109.000000
794056.000000
794987.000000
795812.000000
796625.000000
797449.000000
798310.000000
799167.000000
800061.000000
800966.000000
801844.000000
802686.000000
803528.000000
804417.000000
805300.000000
806115.000000
806936.000000
807754.000000
808557.000000
809350.000000
810151.000000
811021.000000
811914.000000
812758.000000
813635.000000
814523.000000
815352.000000
816161.000000
817012.000000
817930.000000
818814.000000
819654.000000
820536.000000
821426.000000
822308.000000
823233.000000
824139.000000
824992.000000
825822.000000
826675.000000
827597.000000
828480.000000
829333.000000
830244.000000
831171.000000
832034.000000
832841.000000
833631.000000
834432.000000
835282.000000
836193.000000
837033.000000
837901.000000
838814.000000
839759.000000
840622.000000
841499.000000
842378.000000
843228.000000
844042.000000
844887.000000
845730.000000
846528.000000
847339.000000
848180.000000
849081.000000
849956.000000
850815.000000
851715.000000
852624.000000
853462.000000
854318.000000
855206.000000
856088.000000
856937.000000
857787.000000
858637.000000
859454.000000
860252.000000
861066.000000
861881.000000
862682.000000
863502.000000
864331.000000
865199.000000
866043.000000
866833.000000
867618.000000
868451.000000
869323.000000
870155.000000
870952.000000
871782.000000
872632.000000
873469.000000
874264.000000
875033.000000
875853.000000
876699.000000
877574.000000
878443.000000
879296.000000
880111.000000
880924.000000
881748.000000
882539.000000
883313.000000
884129.000000
884992.000000
885827.000000
886653.000000
887512.000000
888402.000000
889260.000000
890110.000000
891060.000000
892088.000000
893027.000000
893869.000000
894705.000000
895535.000000
896370.000000
897189.000000
897986.000000
898869.000000
899839.000000
900827.000000
901690.000000
902494.000000
903323.000000
904268.000000
905215.000000
906066.000000
906874.000000
907718.000000
908623.000000
909550.000000
910399.000000
911213.000000
912046.000000
912963.000000
913942.000000
914907.000000
915790.000000
916607.000000
917447.000000
918455.000000
919400.000000
920276.000000
921159.000000
922127.000000
923078.000000
923973.000000
924819.000000
925684.000000
926552.000000
927415.000000
928246.000000
929095.000000
929965.000000
930829.000000
931677.000000
932560.000000
933468.000000
934366.000000
935227.000000
936158.000000
937119.000000
938004.000000
938848.000000
939689.000000
940545.000000
941358.000000
942161.000000
943033.000000
943948.000000
944780.000000
945590.000000
946410.000000
947224.000000
948001.000000
948747.000000
949435.000000
950094.000000
950767.000000
951456.000000
952166.000000
952847.000000
953504.000000
954165.000000
954947.000000
955762.000000
956518.000000
957223.000000
957953.000000
958730.000000
959526.000000
960319.000000
961088.000000
961852.000000
962620.000000
963381.000000
964125.000000
964886.000000
965657.000000
966438.000000
967223.000000
968107.000000
968988.000000
969794.000000
970552.000000
971270.000000
972006.000000
972818.000000
973671.000000
974464.000000
975274.000000
976262.000000
977309.000000
978190.000000
979026.000000
979858.000000
980689.000000
981512.000000
982431.000000
983459.000000
984424.000000
985314.000000
986290.000000
987216.000000
988060.000000
989080.000000
990171.000000
991120.000000
992021.000000
992911.000000
993842.000000
994810.000000
995697.000000
996601.000000
997560.000000
998506.000000
999382.000000
1000281.000000
1001184.000000
1002095.000000
1002927.000000
1003752.000000
1004574.000000
1005380.000000
1006187.000000
1007021.000000
1007909.000000
1008837.000000
1009666.000000
1010487.000000
1011352.000000
1012248.000000
1013151.000000
1013963.000000
1014751.000000
1015536.000000
1016332.000000
1017162.000000
1017988.000000
1018883.000000
1019819.000000
1020744.000000
1021630.000000
1022528.000000
1023447.000000
1024297.000000
1025152.000000
1026006.000000
1026841.000000
1027639.000000
1028466.000000
1029377.000000
1030287.000000
1031129.000000
1031979.000000
1032854.000000
1033702.000000
1034498.000000
1035334.000000
1036173.000000
1036982.000000
1037784.000000
1038666.000000
1039608.000000
1040485.000000
1041316.000000
1042161.000000
1042998.000000
1043797.000000
1044625.000000
1045542.000000
1046505.000000
1047439.000000
1048315.000000
1049229.000000
1050141.000000
1050968.000000
1051793.000000
1052670.000000
1053567.000000
1054384.000000
1055174.000000
1056068.000000
1057051.000000
1057930.000000
1058788.000000
1059698.000000
1060605.000000
1061425.000000
1062244.000000
1063082.000000
1063881.000000
1064674.000000
1065508.000000
1066450.000000
1067351.000000
1068193.000000
1069107.000000
1070059.000000
1070889.000000
1071698.000000
1072508.000000
1073299.000000
1074046.000000
1074740.000000
1075399.000000
1076056.000000
1076833.000000
1077593.000000
1078382.000000
1079104.000000
1079786.000000
1080448.000000
1081108.000000
1081803.000000
1082484.000000
1083147.000000
1083811.000000
1084519.000000
1085274.000000
1086024.000000
1086812.000000
1087561.000000
1088290.000000
1089047.000000
1089812.000000
1090613.000000
1091421.000000
1092233.000000
1093074.000000
1093871.000000
1094620.000000
1095359.000000
1096102.000000
1096824.000000
1097534.000000
1098278.000000
1099030.000000
1099791.000000
1100532.000000
1101267.000000
1102000.000000
1102755.000000
1103496.000000
1104233.000000
1105030.000000
1105877.000000
1106675.000000
1107439.000000
1108224.000000
1109057.000000
1109877.000000
1110653.000000
1111445.000000
1112239.000000
1113056.000000
1113931.000000
1114723.000000
1115569.000000
1116449.000000
1117261.000000
1118067.000000
1118964.000000
1119843.000000
1120613.000000
1121402.000000
1122235.000000
1123175.000000
1124063.000000
1124907.000000
1125782.000000
1126754.000000
1127609.000000
1128479.000000
1129336.000000
1130195.000000
1130999.000000
1131775.000000
1132681.000000
1133697.000000
1134693.000000
1135567.000000
1136421.000000
1137259.000000
1138064.000000
1138891.000000
1139793.000000
1140728.000000
1141561.000000
1142406.000000
1143269.000000
1144119.000000
1144953.000000
1145872.000000
1146920.000000
1147852.000000
1148720.000000
1149593.000000
1150474.000000
1151299.000000
1152134.000000
1153045.000000
1153961.000000
1154824.000000
1155719.000000
1156655.000000
1157533.000000
1158395.000000
1159298.000000
1160220.000000
1161102.000000
1161947.000000
1162850.000000
1163793.000000
1164677.000000
1165520.000000
1166396.000000
1167294.000000
1168160.000000
1169000.000000
1169903.000000
1170879.000000
1171751.000000
1172567.000000
1173378.000000
1174223.000000
1175120.000000
1175940.000000
1176742.000000
1177592.000000
1178490.000000
1179350.000000
1180196.000000
1181074.000000
1181951.000000
1182820.000000
1183691.000000
1184562.000000
1185442.000000
1186279.000000
1187057.000000
1187793.000000
1188501.000000
1189306.000000
1190069.000000
1190922.000000
1192021.000000
1193073.000000
1193996.000000
1194860.000000
