ECG (ms)
297.000000
1193.000000
2113.000000
2983.000000
3847.000000
4739.000000
5593.000000
6525.000000
7390.000000
8275.000000
9130.000000
9976.000000
10835.000000
11698.000000
12523.000000
13374.000000
14213.000000
14997.000000
15783.000000
16588.000000
17394.000000
18207.000000
19076.000000
19916.000000
20845.000000
21782.000000
22654.000000
23510.000000
24428.000000
25332.000000
26216.000000
27070.000000
27889.000000
28650.000000
29408.000000
30158.000000
31025.000000
31957.000000
32912.000000
33863.000000
34739.000000
35635.000000
36526.000000
37397.000000
38242.000000
39098.000000
39999.000000
40909.000000
41808.000000
42669.000000
43545.000000
44422.000000
45268.000000
46104.000000
46972.000000
47891.000000
48756.000000
49652.000000
50534.000000
51378.000000
52180.000000
52994.000000
53828.000000
54717.000000
55673.000000
56573.000000
57462.000000
58377.000000
59295.000000
60162.000000
61036.000000
61953.000000
62844.000000
63737.000000
64641.000000
65534.000000
66417.000000
67350.000000
68269.000000
69131.000000
69998.000000
70910.000000
71824.000000
72694.000000
73593.000000
74513.000000
75432.000000
76313.000000
77232.000000
78175.000000
79055.000000
79907.000000
80766.000000
81634.000000
82528.000000
83413.000000
84303.000000
85245.000000
86132.000000
87035.000000
87902.000000
88737.000000
89572.000000
90418.000000
91309.000000
92221.000000
93126.000000
94055.000000
94938.000000
95802.000000
96669.000000
97519.000000
98341.000000
99167.000000
99997.000000
100864.000000
101703.000000
102555.000000
103398.000000
104222.000000
105048.000000
105892.000000
106735.000000
107565.000000
108407.000000
109297.000000
110150.000000
111023.000000
111876.000000
112721.000000
113547.000000
114387.000000
115246.000000
116081.000000
116910.000000
117753.000000
118624.000000
119481.000000
120363.000000
121242.000000
122102.000000
122956.000000
123818.000000
124671.000000
125508.000000
126369.000000
127230.000000
128076.000000
128949.000000
129846.000000
130715.000000
131578.000000
132462.000000
133313.000000
134164.000000
135036.000000
135950.000000
136840.000000
137733.000000
138677.000000
139622.000000
140536.000000
141467.000000
142411.000000
143295.000000
144152.000000
145032.000000
145917.000000
146810.000000
147678.000000
148645.000000
149576.000000
150443.000000
151297.000000
152101.000000
152901.000000
153732.000000
154565.000000
155472.000000
156419.000000
157314.000000
158285.000000
159218.000000
160112.000000
161014.000000
161855.000000
162688.000000
163542.000000
164357.000000
165162.000000
166007.000000
166911.000000
167830.000000
168732.000000
169634.000000
170567.000000
171511.000000
172410.000000
173321.000000
174238.000000
175177.000000
176045.000000
176836.000000
177592.000000
178311.000000
179037.000000
179948.000000
180914.000000
181836.000000
182780.000000
183671.000000
184562.000000
185460.000000
186312.000000
187132.000000
187914.000000
188722.000000
189560.000000
190417.000000
191299.000000
192219.000000
193144.000000
194063.000000
194946.000000
195865.000000
196802.000000
197775.000000
198709.000000
199671.000000
200693.000000
201724.000000
202676.000000
203555.000000
204460.000000
205390.000000
206268.000000
207202.000000
208189.000000
209157.000000
210073.000000
211007.000000
211947.000000
212838.000000
213675.000000
214534.000000
215416.000000
216333.000000
217264.000000
218254.000000
219201.000000
220125.000000
221039.000000
221912.000000
222751.000000
223602.000000
224469.000000
225347.000000
226209.000000
227130.000000
228034.000000
228918.000000
229829.000000
230726.000000
231602.000000
232448.000000
233310.000000
234170.000000
234994.000000
235807.000000
236635.000000
237485.000000
238357.000000
239217.000000
240125.000000
241047.000000
241926.000000
242808.000000
243679.000000
244561.000000
245426.000000
246328.000000
247239.000000
248122.000000
249006.000000
249903.000000
250765.000000
251658.000000
252609.000000
253498.000000
254428.000000
255347.000000
256225.000000
257106.000000
257985.000000
258878.000000
259797.000000
260667.000000
261572.000000
262493.000000
263384.000000
264247.000000
265114.000000
265998.000000
266872.000000
267712.000000
268597.000000
269485.000000
270390.000000
271261.000000
272122.000000
272980.000000
273847.000000
274691.000000
275533.000000
276398.000000
277271.000000
278123.000000
278985.000000
279858.000000
280746.000000
281585.000000
282418.000000
283267.000000
284147.000000
285026.000000
285892.000000
286787.000000
287675.000000
288549.000000
289411.000000
290279.000000
291147.000000
292023.000000
292892.000000
293783.000000
294699.000000
295591.000000
296490.000000
297396.000000
298307.000000
299153.000000
299993.000000
300850.000000
301711.000000
302584.000000
303488.000000
304423.000000
305374.000000
306280.000000
307182.000000
308083.000000
308960.000000
309847.000000
310760.000000
311673.000000
312567.000000
313451.000000
314344.000000
315243.000000
316116.000000
317009.000000
317922.000000
318814.000000
319706.000000
320600.000000
321507.000000
322359.000000
323213.000000
324074.000000
324939.000000
325785.000000
326638.000000
327507.000000
328394.000000
329251.000000
330102.000000
330968.000000
331832.000000
332674.000000
333493.000000
334333.000000
335227.000000
336131.000000
337035.000000
337952.000000
338832.000000
339680.000000
340455.000000
341245.000000
342066.000000
342905.000000
343709.000000
344555.000000
345433.000000
346307.000000
347221.000000
348177.000000
349061.000000
349948.000000
350821.000000
351692.000000
352529.000000
353390.000000
354265.000000
355139.000000
356017.000000
356907.000000
357836.000000
358725.000000
359585.000000
360468.000000
361394.000000
362289.000000
363161.000000
364030.000000
364925.000000
365810.000000
366677.000000
367593.000000
368610.000000
369654.000000
370707.000000
371698.000000
372597.000000
373459.000000
374336.000000
375218.000000
376106.000000
377034.000000
377986.000000
378937.000000
379825.000000
380741.000000
381670.000000
382565.000000
383455.000000
384365.000000
385285.000000
386161.000000
387048.000000
387929.000000
388819.000000
389699.000000
390569.000000
391448.000000
392329.000000
393193.000000
394070.000000
394972.000000
395829.000000
396672.000000
397540.000000
398416.000000
399281.000000
400153.000000
401024.000000
401869.000000
402703.000000
403544.000000
404412.000000
405297.000000
406155.000000
407031.000000
407914.000000
408782.000000
409644.000000
410528.000000
411385.000000
412235.000000
413103.000000
413985.000000
414861.000000
415721.000000
416592.000000
417505.000000
418422.000000
419317.000000
420215.000000
421203.000000
422151.000000
423037.000000
423896.000000
424757.000000
425632.000000
426478.000000
427332.000000
428245.000000
429171.000000
430038.000000
430928.000000
431804.000000
432659.000000
433496.000000
434349.000000
435195.000000
436023.000000
436861.000000
437741.000000
438651.000000
439521.000000
440427.000000
441348.000000
442235.000000
443096.000000
443966.000000
444832.000000
445680.000000
446536.000000
447440.000000
448371.000000
449257.000000
450116.000000
450969.000000
451797.000000
452611.000000
453455.000000
454325.000000
455180.000000
456056.000000
456945.000000
457847.000000
458729.000000
459607.000000
460497.000000
461372.000000
462229.000000
463093.000000
463998.000000
464905.000000
465776.000000
466654.000000
467549.000000
468456.000000
469323.000000
470149.000000
470997.000000
471831.000000
472667.000000
473433.000000
474177.000000
474855.000000
475530.000000
476243.000000
477153.000000
478204.000000
479202.000000
480109.000000
480998.000000
481922.000000
482850.000000
483717.000000
484548.000000
485422.000000
486330.000000
487195.000000
488065.000000
488962.000000
489870.000000
490765.000000
491628.000000
492485.000000
493322.000000
494158.000000
495013.000000
495867.000000
496738.000000
497612.000000
498428.000000
499231.000000
500048.000000
500880.000000
501717.000000
502537.000000
503344.000000
504162.000000
504989.000000
505821.000000
506632.000000
507452.000000
508299.000000
509157.000000
510014.000000
510883.000000
511791.000000
512686.000000
513545.000000
514408.000000
515282.000000
516129.000000
516949.000000
517771.000000
518600.000000
519450.000000
520279.000000
521110.000000
521967.000000
522857.000000
523716.000000
524562.000000
525421.000000
526303.000000
527170.000000
528042.000000
528877.000000
529705.000000
530530.000000
531339.000000
532146.000000
532957.000000
533752.000000
534539.000000
535355.000000
536196.000000
537055.000000
537915.000000
538814.000000
539706.000000
540554.000000
541443.000000
542327.000000
543180.000000
543987.000000
544785.000000
545583.000000
546437.000000
547286.000000
548171.000000
549047.000000
549949.000000
550828.000000
551708.000000
552604.000000
553516.000000
554373.000000
555238.000000
556121.000000
557004.000000
557864.000000
558711.000000
559569.000000
560465.000000
561359.000000
562214.000000
563080.000000
563948.000000
564801.000000
565627.000000
566482.000000
567362.000000
568273.000000
569147.000000
569985.000000
570832.000000
571637.000000
572432.000000
573228.000000
574036.000000
574843.000000
575600.000000
576350.000000
577245.000000
578110.000000
579054.000000
579949.000000
580867.000000
581740.000000
582587.000000
583430.000000
584280.000000
585148.000000
586001.000000
586856.000000
587684.000000
588461.000000
589207.000000
589936.000000
590709.000000
591754.000000
592739.000000
593641.000000
594503.000000
595375.000000
596258.000000
597151.000000
598021.000000
598882.000000
599728.000000
600591.000000
601443.000000
602300.000000
603141.000000
604005.000000
604847.000000
605690.000000
606559.000000
607463.000000
608372.000000
609243.000000
610108.000000
610969.000000
611843.000000
612761.000000
613658.000000
614646.000000
615656.000000
616607.000000
617502.000000
618426.000000
619326.000000
620215.000000
621076.000000
621938.000000
622825.000000
623743.000000
624620.000000
625490.000000
626398.000000
627271.000000
628149.000000
629017.000000
629860.000000
630734.000000
631660.000000
632569.000000
633476.000000
634398.000000
635293.000000
636159.000000
637082.000000
638010.000000
638985.000000
639887.000000
640784.000000
641688.000000
642593.000000
643462.000000
644324.000000
645184.000000
646055.000000
646905.000000
647719.000000
648570.000000
649478.000000
650446.000000
651420.000000
652436.000000
653460.000000
654406.000000
655291.000000
656174.000000
657062.000000
657932.000000
658787.000000
659665.000000
660571.000000
661470.000000
662340.000000
663241.000000
664123.000000
664985.000000
665829.000000
666697.000000
667595.000000
668522.000000
669402.000000
670287.000000
671172.000000
672037.000000
672874.000000
673722.000000
674562.000000
675397.000000
676224.000000
677065.000000
677923.000000
678803.000000
679647.000000
680512.000000
681412.000000
682287.000000
683134.000000
683987.000000
684832.000000
685655.000000
686464.000000
687274.000000
688104.000000
688937.000000
689762.000000
690627.000000
691496.000000
692319.000000
693095.000000
693794.000000
694478.000000
695152.000000
695806.000000
696487.000000
697316.000000
698258.000000
699120.000000
699973.000000
700840.000000
701683.000000
702527.000000
703385.000000
704247.000000
705082.000000
705910.000000
706742.000000
707582.000000
708394.000000
709230.000000
710104.000000
710983.000000
711832.000000
712696.000000
713554.000000
714408.000000
715242.000000
716095.000000
716938.000000
717771.000000
718596.000000
719450.000000
720293.000000
721144.000000
721978.000000
722829.000000
723670.000000
724536.000000
725371.000000
726225.000000
727087.000000
727936.000000
728762.000000
729610.000000
730477.000000
731309.000000
732148.000000
733002.000000
733863.000000
734701.000000
735543.000000
736410.000000
737292.000000
738147.000000
739006.000000
739908.000000
740801.000000
741681.000000
742533.000000
743409.000000
744276.000000
745147.000000
745992.000000
746845.000000
747699.000000
748573.000000
749422.000000
750286.000000
751166.000000
752059.000000
752920.000000
753793.000000
754685.000000
755589.000000
756451.000000
757312.000000
758206.000000
759098.000000
759949.000000
760825.000000
761722.000000
762580.000000
763415.000000
764263.000000
765126.000000
765985.000000
766801.000000
767614.000000
768439.000000
769286.000000
770097.000000
770920.000000
771780.000000
772661.000000
773520.000000
774361.000000
775212.000000
776043.000000
776838.000000
777636.000000
778431.000000
779238.000000
780072.000000
780932.000000
781829.000000
782769.000000
783705.000000
784579.000000
785486.000000
786378.000000
787241.000000
788083.000000
788940.000000
789844.000000
790793.000000
791677.000000
792547.000000
793436.000000
794334.000000
795208.000000
796072.000000
796961.000000
797853.000000
798731.000000
799582.000000
800451.000000
801323.000000
802166.000000
803003.000000
803890.000000
804821.000000
805737.000000
806630.000000
807542.000000
808435.000000
809279.000000
810116.000000
810978.000000
811870.000000
812783.000000
813686.000000
814611.000000
815553.000000
816435.000000
817303.000000
818175.000000
819007.000000
819896.000000
820761.000000
821584.000000
822448.000000
823293.000000
824142.000000
824937.000000
825733.000000
826520.000000
827308.000000
828087.000000
828868.000000
829696.000000
830576.000000
831412.000000
832250.000000
833119.000000
834012.000000
834882.000000
835717.000000
836522.000000
837295.000000
838028.000000
838744.000000
839495.000000
840359.000000
841154.000000
841951.000000
842808.000000
843649.000000
844417.000000
845118.000000
845825.000000
846610.000000
847466.000000
848360.000000
849217.000000
850080.000000
850923.000000
851803.000000
852687.000000
853529.000000
854371.000000
855235.000000
856119.000000
856988.000000
857828.000000
858686.000000
859545.000000
860378.000000
861221.000000
862077.000000
862974.000000
863897.000000
864793.000000
865694.000000
866621.000000
867515.000000
868368.000000
869228.000000
870105.000000
870960.000000
871781.000000
872608.000000
873455.000000
874358.000000
875245.000000
876095.000000
876974.000000
877869.000000
878720.000000
879574.000000
880442.000000
881324.000000
882211.000000
883110.000000
884025.000000
884928.000000
885803.000000
886659.000000
887534.000000
888432.000000
889309.000000
890168.000000
891046.000000
891936.000000
892804.000000
893663.000000
894522.000000
895365.000000
896171.000000
896990.000000
897840.000000
898739.000000
899596.000000
900479.000000
901372.000000
902235.000000
903087.000000
903951.000000
904822.000000
905650.000000
906503.000000
907366.000000
908217.000000
909051.000000
909905.000000
910744.000000
911570.000000
912369.000000
913179.000000
914002.000000
914835.000000
915710.000000
916667.000000
917617.000000
918516.000000
919419.000000
920314.000000
921154.000000
922013.000000
922866.000000
923729.000000
924589.000000
925466.000000
926366.000000
927275.000000
928157.000000
929048.000000
929941.000000
930843.000000
931692.000000
932535.000000
933423.000000
934307.000000
935182.000000
936046.000000
936951.000000
937859.000000
938714.000000
939582.000000
940439.000000
941310.000000
942149.000000
943001.000000
943869.000000
944758.000000
945621.000000
946464.000000
947341.000000
948221.000000
949068.000000
949914.000000
950776.000000
951639.000000
952506.000000
953342.000000
954201.000000
955083.000000
955967.000000
956825.000000
957698.000000
958565.000000
959453.000000
960309.000000
961185.000000
962107.000000
963037.000000
963900.000000
964773.000000
965667.000000
966617.000000
967522.000000
968414.000000
969323.000000
970220.000000
971117.000000
971986.000000
972869.000000
973765.000000
974624.000000
975502.000000
976412.000000
977309.000000
978175.000000
979044.000000
979943.000000
980838.000000
981694.000000
982554.000000
983413.000000
984246.000000
985063.000000
985887.000000
986771.000000
987684.000000
988542.000000
989389.000000
990272.000000
991152.000000
992024.000000
992856.000000
993692.000000
994496.000000
995314.000000
996124.000000
996930.000000
997712.000000
998484.000000
999214.000000
999884.000000
1000570.000000
1001454.000000
1002292.000000
1003177.000000
1004081.000000
1005029.000000
1005931.000000
1006879.000000
1007785.000000
1008648.000000
1009510.000000
1010380.000000
1011222.000000
1012042.000000
1012871.000000
1013729.000000
1014562.000000
1015424.000000
1016338.000000
1017226.000000
1018108.000000
1018984.000000
1019860.000000
1020697.000000
1021547.000000
1022398.000000
1023224.000000
1024050.000000
1024884.000000
1025738.000000
1026558.000000
1027379.000000
1028218.000000
1029053.000000
1029871.000000
1030687.000000
1031514.000000
1032350.000000
1033187.000000
1034008.000000
1034863.000000
1035748.000000
1036612.000000
1037471.000000
1038332.000000
1039205.000000
1040070.000000
1040915.000000
1041713.000000
1042472.000000
1043174.000000
1043871.000000
1044632.000000
1045625.000000
1046582.000000
1047458.000000
1048345.000000
1049239.000000
1050117.000000
1051022.000000
1051900.000000
1052729.000000
1053565.000000
1054413.000000
1055264.000000
1056133.000000
1057003.000000
1057841.000000
1058692.000000
1059520.000000
1060305.000000
1061000.000000
1061692.000000
1062414.000000
1063203.000000
1064233.000000
1065313.000000
1066242.000000
1067138.000000
1068025.000000
1068928.000000
1069743.000000
1070578.000000
1071442.000000
1072318.000000
1073159.000000
1074007.000000
1074865.000000
1075739.000000
1076588.000000
1077476.000000
1078439.000000
1079363.000000
1080250.000000
1081162.000000
1082085.000000
1082981.000000
1083839.000000
1084699.000000
1085560.000000
1086432.000000
1087309.000000
1088175.000000
1089059.000000
1089950.000000
1090875.000000
1091810.000000
1092712.000000
1093624.000000
1094551.000000
1095485.000000
1096379.000000
1097260.000000
1098132.000000
1099010.000000
1099880.000000
1100755.000000
1101624.000000
1102516.000000
1103453.000000
1104332.000000
1105230.000000
1106086.000000
1106902.000000
1107716.000000
1108563.000000
1109466.000000
1110328.000000
1111266.000000
1112332.000000
1113383.000000
1114344.000000
1115256.000000
1116165.000000
1117058.000000
1117916.000000
1118750.000000
1119595.000000
1120454.000000
1121318.000000
1122179.000000
1123031.000000
1123917.000000
1124814.000000
1125680.000000
1126528.000000
1127394.000000
1128264.000000
1129129.000000
1129967.000000
1130810.000000
1131660.000000
1132497.000000
1133312.000000
1134153.000000
1135022.000000
1135896.000000
1136733.000000
1137592.000000
1138473.000000
1139321.000000
1140149.000000
1140983.000000
1141812.000000
1142624.000000
1143421.000000
1144223.000000
1145050.000000
1145882.000000
1146719.000000
1147569.000000
1148425.000000
1149277.000000
1150116.000000
1150972.000000
1151855.000000
1152726.000000
1153570.000000
1154418.000000
1155275.000000
1156124.000000
1156949.000000
1157796.000000
1158623.000000
1159459.000000
1160274.000000
1161109.000000
1161964.000000
1162826.000000
1163663.000000
1164522.000000
1165379.000000
1166270.000000
1167111.000000
1167974.000000
1168845.000000
1169706.000000
1170537.000000
1171358.000000
1172202.000000
1173060.000000
1173923.000000
1174758.000000
1175621.000000
1176506.000000
1177390.000000
1178231.000000
1179048.000000
1179866.000000
1180689.000000
1181505.000000
1182345.000000
1183213.000000
1184117.000000
1184997.000000
1185825.000000
1186661.000000
1187517.000000
1188347.000000
1189159.000000
1190003.000000
1190861.000000
1191732.000000
1192575.000000
1193376.000000
1194163.000000
1194960.000000
1195763.000000
1196567.000000
1197360.000000
1198170.000000
1199019.000000
1199883.000000
1200717.000000
1201551.000000
1202412.000000
1203277.000000
1204120.000000
1204971.000000
1205851.000000
1206787.000000
1207693.000000
1208621.000000
1209562.000000
1210509.000000
1211387.000000
1212264.000000
1213159.000000
1214072.000000
1214939.000000
1215801.000000
1216689.000000
1217599.000000
1218508.000000
1219383.000000
1220326.000000
1221268.000000
1222181.000000
1223078.000000
1223989.000000
1224917.000000
1225838.000000
1226712.000000
1227636.000000
1228583.000000
1229553.000000
1230461.000000
1231419.000000
1232352.000000
1233254.000000
1234116.000000
1234986.000000
1235872.000000
1236746.000000
1237608.000000
1238456.000000
1239328.000000
1240225.000000
1241108.000000
1241974.000000
1242871.000000
1243752.000000
1244611.000000
1245444.000000
1246317.000000
1247200.000000
1248083.000000
1248940.000000
1249823.000000
1250696.000000
1251560.000000
1252396.000000
1253248.000000
1254105.000000
1254936.000000
1255761.000000
1256597.000000
1257452.000000
1258293.000000
1259143.000000
1260031.000000
1260923.000000
1261775.000000
1262637.000000
1263522.000000
1264370.000000
1265173.000000
1265903.000000
1266611.000000
1267345.000000
1268168.000000
1269038.000000
1269849.000000
1270651.000000
1271470.000000
1272297.000000
1273108.000000
1273898.000000
1274712.000000
1275683.000000
1276712.000000
1277675.000000
1278605.000000
1279511.000000
1280372.000000
1281233.000000
1282089.000000
1282967.000000
1283824.000000
1284688.000000
1285580.000000
1286469.000000
1287330.000000
1288163.000000
1289009.000000
1289866.000000
1290732.000000
1291569.000000
1292448.000000
1293332.000000
1294206.000000
1295069.000000
1295948.000000
1296840.000000
1297702.000000
1298547.000000
1299414.000000
1300308.000000
1301200.000000
1302099.000000
1303015.000000
1304021.000000
1304985.000000
1305882.000000
1306781.000000
1307689.000000
1308622.000000
1309482.000000
1310340.000000
1311239.000000
1312177.000000
1313141.000000
1314043.000000
1314922.000000
1315807.000000
1316672.000000
1317532.000000
1318391.000000
1319267.000000
1320200.000000
1321099.000000
1321997.000000
1322902.000000
1323834.000000
1324756.000000
1325677.000000
1326587.000000
1327429.000000
1328206.000000
1328918.000000
1329611.000000
1330310.000000
1331052.000000
1331749.000000
1332515.000000
1333505.000000
1334408.000000
1335265.000000
1336145.000000
1337078.000000
1338003.000000
1338867.000000
1339709.000000
1340508.000000
1341317.000000
1342136.000000
1342976.000000
1343785.000000
1344592.000000
1345433.000000
1346361.000000
1347253.000000
1348084.000000
1348901.000000
1349785.000000
1350752.000000
1351623.000000
1352453.000000
1353316.000000
1354273.000000
1355209.000000
1356031.000000
1356853.000000
1357668.000000
1358467.000000
1359303.000000
1360418.000000
1361427.000000
1362378.000000
1363245.000000
1364058.000000
1364834.000000
1365570.000000
1366259.000000
1366955.000000
1367831.000000
1368841.000000
1369686.000000
1370519.000000
1371365.000000
1372221.000000
1373074.000000
1373913.000000
1374758.000000
1375624.000000
1376487.000000
1377337.000000
1378228.000000
1379150.000000
1380091.000000
1380963.000000
1381868.000000
1382757.000000
1383636.000000
1384474.000000
1385334.000000
1386183.000000
1387038.000000
1387868.000000
1388716.000000
1389559.000000
1390392.000000
1391202.000000
1392040.000000
1392887.000000
1393739.000000
1394597.000000
1395489.000000
1396409.000000
1397271.000000
1398171.000000
1399105.000000
1400022.000000
1400888.000000
1401760.000000
1402642.000000
1403524.000000
1404388.000000
1405246.000000
1406127.000000
1407006.000000
1407865.000000
1408729.000000
1409620.000000
1410530.000000
1411436.000000
1412338.000000
1413248.000000
1414189.000000
1415090.000000
1415947.000000
1416826.000000
1417721.000000
1418586.000000
1419445.000000
1420323.000000
1421225.000000
1422105.000000
1423010.000000
1423903.000000
1424770.000000
1425595.000000
1426414.000000
1427257.000000
1428146.000000
1428988.000000
1429846.000000
1430783.000000
1431709.000000
1432563.000000
1433440.000000
1434319.000000
1435191.000000
1436033.000000
1436879.000000
1437733.000000
1438575.000000
1439399.000000
1440227.000000
1441050.000000
1441870.000000
1442694.000000
1443541.000000
1444414.000000
1445314.000000
1446218.000000
1447084.000000
1447976.000000
1448858.000000
1449710.000000
1450582.000000
1451441.000000
1452289.000000
1453133.000000
1453994.000000
1454878.000000
1455799.000000
1456669.000000
1457541.000000
1458421.000000
1459286.000000
1460132.000000
1460991.000000
1461869.000000
1462774.000000
1463646.000000
1464505.000000
1465389.000000
1466300.000000
1467196.000000
1468060.000000
1468928.000000
1469793.000000
1470657.000000
1471513.000000
1472361.000000
1473231.000000
1474127.000000
1474998.000000
1475879.000000
1476774.000000
1477651.000000
1478500.000000
1479364.000000
1480226.000000
1481052.000000
1481867.000000
1482701.000000
1483550.000000
1484394.000000
1485213.000000
1486064.000000
1486957.000000
1487844.000000
1488699.000000
1489562.000000
1490438.000000
1491300.000000
1492118.000000
1492955.000000
1493803.000000
1494649.000000
1495528.000000
1496434.000000
1497357.000000
1498257.000000
1499151.000000
1500047.000000
1500959.000000
1501860.000000
1502727.000000
1503593.000000
1504463.000000
1505311.000000
1506118.000000
1506937.000000
1507767.000000
1508645.000000
1509533.000000
1510481.000000
1511515.000000
1512573.000000
1513555.000000
1514490.000000
1515394.000000
1516250.000000
1517081.000000
1517922.000000
1518774.000000
1519629.000000
1520481.000000
1521341.000000
1522226.000000
1523111.000000
1523963.000000
1524827.000000
1525715.000000
1526583.000000
1527419.000000
1528249.000000
1529096.000000
1529934.000000
1530747.000000
1531583.000000
1532446.000000
1533327.000000
1534192.000000
1535079.000000
1536014.000000
1536918.000000
1537794.000000
1538669.000000
1539523.000000
1540388.000000
1541226.000000
1542057.000000
1542917.000000
1543770.000000
1544644.000000
1545495.000000
1546378.000000
1547283.000000
1548138.000000
1548979.000000
1549835.000000
1550694.000000
1551523.000000
1552371.000000
1553229.000000
1554092.000000
1554930.000000
1555761.000000
1556618.000000
1557475.000000
1558329.000000
1559210.000000
1560055.000000
1560853.000000
1561595.000000
1562347.000000
1563118.000000
1564015.000000
1564951.000000
1565774.000000
1566632.000000
1567494.000000
1568342.000000
1569177.000000
1570038.000000
1570910.000000
1571755.000000
1572588.000000
1573435.000000
1574315.000000
1575161.000000
1576004.000000
1576875.000000
1577804.000000
1578684.000000
1579557.000000
1580454.000000
1581339.000000
1582189.000000
1583033.000000
1583896.000000
1584764.000000
1585642.000000
1586480.000000
1587321.000000
1588177.000000
1589052.000000
1589952.000000
1590831.000000
1591737.000000
1592720.000000
1593640.000000
1594523.000000
1595397.000000
1596306.000000
1597217.000000
1598104.000000
1598959.000000
1599825.000000
1600729.000000
1601634.000000
1602501.000000
1603365.000000
1604240.000000
1605124.000000
1606017.000000
1606921.000000
1607849.000000
1608745.000000
1609623.000000
1610502.000000
1611383.000000
1612229.000000
1613087.000000
1613956.000000
1614869.000000
1615817.000000
1616738.000000
1617653.000000
1618510.000000
1619342.000000
1620180.000000
1621019.000000
1621833.000000
1622646.000000
1623470.000000
1624326.000000
1625191.000000
1626042.000000
1626923.000000
1627803.000000
1628657.000000
1629495.000000
1630387.000000
1631306.000000
1632216.000000
1633109.000000
1634030.000000
1634923.000000
1635796.000000
1636633.000000
1637474.000000
1638299.000000
1639178.000000
1640028.000000
1640908.000000
1641829.000000
1642710.000000
1643585.000000
1644482.000000
1645361.000000
1646201.000000
1647056.000000
1647939.000000
1648833.000000
1649691.000000
1650538.000000
1651364.000000
1652196.000000
1653011.000000
1653815.000000
1654638.000000
1655473.000000
1656307.000000
1657147.000000
1658023.000000
1658950.000000
1659822.000000
1660675.000000
1661535.000000
1662375.000000
1663211.000000
1664038.000000
1664950.000000
1665839.000000
1666706.000000
1667568.000000
1668430.000000
1669283.000000
1670122.000000
1670961.000000
1671841.000000
1672710.000000
1673549.000000
1674393.000000
1675235.000000
1676077.000000
1676912.000000
1677760.000000
1678604.000000
1679430.000000
1680244.000000
1681077.000000
1681895.000000
1682710.000000
1683537.000000
1684390.000000
1685227.000000
1686048.000000
1686902.000000
1687771.000000
1688639.000000
1689492.000000
1690356.000000
1691247.000000
1692143.000000
1693021.000000
1693908.000000
1694768.000000
1695612.000000
1696464.000000
1697323.000000
1698141.000000
1698961.000000
1699797.000000
1700635.000000
1701455.000000
1702286.000000
1703143.000000
1704017.000000
1704867.000000
1705734.000000
1706584.000000
1707404.000000
1708230.000000
1709054.000000
1709854.000000
1710650.000000
1711463.000000
1712310.000000
1713150.000000
1713987.000000
1714859.000000
1715768.000000
1716636.000000
1717477.000000
1718338.000000
1719195.000000
1720026.000000
1720839.000000
1721665.000000
1722494.000000
1723314.000000
1724133.000000
1724984.000000
1725872.000000
1726750.000000
1727612.000000
1728512.000000
1729405.000000
1730265.000000
1731121.000000
1732004.000000
1732886.000000
1733734.000000
1734567.000000
1735405.000000
1736212.000000
1737010.000000
1737822.000000
1738651.000000
1739549.000000
1740468.000000
1741405.000000
1742360.000000
1743296.000000
1744186.000000
1745028.000000
1745899.000000
1746783.000000
1747645.000000
1748504.000000
1749379.000000
1750247.000000
1751077.000000
1751898.000000
1752738.000000
1753568.000000
1754404.000000
1755225.000000
1756061.000000
1756890.000000
1757715.000000
1758527.000000
1759333.000000
1760139.000000
1760927.000000
1761705.000000
1762512.000000
1763358.000000
1764226.000000
1765077.000000
1765926.000000
1766812.000000
1767675.000000
1768501.000000
1769334.000000
1770188.000000
1771037.000000
1771880.000000
1772738.000000
1773644.000000
1774511.000000
1775365.000000
1776248.000000
1777133.000000
1777976.000000
1778849.000000
1779743.000000
1780600.000000
1781443.000000
1782299.000000
1783156.000000
1783994.000000
1784812.000000
1785651.000000
1786492.000000
1787325.000000
1788150.000000
1788988.000000
1789839.000000
1790703.000000
1791534.000000
1792390.000000
1793238.000000
1794072.000000
1794902.000000
1795745.000000
1796592.000000
1797407.000000
1798236.000000
1799059.000000
1799885.000000
