ECG (ms)
741.000000
1618.000000
2536.000000
3458.000000
4321.000000
5236.000000
6166.000000
7008.000000
7826.000000
8646.000000
9562.000000
10495.000000
11358.000000
12240.000000
13149.000000
14100.000000
14994.000000
15856.000000
16768.000000
17710.000000
18653.000000
19527.000000
20411.000000
21321.000000
22250.000000
23170.000000
24024.000000
24920.000000
25854.000000
26853.000000
27822.000000
28708.000000
29617.000000
30554.000000
31498.000000
32370.000000
33274.000000
34209.000000
35186.000000
36078.000000
36991.000000
37932.000000
38886.000000
39765.000000
40641.000000
41557.000000
42500.000000
43403.000000
44242.000000
45137.000000
46077.000000
47041.000000
47935.000000
48836.000000
49790.000000
50752.000000
51630.000000
52531.000000
53449.000000
54382.000000
55244.000000
56150.000000
57091.000000
58012.000000
58876.000000
59788.000000
60742.000000
61682.000000
62549.000000
63470.000000
64406.000000
65322.000000
66166.000000
67036.000000
67906.000000
68763.000000
69596.000000
70480.000000
71407.000000
72311.000000
73176.000000
74095.000000
75039.000000
75960.000000
76831.000000
77754.000000
78702.000000
79627.000000
80507.000000
81418.000000
82345.000000
83277.000000
84143.000000
85039.000000
85987.000000
86920.000000
87772.000000
88644.000000
89538.000000
90424.000000
91274.000000
92180.000000
93126.000000
94060.000000
94928.000000
95831.000000
96770.000000
97642.000000
98512.000000
99420.000000
100340.000000
101182.000000
102040.000000
102928.000000
103805.000000
104638.000000
105514.000000
106412.000000
107288.000000
108119.000000
109008.000000
109926.000000
110819.000000
111654.000000
112522.000000
113412.000000
114297.000000
115128.000000
115992.000000
116885.000000
117794.000000
118648.000000
119523.000000
120425.000000
121316.000000
122150.000000
123016.000000
123904.000000
124794.000000
125626.000000
126482.000000
127374.000000
128284.000000
129140.000000
129991.000000
130883.000000
131804.000000
132669.000000
133514.000000
134388.000000
135284.000000
136128.000000
136988.000000
137880.000000
138791.000000
139656.000000
140533.000000
141440.000000
142368.000000
143235.000000
144099.000000
144995.000000
145907.000000
146756.000000
147610.000000
148487.000000
149399.000000
150248.000000
151116.000000
152014.000000
152918.000000
153763.000000
154631.000000
155509.000000
156398.000000
157253.000000
158132.000000
159033.000000
159926.000000
160763.000000
161631.000000
162525.000000
163436.000000
164287.000000
165177.000000
166090.000000
167001.000000
167846.000000
168721.000000
169614.000000
170507.000000
171358.000000
172254.000000
173174.000000
174082.000000
174927.000000
175808.000000
176717.000000
177623.000000
178465.000000
179333.000000
180237.000000
181146.000000
181985.000000
182842.000000
183719.000000
184624.000000
185485.000000
186341.000000
187242.000000
188160.000000
189017.000000
189877.000000
190772.000000
191680.000000
192536.000000
193406.000000
194315.000000
195228.000000
196078.000000
196954.000000
197858.000000
198756.000000
199594.000000
200459.000000
201348.000000
202231.000000
203079.000000
203981.000000
204918.000000
205808.000000
206664.000000
207572.000000
208501.000000
209377.000000
210218.000000
211096.000000
212009.000000
212905.000000
213768.000000
214697.000000
215643.000000
216539.000000
217395.000000
218291.000000
219215.000000
220086.000000
220931.000000
221817.000000
222726.000000
223594.000000
224439.000000
225333.000000
226253.000000
227169.000000
228029.000000
228929.000000
229842.000000
230747.000000
231591.000000
232471.000000
233364.000000
234261.000000
235098.000000
235962.000000
236841.000000
237731.000000
238575.000000
239439.000000
240322.000000
241203.000000
242042.000000
242913.000000
243794.000000
244677.000000
245510.000000
246372.000000
247256.000000
248161.000000
249013.000000
249893.000000
250791.000000
251673.000000
252518.000000
253397.000000
254295.000000
255196.000000
256035.000000
256907.000000
257817.000000
258733.000000
259589.000000
260469.000000
261371.000000
262249.000000
263091.000000
263975.000000
264875.000000
265751.000000
266590.000000
267475.000000
268392.000000
269297.000000
270148.000000
271026.000000
271930.000000
272811.000000
273646.000000
274516.000000
275411.000000
276300.000000
277138.000000
277999.000000
278875.000000
279766.000000
280613.000000
281457.000000
282350.000000
283288.000000
284163.000000
285050.000000
285959.000000
286871.000000
287715.000000
288583.000000
289464.000000
290343.000000
291180.000000
292052.000000
292959.000000
293832.000000
294667.000000
295555.000000
296466.000000
297327.000000
298165.000000
299043.000000
299929.000000
300764.000000
301619.000000
302504.000000
303378.000000
304216.000000
305089.000000
305964.000000
306794.000000
307619.000000
308470.000000
309340.000000
310167.000000
310987.000000
311847.000000
312735.000000
313578.000000
314414.000000
315292.000000
316186.000000
317019.000000
317855.000000
318718.000000
319610.000000
320453.000000
321264.000000
322109.000000
322971.000000
323841.000000
324675.000000
325532.000000
326410.000000
327298.000000
328135.000000
328962.000000
329825.000000
330715.000000
331584.000000
332413.000000
333278.000000
334154.000000
335027.000000
335846.000000
336683.000000
337536.000000
338390.000000
339198.000000
340055.000000
340932.000000
341812.000000
342637.000000
343464.000000
344316.000000
345183.000000
346008.000000
346841.000000
347712.000000
348621.000000
349477.000000
350329.000000
351212.000000
352097.000000
352929.000000
353790.000000
354665.000000
355545.000000
356373.000000
357218.000000
358085.000000
358941.000000
359773.000000
360646.000000
361529.000000
362374.000000
363207.000000
364089.000000
364993.000000
365867.000000
366705.000000
367581.000000
368490.000000
369390.000000
370238.000000
371101.000000
371985.000000
372869.000000
373691.000000
374491.000000
375264.000000
376011.000000
376790.000000
377633.000000
378465.000000
379282.000000
380163.000000
381073.000000
381986.000000
382845.000000
383736.000000
384624.000000
385497.000000
386319.000000
387142.000000
387992.000000
388873.000000
389737.000000
390572.000000
391452.000000
392352.000000
393227.000000
394064.000000
394937.000000
395813.000000
396646.000000
397470.000000
398336.000000
399238.000000
400146.000000
401013.000000
401914.000000
402838.000000
403753.000000
404601.000000
405449.000000
406317.000000
407198.000000
408049.000000
408898.000000
409776.000000
410680.000000
411569.000000
412411.000000
413285.000000
414169.000000
415046.000000
415870.000000
416724.000000
417592.000000
418479.000000
419332.000000
420226.000000
421191.000000
422093.000000
422964.000000
423892.000000
424830.000000
425774.000000
426641.000000
427520.000000
428424.000000
429351.000000
430212.000000
431106.000000
432030.000000
432943.000000
433794.000000
434701.000000
435621.000000
436517.000000
437346.000000
438206.000000
439098.000000
439980.000000
440848.000000
441807.000000
442780.000000
443669.000000
444591.000000
445550.000000
446496.000000
447348.000000
448221.000000
449113.000000
450009.000000
450856.000000
451735.000000
452668.000000
453611.000000
454495.000000
455422.000000
456359.000000
457280.000000
458141.000000
459036.000000
459944.000000
460815.000000
461651.000000
462527.000000
463448.000000
464380.000000
465244.000000
466146.000000
467059.000000
467954.000000
468798.000000
469686.000000
470596.000000
471508.000000
472354.000000
473236.000000
474134.000000
475034.000000
475880.000000
476755.000000
477663.000000
478576.000000
479430.000000
480281.000000
481167.000000
482074.000000
482920.000000
483770.000000
484652.000000
485548.000000
486386.000000
487210.000000
488090.000000
489027.000000
489926.000000
490818.000000
491779.000000
492747.000000
493650.000000
494508.000000
495423.000000
496361.000000
497232.000000
498110.000000
499029.000000
499955.000000
500808.000000
501691.000000
502625.000000
503568.000000
504444.000000
505347.000000
506286.000000
507206.000000
508061.000000
508939.000000
509843.000000
510758.000000
511609.000000
512490.000000
513411.000000
514345.000000
515192.000000
516078.000000
516974.000000
517884.000000
518746.000000
519560.000000
520408.000000
521297.000000
522198.000000
523038.000000
523925.000000
524841.000000
525758.000000
526604.000000
527476.000000
528380.000000
529292.000000
530132.000000
531000.000000
531883.000000
532768.000000
533601.000000
534459.000000
535340.000000
536232.000000
537065.000000
537898.000000
538758.000000
539642.000000
540474.000000
541314.000000
542190.000000
543075.000000
543906.000000
544750.000000
545611.000000
546493.000000
547321.000000
548157.000000
549015.000000
549890.000000
550721.000000
551550.000000
552408.000000
553292.000000
554134.000000
554966.000000
555830.000000
556705.000000
557552.000000
558378.000000
559236.000000
560098.000000
560949.000000
561767.000000
562633.000000
563529.000000
564451.000000
565312.000000
566225.000000
567162.000000
568077.000000
568925.000000
569819.000000
570736.000000
571609.000000
572473.000000
573377.000000
574301.000000
575203.000000
576047.000000
576902.000000
577795.000000
578714.000000
579577.000000
580464.000000
581415.000000
582376.000000
583262.000000
584159.000000
585091.000000
586033.000000
586894.000000
587780.000000
588699.000000
589611.000000
590463.000000
591365.000000
592278.000000
593171.000000
594010.000000
594888.000000
595796.000000
596686.000000
597534.000000
598442.000000
599381.000000
600297.000000
601153.000000
602034.000000
602932.000000
603795.000000
604634.000000
605538.000000
606476.000000
607369.000000
608233.000000
609155.000000
610088.000000
610948.000000
611841.000000
612764.000000
613696.000000
614560.000000
615442.000000
616348.000000
617262.000000
618133.000000
619004.000000
619912.000000
620841.000000
621730.000000
622611.000000
623559.000000
624547.000000
625447.000000
626344.000000
627280.000000
628238.000000
629128.000000
629998.000000
630912.000000
631835.000000
632700.000000
633546.000000
634427.000000
635328.000000
636178.000000
637010.000000
637867.000000
638740.000000
639576.000000
640401.000000
641276.000000
642177.000000
643043.000000
643872.000000
644734.000000
645613.000000
646498.000000
647338.000000
648197.000000
649077.000000
649975.000000
650825.000000
651685.000000
652555.000000
653436.000000
654292.000000
655117.000000
656001.000000
656951.000000
657892.000000
658776.000000
659724.000000
660702.000000
661598.000000
662483.000000
663422.000000
664380.000000
665255.000000
666150.000000
667062.000000
667944.000000
668791.000000
669693.000000
670626.000000
671564.000000
672442.000000
673352.000000
674268.000000
675147.000000
676002.000000
676904.000000
677844.000000
678757.000000
679629.000000
680577.000000
681527.000000
682441.000000
683296.000000
684191.000000
685091.000000
685998.000000
686834.000000
687664.000000
688550.000000
689494.000000
690414.000000
691286.000000
692207.000000
693146.000000
694036.000000
694896.000000
695817.000000
696756.000000
697649.000000
698481.000000
699349.000000
700252.000000
701165.000000
702016.000000
702871.000000
703772.000000
704687.000000
705583.000000
706428.000000
707306.000000
708215.000000
709143.000000
710035.000000
710894.000000
711790.000000
712701.000000
713577.000000
714423.000000
715300.000000
716183.000000
717022.000000
717827.000000
718677.000000
719591.000000
720531.000000
721415.000000
722308.000000
723249.000000
724162.000000
725039.000000
725958.000000
726892.000000
727789.000000
728664.000000
729619.000000
730613.000000
731532.000000
732437.000000
733391.000000
734362.000000
735244.000000
736137.000000
737048.000000
737917.000000
738753.000000
739645.000000
740586.000000
741510.000000
742362.000000
743255.000000
744181.000000
745109.000000
745962.000000
746808.000000
747701.000000
748611.000000
749466.000000
750330.000000
751234.000000
752183.000000
753090.000000
753952.000000
754849.000000
755766.000000
756649.000000
757493.000000
758359.000000
759242.000000
760114.000000
760945.000000
761806.000000
762700.000000
763622.000000
764500.000000
765346.000000
766226.000000
767121.000000
768024.000000
768874.000000
769772.000000
770684.000000
771609.000000
772467.000000
773308.000000
774198.000000
775115.000000
775960.000000
776808.000000
777688.000000
778593.000000
779452.000000
780290.000000
781173.000000
782072.000000
782927.000000
783765.000000
784653.000000
785574.000000
786500.000000
787360.000000
788208.000000
789113.000000
790073.000000
790977.000000
791846.000000
792804.000000
793811.000000
794804.000000
795734.000000
796596.000000
797496.000000
798418.000000
799357.000000
800223.000000
801131.000000
802074.000000
803000.000000
803859.000000
804756.000000
805691.000000
806654.000000
807556.000000
808472.000000
809402.000000
810327.000000
811186.000000
812037.000000
812939.000000
813879.000000
814772.000000
815629.000000
816539.000000
817487.000000
818407.000000
819253.000000
820105.000000
820972.000000
821873.000000
822752.000000
823639.000000
824600.000000
825620.000000
826549.000000
827514.000000
828484.000000
829423.000000
830277.000000
831134.000000
832026.000000
832959.000000
833857.000000
834743.000000
835710.000000
836714.000000
837672.000000
838584.000000
839520.000000
840457.000000
841324.000000
842160.000000
843072.000000
844064.000000
845025.000000
845925.000000
846903.000000
847925.000000
848858.000000
849731.000000
850676.000000
851657.000000
852550.000000
853419.000000
854356.000000
855313.000000
856239.000000
857090.000000
857954.000000
858847.000000
859761.000000
860623.000000
861496.000000
862408.000000
863339.000000
864230.000000
865124.000000
866024.000000
866942.000000
867819.000000
868667.000000
869582.000000
870557.000000
871542.000000
872499.000000
873392.000000
874299.000000
875215.000000
876073.000000
876902.000000
877775.000000
878682.000000
879595.000000
880448.000000
881340.000000
882279.000000
883220.000000
884103.000000
885026.000000
885989.000000
886943.000000
887824.000000
888661.000000
889550.000000
890477.000000
891384.000000
892232.000000
893122.000000
894052.000000
894990.000000
895848.000000
896693.000000
897599.000000
898546.000000
899455.000000
900308.000000
901210.000000
902145.000000
903042.000000
903900.000000
904814.000000
905738.000000
906651.000000
907490.000000
908277.000000
909078.000000
909921.000000
910855.000000
911799.000000
912676.000000
913582.000000
914538.000000
915521.000000
916415.000000
917324.000000
918264.000000
919226.000000
920113.000000
921062.000000
922014.000000
922944.000000
923858.000000
924700.000000
925558.000000
926457.000000
927375.000000
928278.000000
929125.000000
930017.000000
930927.000000
931809.000000
932632.000000
933497.000000
934384.000000
935263.000000
936091.000000
936973.000000
937867.000000
938743.000000
939568.000000
940432.000000
941320.000000
942202.000000
943033.000000
943890.000000
944753.000000
945610.000000
946425.000000
947281.000000
948156.000000
949028.000000
949847.000000
950694.000000
951559.000000
952439.000000
953274.000000
954116.000000
954990.000000
955886.000000
956772.000000
957608.000000
958485.000000
959389.000000
960301.000000
961201.000000
962038.000000
962867.000000
963726.000000
964616.000000
965461.000000
966285.000000
967168.000000
968082.000000
968980.000000
969817.000000
970707.000000
971624.000000
972534.000000
973367.000000
974196.000000
975039.000000
975915.000000
976757.000000
977599.000000
978510.000000
979472.000000
980398.000000
981254.000000
982159.000000
983077.000000
984010.000000
984881.000000
985747.000000
986655.000000
987586.000000
988453.000000
989350.000000
990270.000000
991173.000000
992009.000000
992868.000000
993736.000000
994617.000000
995447.000000
996320.000000
997223.000000
998108.000000
998938.000000
999817.000000
1000718.000000
1001576.000000
1002394.000000
1003255.000000
1004146.000000
1004985.000000
1005801.000000
1006665.000000
1007535.000000
1008368.000000
1009171.000000
1010002.000000
1010861.000000
1011710.000000
1012520.000000
1013376.000000
1014247.000000
1015134.000000
1015974.000000
1016825.000000
1017686.000000
1018554.000000
1019382.000000
1020216.000000
1021077.000000
1021982.000000
1022859.000000
1023728.000000
1024652.000000
1025605.000000
1026553.000000
1027416.000000
1028293.000000
1029175.000000
1030056.000000
1030871.000000
1031664.000000
1032517.000000
1033341.000000
1034132.000000
1034908.000000
1035688.000000
1036532.000000
1037368.000000
1038153.000000
1038986.000000
1039820.000000
1040667.000000
1041456.000000
1042273.000000
1043108.000000
1043968.000000
1044848.000000
1045670.000000
1046512.000000
1047378.000000
1048251.000000
1049101.000000
1049898.000000
1050743.000000
1051598.000000
1052464.000000
1053287.000000
1054114.000000
1054971.000000
1055835.000000
1056654.000000
1057483.000000
1058337.000000
1059213.000000
1060086.000000
1060919.000000
1061788.000000
1062653.000000
1063506.000000
1064316.000000
1065173.000000
1066048.000000
1066941.000000
1067790.000000
1068649.000000
1069542.000000
1070446.000000
1071324.000000
1072172.000000
1073071.000000
1073970.000000
1074885.000000
1075728.000000
1076591.000000
1077508.000000
1078447.000000
1079356.000000
1080271.000000
1081243.000000
1082241.000000
1083214.000000
1084127.000000
1084980.000000
1085870.000000
1086806.000000
1087773.000000
1088662.000000
1089556.000000
1090509.000000
1091471.000000
1092339.000000
1093266.000000
1094215.000000
1095174.000000
1096044.000000
1096932.000000
1097860.000000
1098826.000000
1099792.000000
1100691.000000
1101635.000000
1102572.000000
1103447.000000
1104270.000000
1105158.000000
1106135.000000
1107144.000000
1108170.000000
1109117.000000
1110136.000000
1111173.000000
1112182.000000
1113108.000000
1113986.000000
1114899.000000
1115823.000000
1116666.000000
1117484.000000
1118396.000000
1119394.000000
1120283.000000
1121197.000000
1122169.000000
1123124.000000
1124005.000000
1124935.000000
1125870.000000
1126743.000000
1127578.000000
1128446.000000
1129343.000000
1130213.000000
1131030.000000
1131906.000000
1132809.000000
1133710.000000
1134549.000000
1135420.000000
1136306.000000
1137209.000000
1138040.000000
1138887.000000
1139766.000000
1140662.000000
1141514.000000
1142373.000000
1143280.000000
1144212.000000
1145106.000000
1145936.000000
1146801.000000
1147665.000000
1148540.000000
1149368.000000
1150187.000000
1151056.000000
1151952.000000
1152855.000000
1153698.000000
1154566.000000
1155451.000000
1156352.000000
1157187.000000
1158055.000000
1158957.000000
1159880.000000
1160759.000000
1161597.000000
1162490.000000
1163407.000000
1164315.000000
1165161.000000
1166044.000000
1166931.000000
1167809.000000
1168640.000000
1169462.000000
1170331.000000
1171237.000000
1172152.000000
1173008.000000
1173900.000000
1174815.000000
1175747.000000
1176621.000000
1177507.000000
1178407.000000
1179318.000000
1180212.000000
1181062.000000
1181971.000000
1182966.000000
1183998.000000
1185028.000000
1185972.000000
1186836.000000
1187726.000000
1188505.000000
1189257.000000
1189974.000000
1190689.000000
1191400.000000
1192127.000000
1192860.000000
1193661.000000
1194464.000000
