ECG (ms)
406.000000
1231.000000
2070.000000
2914.000000
3769.000000
4659.000000
5539.000000
6440.000000
7376.000000
8261.000000
9058.000000
9826.000000
10571.000000
11291.000000
12001.000000
12706.000000
13395.000000
14109.000000
15128.000000
16066.000000
16949.000000
17771.000000
18551.000000
19351.000000
20252.000000
21216.000000
22159.000000
23092.000000
24006.000000
24903.000000
25734.000000
26538.000000
27322.000000
28132.000000
29025.000000
29915.000000
30795.000000
31636.000000
32387.000000
33076.000000
33766.000000
34557.000000
35505.000000
36446.000000
37347.000000
38226.000000
39064.000000
39921.000000
40786.000000
41635.000000
42427.000000
43191.000000
43984.000000
44894.000000
45818.000000
46677.000000
47474.000000
48272.000000
49098.000000
49969.000000
50826.000000
51665.000000
52533.000000
53428.000000
54229.000000
54999.000000
55803.000000
56681.000000
57521.000000
58323.000000
59145.000000
60006.000000
60933.000000
61796.000000
62669.000000
63501.000000
64283.000000
65058.000000
65863.000000
66716.000000
67632.000000
68565.000000
69405.000000
70166.000000
70917.000000
71667.000000
72448.000000
73258.000000
74127.000000
75031.000000
75921.000000
76730.000000
77507.000000
78251.000000
78956.000000
79665.000000
80425.000000
81326.000000
82270.000000
83165.000000
84037.000000
84932.000000
85864.000000
86778.000000
87635.000000
88433.000000
89176.000000
89896.000000
90668.000000
91673.000000
92632.000000
93534.000000
94374.000000
95184.000000
96030.000000
96878.000000
97729.000000
98549.000000
99401.000000
100251.000000
101106.000000
101949.000000
102790.000000
103635.000000
104460.000000
105303.000000
106151.000000
106967.000000
107777.000000
108607.000000
109401.000000
110197.000000
111022.000000
111841.000000
112724.000000
113544.000000
114313.000000
115048.000000
115786.000000
116539.000000
117456.000000
118427.000000
119277.000000
120039.000000
120802.000000
121573.000000
122362.000000
123213.000000
124163.000000
125032.000000
125899.000000
126760.000000
127553.000000
128390.000000
129197.000000
130005.000000
130890.000000
131780.000000
132630.000000
133514.000000
134369.000000
135175.000000
135989.000000
136819.000000
137609.000000
138351.000000
139089.000000
139993.000000
140994.000000
141913.000000
142779.000000
143612.000000
144415.000000
145190.000000
145992.000000
146878.000000
147738.000000
148580.000000
149432.000000
150318.000000
151186.000000
152000.000000
152812.000000
153612.000000
154389.000000
155178.000000
156019.000000
156853.000000
157707.000000
158563.000000
159394.000000
160241.000000
161035.000000
161802.000000
162669.000000
163610.000000
164552.000000
165507.000000
166377.000000
167238.000000
168081.000000
168876.000000
169690.000000
170513.000000
171310.000000
172090.000000
172984.000000
174008.000000
174895.000000
175759.000000
176632.000000
177472.000000
178288.000000
179155.000000
180110.000000
181005.000000
181931.000000
182857.000000
183757.000000
184656.000000
185502.000000
186312.000000
187155.000000
188011.000000
188836.000000
189742.000000
190700.000000
191629.000000
192548.000000
193448.000000
194322.000000
195227.000000
196131.000000
197016.000000
197946.000000
198855.000000
199702.000000
200565.000000
201446.000000
202297.000000
203221.000000
204120.000000
204964.000000
205734.000000
206511.000000
207425.000000
208412.000000
209278.000000
210127.000000
210941.000000
211715.000000
212500.000000
213360.000000
214226.000000
215118.000000
215967.000000
216769.000000
217568.000000
218339.000000
219132.000000
220082.000000
221057.000000
221942.000000
222815.000000
223653.000000
224448.000000
225253.000000
226036.000000
226803.000000
227598.000000
228439.000000
229277.000000
230192.000000
231110.000000
231949.000000
232781.000000
233563.000000
234351.000000
235169.000000
236095.000000
237002.000000
237832.000000
238623.000000
239392.000000
240147.000000
240989.000000
241875.000000
242745.000000
243656.000000
244490.000000
245288.000000
246170.000000
247066.000000
247906.000000
248834.000000
249821.000000
250774.000000
251744.000000
252657.000000
253511.000000
254363.000000
255186.000000
256002.000000
256901.000000
257785.000000
258671.000000
259598.000000
260494.000000
261391.000000
262275.000000
263122.000000
264036.000000
264891.000000
265684.000000
266413.000000
267158.000000
268198.000000
269196.000000
270070.000000
270891.000000
271713.000000
272502.000000
273286.000000
274140.000000
275003.000000
275957.000000
276861.000000
277692.000000
278501.000000
279272.000000
280034.000000
280892.000000
281787.000000
282659.000000
283563.000000
284438.000000
285297.000000
286214.000000
287100.000000
287948.000000
288824.000000
289661.000000
290485.000000
291311.000000
292108.000000
292933.000000
293831.000000
294662.000000
295455.000000
296277.000000
297099.000000
297913.000000
298712.000000
299554.000000
300362.000000
301214.000000
302071.000000
302894.000000
303741.000000
304553.000000
305348.000000
306169.000000
307126.000000
308015.000000
308918.000000
309814.000000
310706.000000
311647.000000
312528.000000
313421.000000
314274.000000
315076.000000
315911.000000
316763.000000
317614.000000
318523.000000
319418.000000
320289.000000
321189.000000
322086.000000
323061.000000
324000.000000
324841.000000
325758.000000
326733.000000
327650.000000
328487.000000
329318.000000
330179.000000
331020.000000
331943.000000
332872.000000
333790.000000
334739.000000
335647.000000
336573.000000
337470.000000
338399.000000
339365.000000
340269.000000
341128.000000
341961.000000
342705.000000
343414.000000
344154.000000
344950.000000
345730.000000
346686.000000
347640.000000
348529.000000
349377.000000
350264.000000
351152.000000
351999.000000
352875.000000
353759.000000
354597.000000
355461.000000
356335.000000
357182.000000
358064.000000
358953.000000
359797.000000
360646.000000
361506.000000
362344.000000
363233.000000
364104.000000
364942.000000
365808.000000
366697.000000
367567.000000
368488.000000
369393.000000
370201.000000
370956.000000
371731.000000
372569.000000
373504.000000
374549.000000
375509.000000
376366.000000
377199.000000
378213.000000
379232.000000
380166.000000
381038.000000
381919.000000
382752.000000
383541.000000
384368.000000
385297.000000
386274.000000
387274.000000
388224.000000
389125.000000
389975.000000
390773.000000
391581.000000
392415.000000
393198.000000
393999.000000
395010.000000
395984.000000
396934.000000
397902.000000
398821.000000
399695.000000
400607.000000
401519.000000
402437.000000
403352.000000
404183.000000
404971.000000
405756.000000
406539.000000
407399.000000
408375.000000
409308.000000
410259.000000
411143.000000
412016.000000
412822.000000
413609.000000
414367.000000
415116.000000
415956.000000
416825.000000
417754.000000
418697.000000
419566.000000
420452.000000
421286.000000
422125.000000
422947.000000
423783.000000
424679.000000
425571.000000
426490.000000
427407.000000
428283.000000
429167.000000
429978.000000
430715.000000
431480.000000
432551.000000
433530.000000
434454.000000
435364.000000
436202.000000
436995.000000
437777.000000
438582.000000
439603.000000
440601.000000
441594.000000
442588.000000
443515.000000
444417.000000
445249.000000
446030.000000
446799.000000
447558.000000
448337.000000
449086.000000
450035.000000
451087.000000
452061.000000
452983.000000
453895.000000
454761.000000
455636.000000
456493.000000
457300.000000
458127.000000
459024.000000
459961.000000
460918.000000
461785.000000
462587.000000
463395.000000
464201.000000
465031.000000
466006.000000
466955.000000
467812.000000
468692.000000
469591.000000
470391.000000
471205.000000
472099.000000
472995.000000
473887.000000
474826.000000
475730.000000
476653.000000
477594.000000
478469.000000
479360.000000
480223.000000
481054.000000
481944.000000
482850.000000
483779.000000
484744.000000
485629.000000
486452.000000
487238.000000
487999.000000
488788.000000
489744.000000
490646.000000
491456.000000
492254.000000
493110.000000
493988.000000
494840.000000
495716.000000
496601.000000
497471.000000
498353.000000
499241.000000
500088.000000
500871.000000
501666.000000
502543.000000
503433.000000
504313.000000
505246.000000
506140.000000
507028.000000
507942.000000
508844.000000
509708.000000
510577.000000
511442.000000
512248.000000
513045.000000
513831.000000
514629.000000
515601.000000
516497.000000
517334.000000
518120.000000
518870.000000
519661.000000
520484.000000
521386.000000
522360.000000
523288.000000
524237.000000
525147.000000
525986.000000
526808.000000
527636.000000
528449.000000
529305.000000
530222.000000
531142.000000
532063.000000
532960.000000
533835.000000
534697.000000
535536.000000
536399.000000
537270.000000
538135.000000
539043.000000
539958.000000
540792.000000
541638.000000
542444.000000
543243.000000
544073.000000
544924.000000
545724.000000
546536.000000
547464.000000
548387.000000
549358.000000
550228.000000
551049.000000
551888.000000
552732.000000
553571.000000
554535.000000
555538.000000
556502.000000
557400.000000
558207.000000
559004.000000
559825.000000
560622.000000
561555.000000
562502.000000
563340.000000
564142.000000
564936.000000
565761.000000
566654.000000
567538.000000
568366.000000
569120.000000
569843.000000
570641.000000
571672.000000
572629.000000
573492.000000
574280.000000
575041.000000
575785.000000
576553.000000
577449.000000
578313.000000
579262.000000
580200.000000
581125.000000
582028.000000
582899.000000
583743.000000
584576.000000
585407.000000
586274.000000
587103.000000
587932.000000
588796.000000
589666.000000
590525.000000
591383.000000
592217.000000
592998.000000
593770.000000
594589.000000
595417.000000
596222.000000
597169.000000
598117.000000
598983.000000
599811.000000
600599.000000
601338.000000
602090.000000
602840.000000
603582.000000
604370.000000
605225.000000
606064.000000
606912.000000
607725.000000
608524.000000
609357.000000
610212.000000
611104.000000
612043.000000
612942.000000
613751.000000
614529.000000
615324.000000
616146.000000
616960.000000
617753.000000
618638.000000
619562.000000
620395.000000
621186.000000
621918.000000
622619.000000
623364.000000
624178.000000
625037.000000
625936.000000
626813.000000
627703.000000
628576.000000
629393.000000
630181.000000
630938.000000
631659.000000
632402.000000
633243.000000
634149.000000
635163.000000
636102.000000
636966.000000
637732.000000
638484.000000
639282.000000
640157.000000
640991.000000
641829.000000
642667.000000
643472.000000
644275.000000
645051.000000
645800.000000
646624.000000
647557.000000
648459.000000
649384.000000
650292.000000
651153.000000
652061.000000
653010.000000
653926.000000
654878.000000
655776.000000
656656.000000
657537.000000
658372.000000
659222.000000
660076.000000
660878.000000
661617.000000
662361.000000
663150.000000
664087.000000
664977.000000
665877.000000
666739.000000
667537.000000
668331.000000
669088.000000
669820.000000
670558.000000
671348.000000
672234.000000
673150.000000
674053.000000
674901.000000
675712.000000
676542.000000
677363.000000
678179.000000
679027.000000
679853.000000
680646.000000
681446.000000
682272.000000
683077.000000
683889.000000
684846.000000
685783.000000
686705.000000
687557.000000
688363.000000
689184.000000
689993.000000
690849.000000
691782.000000
692724.000000
693633.000000
694477.000000
695325.000000
696207.000000
697077.000000
697905.000000
698767.000000
699646.000000
700471.000000
701310.000000
702133.000000
702937.000000
703769.000000
704618.000000
705421.000000
706262.000000
707128.000000
708004.000000
708888.000000
709757.000000
710599.000000
711394.000000
712137.000000
712857.000000
713612.000000
714497.000000
715491.000000
716471.000000
717379.000000
718265.000000
719179.000000
720033.000000
720928.000000
721839.000000
722706.000000
723542.000000
724323.000000
725111.000000
725908.000000
726717.000000
727731.000000
728700.000000
729636.000000
730585.000000
731464.000000
732319.000000
733102.000000
733900.000000
734763.000000
735758.000000
736799.000000
737772.000000
738632.000000
739500.000000
740360.000000
741216.000000
742170.000000
743081.000000
743951.000000
744810.000000
745687.000000
746582.000000
747430.000000
748319.000000
749252.000000
750151.000000
751117.000000
752097.000000
753028.000000
753891.000000
754751.000000
755746.000000
756689.000000
757539.000000
758422.000000
759399.000000
760312.000000
761142.000000
761964.000000
762878.000000
763838.000000
764775.000000
765725.000000
766638.000000
767502.000000
768388.000000
769275.000000
770112.000000
770938.000000
771777.000000
772587.000000
773410.000000
774315.000000
775251.000000
776184.000000
777118.000000
777981.000000
778816.000000
779635.000000
780434.000000
781171.000000
781897.000000
782973.000000
783977.000000
784891.000000
785733.000000
786592.000000
787439.000000
788239.000000
789033.000000
789838.000000
790647.000000
791499.000000
792473.000000
793389.000000
794310.000000
795202.000000
796031.000000
796828.000000
797599.000000
798359.000000
799137.000000
799918.000000
800695.000000
801571.000000
802458.000000
803292.000000
804119.000000
804924.000000
805722.000000
806525.000000
807432.000000
808286.000000
809062.000000
809797.000000
810598.000000
811473.000000
812373.000000
813265.000000
814192.000000
815044.000000
815857.000000
816670.000000
817500.000000
818386.000000
819301.000000
820214.000000
821112.000000
821940.000000
822732.000000
823561.000000
824483.000000
825315.000000
826074.000000
826869.000000
827756.000000
828694.000000
829672.000000
830606.000000
831468.000000
832307.000000
833069.000000
833790.000000
834492.000000
835195.000000
835959.000000
836756.000000
837664.000000
838696.000000
839670.000000
840594.000000
841492.000000
842356.000000
843189.000000
844021.000000
844936.000000
845890.000000
846795.000000
847695.000000
848617.000000
849556.000000
850436.000000
851250.000000
852081.000000
853016.000000
853976.000000
854884.000000
855757.000000
856557.000000
857325.000000
858068.000000
858820.000000
859636.000000
860528.000000
861432.000000
862262.000000
863062.000000
863856.000000
864679.000000
865485.000000
866251.000000
867006.000000
867823.000000
868720.000000
869593.000000
870416.000000
871239.000000
872040.000000
872807.000000
873581.000000
874420.000000
875289.000000
876105.000000
876855.000000
877598.000000
878336.000000
879105.000000
879879.000000
880672.000000
881528.000000
882406.000000
883234.000000
884069.000000
884939.000000
885764.000000
886615.000000
887445.000000
888246.000000
889055.000000
889913.000000
890811.000000
891699.000000
892610.000000
893425.000000
894168.000000
894902.000000
895651.000000
896425.000000
897195.000000
898034.000000
899004.000000
899901.000000
900713.000000
901495.000000
902266.000000
903018.000000
903779.000000
904564.000000
905367.000000
906222.000000
907129.000000
907992.000000
908852.000000
909658.000000
910403.000000
911147.000000
911902.000000
912675.000000
913474.000000
914451.000000
915334.000000
916113.000000
916830.000000
917573.000000
918484.000000
919453.000000
920339.000000
921191.000000
922013.000000
922823.000000
923601.000000
924392.000000
925256.000000
926110.000000
926922.000000
927710.000000
928471.000000
929243.000000
930044.000000
930887.000000
931715.000000
932480.000000
933252.000000
934039.000000
934846.000000
935622.000000
936369.000000
937146.000000
937929.000000
938725.000000
939560.000000
940478.000000
941368.000000
942254.000000
943047.000000
943824.000000
944639.000000
945544.000000
946424.000000
947311.000000
948141.000000
948928.000000
949735.000000
950566.000000
951400.000000
952236.000000
953099.000000
953907.000000
954710.000000
955494.000000
956275.000000
957096.000000
957960.000000
958785.000000
959637.000000
960560.000000
961430.000000
962237.000000
963019.000000
963833.000000
964704.000000
965563.000000
966397.000000
967190.000000
967916.000000
968623.000000
969328.000000
970046.000000
970821.000000
971581.000000
972307.000000
973131.000000
973933.000000
974713.000000
975503.000000
976346.000000
977201.000000
978041.000000
978891.000000
979784.000000
980658.000000
981441.000000
982192.000000
982943.000000
983741.000000
984598.000000
985445.000000
986237.000000
987068.000000
987927.000000
988760.000000
989614.000000
990465.000000
991245.000000
992067.000000
992873.000000
993661.000000
994451.000000
995304.000000
996192.000000
997061.000000
997994.000000
998899.000000
999746.000000
1000590.000000
1001400.000000
1002158.000000
1002927.000000
1003719.000000
1004504.000000
1005264.000000
1005988.000000
1006750.000000
1007676.000000
1008579.000000
1009435.000000
1010236.000000
1011014.000000
1011771.000000
1012575.000000
1013430.000000
1014279.000000
1015043.000000
1015829.000000
1016715.000000
1017605.000000
1018461.000000
1019312.000000
1020133.000000
1020906.000000
1021692.000000
1022504.000000
1023312.000000
1024111.000000
1024923.000000
1025744.000000
1026597.000000
1027435.000000
1028200.000000
1028964.000000
1029749.000000
1030534.000000
1031359.000000
1032144.000000
1032901.000000
1033689.000000
1034507.000000
1035346.000000
1036224.000000
1037100.000000
1037922.000000
1038758.000000
1039570.000000
1040333.000000
1041063.000000
1041840.000000
1042757.000000
1043653.000000
1044581.000000
1045519.000000
1046403.000000
1047272.000000
1048080.000000
1048829.000000
1049562.000000
1050331.000000
1051157.000000
1052024.000000
1053000.000000
1053978.000000
1054907.000000
1055818.000000
1056749.000000
1057638.000000
1058449.000000
1059226.000000
1060010.000000
1060828.000000
1061661.000000
1062616.000000
1063577.000000
1064495.000000
1065412.000000
1066308.000000
1067201.000000
1068076.000000
1068911.000000
1069704.000000
1070493.000000
1071317.000000
1072095.000000
1072943.000000
1073989.000000
1074940.000000
1075812.000000
1076672.000000
1077509.000000
1078253.000000
1078967.000000
1079714.000000
1080614.000000
1081504.000000
1082396.000000
1083301.000000
1084209.000000
1085160.000000
1086098.000000
1086931.000000
1087751.000000
1088584.000000
1089415.000000
1090201.000000
1091080.000000
1092053.000000
1092948.000000
1093829.000000
1094720.000000
1095609.000000
1096459.000000
1097349.000000
1098246.000000
1099098.000000
1099954.000000
1100796.000000
1101640.000000
1102484.000000
1103287.000000
1104079.000000
1104915.000000
1105784.000000
1106661.000000
1107620.000000
1108568.000000
1109427.000000
1110277.000000
1111074.000000
1111867.000000
1112743.000000
1113688.000000
1114587.000000
1115398.000000
1116185.000000
1117098.000000
1118058.000000
1118963.000000
1119790.000000
1120622.000000
1121487.000000
1122358.000000
1123274.000000
1124208.000000
1125098.000000
1126000.000000
1126946.000000
1127823.000000
1128687.000000
1129577.000000
1130435.000000
1131331.000000
1132302.000000
1133177.000000
1134057.000000
1134893.000000
1135708.000000
1136486.000000
1137234.000000
1138003.000000
1139034.000000
1140131.000000
1141150.000000
1142115.000000
1143000.000000
1143858.000000
1144701.000000
1145538.000000
1146415.000000
1147350.000000
1148232.000000
1149120.000000
1149993.000000
1150831.000000
1151696.000000
1152622.000000
1153547.000000
1154488.000000
1155415.000000
1156300.000000
1157201.000000
1158048.000000
1158841.000000
1159616.000000
1160417.000000
1161256.000000
1162072.000000
1163049.000000
1163971.000000
1164835.000000
1165693.000000
1166475.000000
1167201.000000
1167944.000000
1168754.000000
1169659.000000
1170526.000000
1171398.000000
1172308.000000
1173153.000000
1174000.000000
1174843.000000
1175645.000000
1176417.000000
1177174.000000
1177906.000000
1178648.000000
1179447.000000
1180297.000000
1181182.000000
1182085.000000
1182953.000000
1183854.000000
1184725.000000
1185559.000000
1186401.000000
1187220.000000
1187999.000000
1188801.000000
1189612.000000
1190384.000000
1191162.000000
1191961.000000
1192821.000000
1193709.000000
1194668.000000
