ECG (ms)
844.000000
1655.000000
2484.000000
3289.000000
4027.000000
4801.000000
5589.000000
6346.000000
7120.000000
7962.000000
8736.000000
9501.000000
10265.000000
11019.000000
11745.000000
12556.000000
13414.000000
14261.000000
15093.000000
15885.000000
16614.000000
17340.000000
18122.000000
18902.000000
19653.000000
20406.000000
21180.000000
21925.000000
22668.000000
23448.000000
24240.000000
24978.000000
25715.000000
26461.000000
27175.000000
27874.000000
28618.000000
29380.000000
30100.000000
30849.000000
31667.000000
32440.000000
33154.000000
33867.000000
34595.000000
35306.000000
36007.000000
36720.000000
37476.000000
38226.000000
38981.000000
39729.000000
40493.000000
41198.000000
41934.000000
42682.000000
43422.000000
44159.000000
44920.000000
45685.000000
46392.000000
47107.000000
47823.000000
48534.000000
49242.000000
49996.000000
50759.000000
51492.000000
52196.000000
52934.000000
53649.000000
54330.000000
55021.000000
55744.000000
56488.000000
57224.000000
57973.000000
58752.000000
59498.000000
60244.000000
60991.000000
61757.000000
62465.000000
63206.000000
64014.000000
64788.000000
65543.000000
66321.000000
67047.000000
67737.000000
68417.000000
69168.000000
69944.000000
70709.000000
71459.000000
72228.000000
73041.000000
73812.000000
74571.000000
75333.000000
76118.000000
76865.000000
77623.000000
78436.000000
79215.000000
79988.000000
80804.000000
81653.000000
82446.000000
83269.000000
84106.000000
84883.000000
85639.000000
86427.000000
87256.000000
88010.000000
88789.000000
89606.000000
90400.000000
91187.000000
91987.000000
92806.000000
93543.000000
94249.000000
94974.000000
95671.000000
96411.000000
97202.000000
98009.000000
98760.000000
99550.000000
100319.000000
101038.000000
101754.000000
102475.000000
103234.000000
103963.000000
104734.000000
105538.000000
106295.000000
107055.000000
107829.000000
108579.000000
109299.000000
110053.000000
110856.000000
111604.000000
112339.000000
113139.000000
113936.000000
114681.000000
115454.000000
116290.000000
117034.000000
117756.000000
118558.000000
119341.000000
120079.000000
120868.000000
121676.000000
122444.000000
123216.000000
124026.000000
124849.000000
125635.000000
126456.000000
127307.000000
128085.000000
128873.000000
129676.000000
130447.000000
131175.000000
131870.000000
132504.000000
133117.000000
133907.000000
134756.000000
135515.000000
136317.000000
137161.000000
137975.000000
138819.000000
139687.000000
140541.000000
141376.000000
142186.000000
142954.000000
143744.000000
144627.000000
145454.000000
146346.000000
147261.000000
148104.000000
148915.000000
149702.000000
150477.000000
151267.000000
152114.000000
152917.000000
153744.000000
154581.000000
155350.000000
156149.000000
156973.000000
157738.000000
158526.000000
159333.000000
160086.000000
160895.000000
161739.000000
162526.000000
163315.000000
164115.000000
164863.000000
165612.000000
166369.000000
167116.000000
167865.000000
168661.000000
169447.000000
170221.000000
171039.000000
171843.000000
172570.000000
173301.000000
174057.000000
174778.000000
175498.000000
176270.000000
177068.000000
177793.000000
178529.000000
179315.000000
180096.000000
180816.000000
181553.000000
182317.000000
183053.000000
183732.000000
184401.000000
185142.000000
185916.000000
186651.000000
187377.000000
188135.000000
188906.000000
189631.000000
190317.000000
191014.000000
191706.000000
192381.000000
193042.000000
193726.000000
194437.000000
195158.000000
195844.000000
196513.000000
197215.000000
197947.000000
198642.000000
199321.000000
199981.000000
200666.000000
201332.000000
201984.000000
202672.000000
203394.000000
204093.000000
204807.000000
205555.000000
206368.000000
207127.000000
207858.000000
208619.000000
209391.000000
210102.000000
210800.000000
211509.000000
212253.000000
212974.000000
213675.000000
214448.000000
215243.000000
216002.000000
216684.000000
217309.000000
217909.000000
218558.000000
219235.000000
219889.000000
220587.000000
221322.000000
222022.000000
222737.000000
223515.000000
224231.000000
224914.000000
225597.000000
226352.000000
227080.000000
227798.000000
228539.000000
229330.000000
230085.000000
230837.000000
231592.000000
232356.000000
233065.000000
233795.000000
234577.000000
235331.000000
236055.000000
236779.000000
237512.000000
238200.000000
238891.000000
239600.000000
240323.000000
241025.000000
241703.000000
242426.000000
243174.000000
243887.000000
244585.000000
245301.000000
246010.000000
246688.000000
247396.000000
248134.000000
248894.000000
249628.000000
250364.000000
251171.000000
251974.000000
252711.000000
253425.000000
254145.000000
254855.000000
255539.000000
256236.000000
257000.000000
257751.000000
258473.000000
259223.000000
260016.000000
260786.000000
261552.000000
262376.000000
263229.000000
264035.000000
264824.000000
265609.000000
266385.000000
267115.000000
267858.000000
268583.000000
269285.000000
270015.000000
270787.000000
271538.000000
272341.000000
273155.000000
273913.000000
274674.000000
275438.000000
276197.000000
276897.000000
277615.000000
278341.000000
279072.000000
279799.000000
280547.000000
281316.000000
282086.000000
282865.000000
283676.000000
284453.000000
285185.000000
285918.000000
286659.000000
287413.000000
288129.000000
288838.000000
289576.000000
290308.000000
291024.000000
291747.000000
292510.000000
293240.000000
293963.000000
294702.000000
295431.000000
296146.000000
296874.000000
297611.000000
298360.000000
299092.000000
299824.000000
300593.000000
301391.000000
302160.000000
302936.000000
303705.000000
304431.000000
305149.000000
305888.000000
306679.000000
307464.000000
308262.000000
309087.000000
309893.000000
310652.000000
311459.000000
312285.000000
313096.000000
313869.000000
314668.000000
315492.000000
316318.000000
317119.000000
317954.000000
318873.000000
319738.000000
320591.000000
321469.000000
322251.000000
323042.000000
323917.000000
324829.000000
325627.000000
326402.000000
327285.000000
328120.000000
328896.000000
329678.000000
330519.000000
331296.000000
332107.000000
332930.000000
333719.000000
334454.000000
335243.000000
336024.000000
336765.000000
337479.000000
338209.000000
339041.000000
339835.000000
340607.000000
341406.000000
342168.000000
342961.000000
343790.000000
344559.000000
345336.000000
346152.000000
346976.000000
347728.000000
348504.000000
349309.000000
350114.000000
350860.000000
351633.000000
352424.000000
353236.000000
354008.000000
354731.000000
355392.000000
356014.000000
356749.000000
357478.000000
358174.000000
358917.000000
359741.000000
360466.000000
361205.000000
361965.000000
362729.000000
363452.000000
364229.000000
365086.000000
365918.000000
366739.000000
367612.000000
368485.000000
369240.000000
369999.000000
370817.000000
371682.000000
372480.000000
373351.000000
374276.000000
375139.000000
376018.000000
376880.000000
377638.000000
378411.000000
379278.000000
380180.000000
381005.000000
381881.000000
382791.000000
383609.000000
384444.000000
385271.000000
386063.000000
386873.000000
387763.000000
388638.000000
389413.000000
390198.000000
391024.000000
391916.000000
392706.000000
393512.000000
394402.000000
395241.000000
395994.000000
396757.000000
397542.000000
398328.000000
399069.000000
399853.000000
400676.000000
401523.000000
402322.000000
403124.000000
403967.000000
404747.000000
405536.000000
406335.000000
407088.000000
407852.000000
408649.000000
409441.000000
410179.000000
410932.000000
411703.000000
412451.000000
413148.000000
413850.000000
414602.000000
415387.000000
416138.000000
416928.000000
417786.000000
418566.000000
419349.000000
420088.000000
420794.000000
421487.000000
422202.000000
423010.000000
423885.000000
424704.000000
425515.000000
426320.000000
427104.000000
427907.000000
428666.000000
429347.000000
430018.000000
430714.000000
431559.000000
432294.000000
432978.000000
433655.000000
434321.000000
434950.000000
435544.000000
436208.000000
436893.000000
437544.000000
438305.000000
439164.000000
439949.000000
440682.000000
441446.000000
442208.000000
442986.000000
443732.000000
444562.000000
445417.000000
446194.000000
446993.000000
447834.000000
448653.000000
449419.000000
450235.000000
451117.000000
451930.000000
452718.000000
453583.000000
454451.000000
455216.000000
456004.000000
456869.000000
457726.000000
458506.000000
459327.000000
460207.000000
461007.000000
461832.000000
462707.000000
463556.000000
464316.000000
465118.000000
465953.000000
466738.000000
467599.000000
468506.000000
469386.000000
470340.000000
471300.000000
472130.000000
472977.000000
473830.000000
474586.000000
475363.000000
476279.000000
477107.000000
477948.000000
478838.000000
479680.000000
480594.000000
481462.000000
482281.000000
483105.000000
483970.000000
484787.000000
485551.000000
486330.000000
487025.000000
487671.000000
488614.000000
489585.000000
490460.000000
491289.000000
492166.000000
493068.000000
493863.000000
494658.000000
495478.000000
496285.000000
497177.000000
498154.000000
499075.000000
499985.000000
500908.000000
501827.000000
502680.000000
503584.000000
504501.000000
505308.000000
506167.000000
507070.000000
507863.000000
508622.000000
509431.000000
510334.000000
511207.000000
512126.000000
513066.000000
513978.000000
514916.000000
515861.000000
516700.000000
517554.000000
518468.000000
519354.000000
520169.000000
521103.000000
522029.000000
522896.000000
523800.000000
524762.000000
525673.000000
526648.000000
527609.000000
528524.000000
529521.000000
530514.000000
531417.000000
532373.000000
533353.000000
534264.000000
535208.000000
536201.000000
537103.000000
537983.000000
538884.000000
539697.000000
540541.000000
541481.000000
542363.000000
543255.000000
544142.000000
544991.000000
545857.000000
546807.000000
547748.000000
548618.000000
549523.000000
550444.000000
551296.000000
552242.000000
553203.000000
554069.000000
554968.000000
555850.000000
556637.000000
557567.000000
558495.000000
559361.000000
560310.000000
561256.000000
562045.000000
562812.000000
563510.000000
564154.000000
565039.000000
565883.000000
566750.000000
567654.000000
568560.000000
569420.000000
570340.000000
571264.000000
572102.000000
572948.000000
573831.000000
574646.000000
575508.000000
576425.000000
577280.000000
578157.000000
579152.000000
580115.000000
581015.000000
581952.000000
582892.000000
583741.000000
584613.000000
585480.000000
586269.000000
587075.000000
587922.000000
588712.000000
589545.000000
590416.000000
591267.000000
592093.000000
592966.000000
593849.000000
594661.000000
595531.000000
596436.000000
597285.000000
598153.000000
599029.000000
599828.000000
600626.000000
601493.000000
602326.000000
603123.000000
603978.000000
604788.000000
605561.000000
606368.000000
607222.000000
608017.000000
608805.000000
609690.000000
610501.000000
611332.000000
612198.000000
613046.000000
613832.000000
614680.000000
615555.000000
616325.000000
617109.000000
617892.000000
618653.000000
619446.000000
620306.000000
621133.000000
622030.000000
622927.000000
623796.000000
624625.000000
625506.000000
626411.000000
627228.000000
628069.000000
628973.000000
629827.000000
630632.000000
631496.000000
632343.000000
633109.000000
633888.000000
634715.000000
635482.000000
636261.000000
637077.000000
637841.000000
638582.000000
639354.000000
640190.000000
640999.000000
641814.000000
642650.000000
643428.000000
644174.000000
644950.000000
645763.000000
646524.000000
647272.000000
648145.000000
649007.000000
649772.000000
650553.000000
651351.000000
652116.000000
652891.000000
653721.000000
654536.000000
655330.000000
656165.000000
657017.000000
657780.000000
658536.000000
659330.000000
660129.000000
660883.000000
661667.000000
662520.000000
663331.000000
664209.000000
665120.000000
665963.000000
666819.000000
667718.000000
668524.000000
669339.000000
670191.000000
670989.000000
671795.000000
672643.000000
673435.000000
674227.000000
675035.000000
675805.000000
676626.000000
677486.000000
678277.000000
679051.000000
679882.000000
680757.000000
681551.000000
682415.000000
683319.000000
684138.000000
684952.000000
685845.000000
686736.000000
687555.000000
688415.000000
689246.000000
690021.000000
690832.000000
691739.000000
692599.000000
693440.000000
694290.000000
695095.000000
695878.000000
696714.000000
697615.000000
698420.000000
699207.000000
700087.000000
700983.000000
701819.000000
702668.000000
703581.000000
704414.000000
705278.000000
706154.000000
706970.000000
707850.000000
708760.000000
709584.000000
710435.000000
711329.000000
712152.000000
713061.000000
713969.000000
714750.000000
715537.000000
716433.000000
717270.000000
718038.000000
718888.000000
719828.000000
720672.000000
721522.000000
722449.000000
723318.000000
724156.000000
725055.000000
725947.000000
726795.000000
727696.000000
728588.000000
729402.000000
730258.000000
731135.000000
731945.000000
732783.000000
733683.000000
734492.000000
735351.000000
736241.000000
737092.000000
737948.000000
738875.000000
739750.000000
740611.000000
741488.000000
742329.000000
743117.000000
743994.000000
744927.000000
745767.000000
746606.000000
747528.000000
748347.000000
749177.000000
750080.000000
750934.000000
751847.000000
752766.000000
753616.000000
754527.000000
755436.000000
756295.000000
757192.000000
758106.000000
758952.000000
759852.000000
760753.000000
761594.000000
762489.000000
763362.000000
764183.000000
765053.000000
765951.000000
766873.000000
767805.000000
768740.000000
769618.000000
770565.000000
771540.000000
772398.000000
773201.000000
773956.000000
774634.000000
775273.000000
776029.000000
776935.000000
777879.000000
778697.000000
779569.000000
780483.000000
781340.000000
782217.000000
783138.000000
783972.000000
784792.000000
785700.000000
786561.000000
787358.000000
788224.000000
789149.000000
790001.000000
790893.000000
791835.000000
792682.000000
793538.000000
794448.000000
795313.000000
796189.000000
797110.000000
797939.000000
798734.000000
799581.000000
800389.000000
801155.000000
802016.000000
802914.000000
803733.000000
804556.000000
805412.000000
806250.000000
807060.000000
807930.000000
808802.000000
809578.000000
810374.000000
811247.000000
812019.000000
812796.000000
813656.000000
814463.000000
815343.000000
816283.000000
817139.000000
818016.000000
818902.000000
819711.000000
820516.000000
821347.000000
822141.000000
822935.000000
823829.000000
824737.000000
825571.000000
826440.000000
827316.000000
828108.000000
828936.000000
829820.000000
830639.000000
831494.000000
832365.000000
833222.000000
834017.000000
834841.000000
835713.000000
836513.000000
837342.000000
838214.000000
839029.000000
839836.000000
840687.000000
841535.000000
842314.000000
843127.000000
843990.000000
844782.000000
845601.000000
846447.000000
847248.000000
848052.000000
848905.000000
849720.000000
850462.000000
851168.000000
851941.000000
852810.000000
853614.000000
854438.000000
855304.000000
856130.000000
856977.000000
857876.000000
858745.000000
859542.000000
860375.000000
861268.000000
862091.000000
862936.000000
863843.000000
864670.000000
865506.000000
866388.000000
867193.000000
867990.000000
868871.000000
869664.000000
870477.000000
871327.000000
872132.000000
872956.000000
873829.000000
874646.000000
875431.000000
876281.000000
877121.000000
877899.000000
878726.000000
879555.000000
880336.000000
881130.000000
881984.000000
882802.000000
883573.000000
884393.000000
885215.000000
886012.000000
886828.000000
887747.000000
888585.000000
889448.000000
890365.000000
891203.000000
892105.000000
893020.000000
893878.000000
894751.000000
895631.000000
896456.000000
897327.000000
898196.000000
898992.000000
899860.000000
900764.000000
901626.000000
902482.000000
903386.000000
904270.000000
905130.000000
906036.000000
906910.000000
907711.000000
908554.000000
909445.000000
910281.000000
911159.000000
912083.000000
912947.000000
913769.000000
914549.000000
915254.000000
915906.000000
916606.000000
917470.000000
918370.000000
919190.000000
920070.000000
920989.000000
921835.000000
922736.000000
923673.000000
924497.000000
925258.000000
926118.000000
927067.000000
927960.000000
928852.000000
929743.000000
930532.000000
931330.000000
932189.000000
933118.000000
933971.000000
934874.000000
935822.000000
936685.000000
937553.000000
938465.000000
939280.000000
940120.000000
940990.000000
941895.000000
942740.000000
943655.000000
944514.000000
945331.000000
946265.000000
947211.000000
948060.000000
948927.000000
949785.000000
950599.000000
951409.000000
952272.000000
953117.000000
953900.000000
954704.000000
955559.000000
956332.000000
957124.000000
957946.000000
958727.000000
959526.000000
960373.000000
961166.000000
961964.000000
962834.000000
963642.000000
964401.000000
965195.000000
965991.000000
966735.000000
967499.000000
968316.000000
969138.000000
969941.000000
970799.000000
971644.000000
972415.000000
973204.000000
974036.000000
974832.000000
975641.000000
976508.000000
977304.000000
978135.000000
979015.000000
979852.000000
980639.000000
981467.000000
982265.000000
983020.000000
983827.000000
984675.000000
985474.000000
986260.000000
987112.000000
987981.000000
988780.000000
989596.000000
990447.000000
991230.000000
992045.000000
992929.000000
993734.000000
994522.000000
995348.000000
996162.000000
996928.000000
997722.000000
998571.000000
999349.000000
1000084.000000
1000848.000000
1001640.000000
1002390.000000
1003146.000000
1003977.000000
1004813.000000
1005636.000000
1006467.000000
1007286.000000
1008063.000000
1008907.000000
1009767.000000
1010554.000000
1011394.000000
1012270.000000
1013081.000000
1013906.000000
1014783.000000
1015575.000000
1016275.000000
1016958.000000
1017752.000000
1018659.000000
1019523.000000
1020360.000000
1021167.000000
1021969.000000
1022795.000000
1023673.000000
1024531.000000
1025326.000000
1026152.000000
1026983.000000
1027752.000000
1028520.000000
1029339.000000
1030131.000000
1030888.000000
1031726.000000
1032563.000000
1033350.000000
1034229.000000
1035113.000000
1035922.000000
1036802.000000
1037715.000000
1038541.000000
1039429.000000
1040339.000000
1041133.000000
1041958.000000
1042817.000000
1043723.000000
1044560.000000
1045463.000000
1046379.000000
1047225.000000
1048080.000000
1048963.000000
1049758.000000
1050558.000000
1051423.000000
1052221.000000
1052997.000000
1053808.000000
1054669.000000
1055399.000000
1056127.000000
1056894.000000
1057585.000000
1058217.000000
1058857.000000
1059489.000000
1060251.000000
1061185.000000
1062074.000000
1062942.000000
1063762.000000
1064532.000000
1065382.000000
1066225.000000
1066999.000000
1067825.000000
1068723.000000
1069614.000000
1070448.000000
1071299.000000
1072163.000000
1073021.000000
1073832.000000
1074627.000000
1075427.000000
1076246.000000
1077108.000000
1077924.000000
1078806.000000
1079666.000000
1080488.000000
1081372.000000
1082162.000000
1082911.000000
1083712.000000
1084564.000000
1085358.000000
1086210.000000
1087093.000000
1087881.000000
1088782.000000
1089669.000000
1090493.000000
1091379.000000
1092268.000000
1093106.000000
1094001.000000
1094899.000000
1095693.000000
1096536.000000
1097500.000000
1098390.000000
1099220.000000
1100105.000000
1101027.000000
1101878.000000
1102773.000000
1103689.000000
1104505.000000
1105364.000000
1106258.000000
1107102.000000
1107958.000000
1108862.000000
1109742.000000
1110551.000000
1111393.000000
1112254.000000
1113040.000000
1113861.000000
1114708.000000
1115489.000000
1116313.000000
1117187.000000
1118015.000000
1118888.000000
1119814.000000
1120717.000000
1121546.000000
1122450.000000
1123346.000000
1124165.000000
1125005.000000
1125929.000000
1126866.000000
1127716.000000
1128625.000000
1129570.000000
1130437.000000
1131387.000000
1132278.000000
1133078.000000
1133885.000000
1134767.000000
1135601.000000
1136417.000000
1137279.000000
1138152.000000
1138986.000000
1139884.000000
1140815.000000
1141674.000000
1142498.000000
1143365.000000
1144209.000000
1145048.000000
1145966.000000
1146907.000000
1147768.000000
1148666.000000
1149594.000000
1150476.000000
1151336.000000
1152294.000000
1153222.000000
1154052.000000
1154913.000000
1155825.000000
1156658.000000
1157510.000000
1158391.000000
1159270.000000
1160106.000000
1161020.000000
1161928.000000
1162755.000000
1163681.000000
1164601.000000
1165469.000000
1166363.000000
1167275.000000
1168109.000000
1168960.000000
1169833.000000
1170636.000000
1171472.000000
1172342.000000
1173164.000000
1173979.000000
1174845.000000
1175677.000000
1176462.000000
1177345.000000
1178242.000000
1179043.000000
1179850.000000
1180670.000000
1181453.000000
1182238.000000
1183137.000000
1184050.000000
1184822.000000
1185601.000000
1186409.000000
1187163.000000
1187923.000000
1188744.000000
1189535.000000
1190305.000000
1191131.000000
1191976.000000
1192751.000000
1193528.000000
1194313.000000
1195069.000000
1195848.000000
1196611.000000
1197360.000000
1198092.000000
1198852.000000
1199679.000000
1200468.000000
1201261.000000
1202085.000000
1202853.000000
1203611.000000
1204387.000000
1205214.000000
1205982.000000
1206776.000000
1207575.000000
1208381.000000
1209155.000000
1209926.000000
1210716.000000
1211458.000000
1212230.000000
1213019.000000
1213793.000000
1214545.000000
1215361.000000
1216183.000000
1216947.000000
1217722.000000
1218543.000000
1219335.000000
1220089.000000
1220887.000000
1221706.000000
1222457.000000
1223213.000000
1223993.000000
1224771.000000
1225523.000000
1226322.000000
1227122.000000
1227866.000000
1228613.000000
1229400.000000
1230166.000000
1230895.000000
1231633.000000
1232408.000000
1233140.000000
1233841.000000
1234592.000000
1235355.000000
1236086.000000
1236808.000000
1237560.000000
1238326.000000
1239056.000000
1239811.000000
1240615.000000
1241414.000000
1242151.000000
1242925.000000
1243744.000000
1244553.000000
1245304.000000
1246079.000000
1246859.000000
1247608.000000
1248342.000000
1249175.000000
1250019.000000
1250770.000000
1251516.000000
1252310.000000
1253084.000000
1253834.000000
1254628.000000
1255463.000000
1256215.000000
1257012.000000
1257843.000000
1258616.000000
1259347.000000
1260131.000000
1260972.000000
1261711.000000
1262495.000000
1263315.000000
1264122.000000
1264886.000000
1265677.000000
1266493.000000
1267247.000000
1268002.000000
1268800.000000
1269582.000000
1270317.000000
1271082.000000
1271877.000000
1272635.000000
1273351.000000
1274111.000000
1274899.000000
1275651.000000
1276386.000000
1277147.000000
1277952.000000
1278679.000000
1279401.000000
1280163.000000
1280943.000000
1281680.000000
1282430.000000
1283227.000000
1284020.000000
1284771.000000
1285546.000000
1286346.000000
1287109.000000
1287897.000000
1288694.000000
1289461.000000
1290186.000000
1290983.000000
1291822.000000
1292583.000000
1293266.000000
1293905.000000
1294578.000000
1295318.000000
1296057.000000
1296857.000000
1297657.000000
1298451.000000
1299247.000000
1300096.000000
1300930.000000
1301666.000000
1302403.000000
1303148.000000
1303926.000000
1304693.000000
1305611.000000
1306526.000000
1307369.000000
1308283.000000
1309215.000000
1310079.000000
1310915.000000
1311818.000000
1312694.000000
1313500.000000
1314396.000000
1315289.000000
1316141.000000
1317016.000000
1317892.000000
1318710.000000
1319560.000000
1320407.000000
1321186.000000
1321966.000000
1322779.000000
1323632.000000
1324450.000000
1325316.000000
1326277.000000
1327171.000000
1328069.000000
1329027.000000
1329888.000000
1330786.000000
1331693.000000
1332513.000000
1333353.000000
1334259.000000
1335091.000000
1335943.000000
1336805.000000
1337604.000000
1338387.000000
1339277.000000
1340223.000000
1341107.000000
1342003.000000
1342931.000000
1343763.000000
1344575.000000
1345450.000000
1346356.000000
1347195.000000
1348044.000000
1348876.000000
1349661.000000
1350454.000000
1351288.000000
1352153.000000
1352946.000000
1353755.000000
1354629.000000
1355440.000000
1356214.000000
1357032.000000
1357877.000000
1358668.000000
1359477.000000
1360335.000000
1361167.000000
1361946.000000
1362752.000000
1363612.000000
1364421.000000
1365261.000000
1366147.000000
1366984.000000
1367777.000000
1368624.000000
1369523.000000
1370365.000000
1371241.000000
1372160.000000
1372977.000000
1373845.000000
1374719.000000
1375540.000000
1376354.000000
1377208.000000
1378041.000000
1378857.000000
1379754.000000
1380672.000000
1381507.000000
1382418.000000
1383352.000000
1384210.000000
1385069.000000
1385943.000000
1386750.000000
1387599.000000
1388495.000000
1389339.000000
1390154.000000
1391002.000000
1391909.000000
1392725.000000
1393608.000000
1394525.000000
1395337.000000
1396172.000000
1397008.000000
1397768.000000
1398562.000000
1399462.000000
1400364.000000
1401202.000000
1402091.000000
1402874.000000
1403575.000000
1404230.000000
1405017.000000
1405885.000000
1406728.000000
1407606.000000
1408396.000000
1409240.000000
1410095.000000
1410883.000000
1411711.000000
1412590.000000
1413407.000000
1414289.000000
1415201.000000
1416069.000000
1416983.000000
1417906.000000
1418729.000000
1419628.000000
1420552.000000
1421389.000000
1422288.000000
1423293.000000
1424224.000000
1425048.000000
1425920.000000
1426876.000000
1427770.000000
1428684.000000
1429586.000000
1430426.000000
1431322.000000
1432248.000000
1433102.000000
1434009.000000
1434955.000000
1435873.000000
1436732.000000
1437675.000000
1438676.000000
1439613.000000
1440628.000000
1441638.000000
1442563.000000
1443537.000000
1444534.000000
1445441.000000
1446422.000000
1447377.000000
1448307.000000
1449313.000000
1450300.000000
1451199.000000
1452167.000000
1453166.000000
1454098.000000
1455073.000000
1456062.000000
1456992.000000
1457974.000000
1458970.000000
1459883.000000
1460832.000000
1461781.000000
1462672.000000
1463633.000000
1464645.000000
1465572.000000
1466570.000000
1467541.000000
1468433.000000
1469398.000000
1470353.000000
1471236.000000
1472162.000000
1473134.000000
1474020.000000
1474969.000000
1475947.000000
1476849.000000
1477803.000000
1478755.000000
1479614.000000
1480540.000000
1481489.000000
1482358.000000
1483314.000000
1484242.000000
1485067.000000
1485919.000000
1486875.000000
1487727.000000
1488591.000000
1489534.000000
1490469.000000
1491356.000000
1492291.000000
1493232.000000
1494107.000000
1494922.000000
1495704.000000
1496459.000000
1497358.000000
1498375.000000
1499386.000000
1500278.000000
1501197.000000
1502144.000000
1502999.000000
1503959.000000
1504940.000000
1505794.000000
1506686.000000
1507597.000000
1508434.000000
1509191.000000
1510011.000000
1510990.000000
1511843.000000
1512740.000000
1513667.000000
1514507.000000
1515335.000000
1516232.000000
1517094.000000
1517931.000000
1518671.000000
1519342.000000
1519968.000000
1520638.000000
1521418.000000
1522268.000000
1523070.000000
1523908.000000
1524818.000000
1525620.000000
1526511.000000
1527504.000000
1528354.000000
1529254.000000
1530101.000000
1530853.000000
1531660.000000
1532556.000000
1533402.000000
1534330.000000
1535271.000000
1536093.000000
1536985.000000
1537924.000000
1538762.000000
1539655.000000
1540609.000000
1541503.000000
1542413.000000
1543266.000000
1544043.000000
1544860.000000
1545719.000000
1546528.000000
1547278.000000
1548127.000000
1549021.000000
1549847.000000
1550695.000000
1551628.000000
1552501.000000
1553392.000000
1554296.000000
1555126.000000
1555853.000000
1556536.000000
1557306.000000
1558339.000000
1559301.000000
1560244.000000
1561161.000000
1562079.000000
1562958.000000
1563793.000000
1564615.000000
1565444.000000
1566281.000000
1567162.000000
1568043.000000
1568977.000000
1569886.000000
1570710.000000
1571511.000000
1572339.000000
1573108.000000
1573827.000000
1574605.000000
1575437.000000
1576280.000000
1577137.000000
1577976.000000
1578816.000000
1579704.000000
1580599.000000
1581426.000000
1582250.000000
1583083.000000
1583849.000000
1584621.000000
1585440.000000
1586300.000000
1587094.000000
1587911.000000
1588781.000000
1589597.000000
1590361.000000
1591174.000000
1592004.000000
1592780.000000
1593601.000000
1594486.000000
1595338.000000
1596157.000000
1596968.000000
1597768.000000
1598520.000000
1599309.000000
1600133.000000
1600917.000000
1601689.000000
1602520.000000
1603352.000000
1604124.000000
1604926.000000
1605757.000000
1606519.000000
1607263.000000
1608020.000000
1608833.000000
1609591.000000
1610365.000000
1611151.000000
1611888.000000
1612605.000000
1613253.000000
1613915.000000
1614694.000000
1615444.000000
1616279.000000
1617145.000000
1617947.000000
1618784.000000
1619679.000000
1620546.000000
1621321.000000
1622160.000000
1623030.000000
1623839.000000
1624646.000000
1625561.000000
1626469.000000
1627275.000000
1628137.000000
1629030.000000
1629885.000000
1630772.000000
1631703.000000
1632614.000000
1633415.000000
1634255.000000
1635176.000000
1636054.000000
1636868.000000
1637743.000000
1638654.000000
1639500.000000
1640403.000000
1641331.000000
1642176.000000
1643042.000000
1643962.000000
1644807.000000
1645623.000000
1646464.000000
1647316.000000
1648136.000000
1649004.000000
1649911.000000
1650758.000000
1651647.000000
1652561.000000
1653384.000000
1654206.000000
1655100.000000
1656000.000000
1656842.000000
1657763.000000
1658702.000000
1659552.000000
1660402.000000
1661334.000000
1662228.000000
1663090.000000
1664055.000000
1664975.000000
1665852.000000
1666792.000000
1667686.000000
1668529.000000
1669454.000000
1670438.000000
1671328.000000
1672196.000000
1673172.000000
1674071.000000
1674911.000000
1675856.000000
1676814.000000
1677688.000000
1678639.000000
1679591.000000
1680478.000000
1681404.000000
1682340.000000
1683203.000000
1684082.000000
1684973.000000
1685775.000000
1686491.000000
1687220.000000
1688183.000000
1689106.000000
1689939.000000
1690783.000000
1691634.000000
1692491.000000
1693268.000000
1693972.000000
1694654.000000
1695524.000000
1696450.000000
1697357.000000
1698233.000000
1699091.000000
1699927.000000
1700809.000000
1701663.000000
1702488.000000
1703297.000000
1704103.000000
1704908.000000
1705730.000000
1706558.000000
1707367.000000
1708110.000000
1708873.000000
1709721.000000
1710517.000000
1711264.000000
1712057.000000
1712786.000000
1713442.000000
1714092.000000
1714844.000000
1715691.000000
1716533.000000
1717384.000000
1718198.000000
1719007.000000
1719759.000000
1720555.000000
1721353.000000
1722069.000000
1722768.000000
1723556.000000
1724400.000000
1725186.000000
1725991.000000
1726896.000000
1727725.000000
1728494.000000
1729267.000000
1730081.000000
1730900.000000
1731676.000000
1732473.000000
1733303.000000
1734124.000000
1734914.000000
1735725.000000
1736545.000000
1737318.000000
1738102.000000
1738918.000000
1739740.000000
1740519.000000
1741359.000000
1742232.000000
1743061.000000
1743866.000000
1744708.000000
1745581.000000
1746365.000000
1747170.000000
1748062.000000
1748907.000000
1749750.000000
1750627.000000
1751473.000000
1752256.000000
1753025.000000
1753777.000000
1754517.000000
1755279.000000
1756129.000000
1757032.000000
1757833.000000
1758658.000000
1759503.000000
1760316.000000
1761075.000000
1761821.000000
1762556.000000
1763218.000000
1763876.000000
1764697.000000
1765451.000000
1766168.000000
1766997.000000
1767870.000000
1768743.000000
1769546.000000
1770354.000000
1771177.000000
1771972.000000
1772731.000000
1773507.000000
1774405.000000
1775265.000000
1776074.000000
1776929.000000
1777805.000000
1778684.000000
1779555.000000
1780449.000000
1781303.000000
1782075.000000
1782788.000000
1783484.000000
1784616.000000
1785584.000000
1786551.000000
1787484.000000
1788365.000000
1789236.000000
1790128.000000
1791020.000000
1791856.000000
1792598.000000
1793351.000000
1794150.000000
1795018.000000
1795868.000000
1796639.000000
1797431.000000
1798245.000000
1799009.000000
1799810.000000
1800723.000000
1801532.000000
1802333.000000
1803223.000000
1804157.000000
1804962.000000
1805757.000000
1806568.000000
1807330.000000
1808151.000000
1809023.000000
1809857.000000
1810755.000000
1811640.000000
1812463.000000
1813299.000000
1814135.000000
1814906.000000
1815619.000000
1816391.000000
1817315.000000
1818232.000000
1819080.000000
1819937.000000
1820830.000000
1821692.000000
1822493.000000
1823330.000000
1824200.000000
1825016.000000
1825848.000000
1826663.000000
1827428.000000
1828243.000000
1829128.000000
1829971.000000
1830803.000000
1831662.000000
1832509.000000
1833311.000000
1834147.000000
1835003.000000
1835792.000000
1836594.000000
1837410.000000
1838194.000000
1838979.000000
1839812.000000
1840598.000000
1841413.000000
1842255.000000
1843049.000000
1843826.000000
1844663.000000
1845516.000000
1846289.000000
1847082.000000
1847917.000000
1848730.000000
1849501.000000
1850305.000000
1851115.000000
1851903.000000
1852737.000000
1853584.000000
1854361.000000
1855153.000000
1856002.000000
1856823.000000
1857605.000000
1858419.000000
1859275.000000
1860060.000000
1860901.000000
1861742.000000
1862527.000000
1863298.000000
1864157.000000
1864999.000000
1865795.000000
1866603.000000
1867486.000000
1868330.000000
1869121.000000
1869957.000000
1870857.000000
1871705.000000
1872593.000000
1873494.000000
1874310.000000
1875148.000000
1876017.000000
1876842.000000
1877707.000000
1878630.000000
1879516.000000
1880429.000000
1881377.000000
1882263.000000
1883133.000000
1884004.000000
1884800.000000
1885616.000000
1886472.000000
1887294.000000
1888159.000000
1889078.000000
1889926.000000
1890741.000000
1891604.000000
1892412.000000
1893170.000000
1893964.000000
1894783.000000
1895542.000000
1896348.000000
1897199.000000
1897972.000000
1898763.000000
1899548.000000
1900298.000000
1901074.000000
1901843.000000
1902617.000000
1903344.000000
1904095.000000
1904804.000000
1905501.000000
1906135.000000
1906754.000000
1907483.000000
1908268.000000
1909035.000000
1909849.000000
1910688.000000
1911478.000000
1912297.000000
1913140.000000
1913913.000000
1914672.000000
1915483.000000
1916308.000000
1917084.000000
1917912.000000
1918759.000000
1919529.000000
1920357.000000
1921272.000000
1922062.000000
1922812.000000
1923642.000000
1924562.000000
1925425.000000
1926306.000000
1927166.000000
1928007.000000
1928866.000000
1929741.000000
1930607.000000
1931416.000000
1932239.000000
1933084.000000
1933886.000000
1934691.000000
1935534.000000
1936353.000000
1937118.000000
1937932.000000
1938768.000000
1939554.000000
1940374.000000
1941241.000000
1942057.000000
1942840.000000
1943628.000000
1944342.000000
1944988.000000
1945633.000000
1946351.000000
1947220.000000
1948083.000000
1948881.000000
1949604.000000
1950343.000000
1951182.000000
1952076.000000
1952886.000000
1953709.000000
1954572.000000
1955445.000000
1956286.000000
1957165.000000
1958055.000000
1958882.000000
1959774.000000
1960685.000000
1961542.000000
1962352.000000
1963259.000000
1964191.000000
1965124.000000
1965972.000000
