ECG (ms)
570.000000
1408.000000
2242.000000
3061.000000
3917.000000
4750.000000
5582.000000
6388.000000
7175.000000
7919.000000
8687.000000
9418.000000
10166.000000
10961.000000
11819.000000
12692.000000
13539.000000
14401.000000
15242.000000
16047.000000
16819.000000
17566.000000
18334.000000
19148.000000
19937.000000
20655.000000
21415.000000
22553.000000
23615.000000
24652.000000
25668.000000
26640.000000
27519.000000
28410.000000
29322.000000
30222.000000
31083.000000
31972.000000
32905.000000
33847.000000
34742.000000
35650.000000
36580.000000
37516.000000
38509.000000
39370.000000
40245.000000
41167.000000
42038.000000
42989.000000
44011.000000
44986.000000
45988.000000
46965.000000
47871.000000
48807.000000
49716.000000
50540.000000
51483.000000
52461.000000
53342.000000
54095.000000
54851.000000
55772.000000
56839.000000
57869.000000
58813.000000
59685.000000
60593.000000
61512.000000
62443.000000
63335.000000
64195.000000
65034.000000
65908.000000
66866.000000
67767.000000
68645.000000
69554.000000
70457.000000
71313.000000
72207.000000
73101.000000
73949.000000
74808.000000
75718.000000
76607.000000
77458.000000
78343.000000
79261.000000
80113.000000
80994.000000
81889.000000
82731.000000
83603.000000
84477.000000
85305.000000
86213.000000
87135.000000
87975.000000
88787.000000
89572.000000
90401.000000
91237.000000
92083.000000
92952.000000
93836.000000
94680.000000
95532.000000
96376.000000
97220.000000
98120.000000
99031.000000
99896.000000
100788.000000
101695.000000
102535.000000
103402.000000
104328.000000
105245.000000
106163.000000
107094.000000
108024.000000
108933.000000
109868.000000
110758.000000
111617.000000
112489.000000
113349.000000
114224.000000
115130.000000
115991.000000
116894.000000
117826.000000
118716.000000
119610.000000
120485.000000
121331.000000
122185.000000
123043.000000
123903.000000
124777.000000
125671.000000
126528.000000
127487.000000
128435.000000
129323.000000
130239.000000
131096.000000
131967.000000
132838.000000
133680.000000
134563.000000
135509.000000
136416.000000
137396.000000
138328.000000
139206.000000
140120.000000
141024.000000
141919.000000
142895.000000
143805.000000
144678.000000
145591.000000
146465.000000
147350.000000
148270.000000
149165.000000
150074.000000
151011.000000
151904.000000
152865.000000
153797.000000
154694.000000
155609.000000
156476.000000
157326.000000
158259.000000
159214.000000
160118.000000
161031.000000
161926.000000
162775.000000
163693.000000
164593.000000
165441.000000
166316.000000
167247.000000
168127.000000
169035.000000
169961.000000
170829.000000
171707.000000
172627.000000
173516.000000
174456.000000
175381.000000
176257.000000
177170.000000
178028.000000
178869.000000
179726.000000
180577.000000
181428.000000
182315.000000
183188.000000
184066.000000
185032.000000
185922.000000
186785.000000
187667.000000
188514.000000
189390.000000
190281.000000
191135.000000
192058.000000
192998.000000
193851.000000
194755.000000
195663.000000
196520.000000
197456.000000
198348.000000
199197.000000
200062.000000
200960.000000
201837.000000
202622.000000
203360.000000
204164.000000
205424.000000
206519.000000
207570.000000
208492.000000
209353.000000
210247.000000
211141.000000
212007.000000
212870.000000
213757.000000
214685.000000
215642.000000
216574.000000
217482.000000
218387.000000
219251.000000
220152.000000
221082.000000
221963.000000
222938.000000
223953.000000
224852.000000
225788.000000
226780.000000
227665.000000
228555.000000
229506.000000
230389.000000
231308.000000
232241.000000
233176.000000
234074.000000
234981.000000
235895.000000
236747.000000
237677.000000
238582.000000
239423.000000
240299.000000
241223.000000
242114.000000
243068.000000
244037.000000
244929.000000
245844.000000
246748.000000
247576.000000
248433.000000
249338.000000
250241.000000
251196.000000
252168.000000
253127.000000
254017.000000
254976.000000
255914.000000
256777.000000
257685.000000
258596.000000
259468.000000
260389.000000
261333.000000
262262.000000
263234.000000
264217.000000
265149.000000
266118.000000
267069.000000
267979.000000
268889.000000
269762.000000
270613.000000
271519.000000
272469.000000
273398.000000
274384.000000
275346.000000
276256.000000
277190.000000
278079.000000
278970.000000
279914.000000
280824.000000
281751.000000
282673.000000
283577.000000
284509.000000
285399.000000
286276.000000
287185.000000
288069.000000
288998.000000
289921.000000
290805.000000
291738.000000
292654.000000
293507.000000
294373.000000
295241.000000
296103.000000
297010.000000
297905.000000
298762.000000
299671.000000
300580.000000
301462.000000
302376.000000
303256.000000
304144.000000
305072.000000
305919.000000
306793.000000
307667.000000
308498.000000
309394.000000
310326.000000
311225.000000
312208.000000
313159.000000
314089.000000
315013.000000
315862.000000
316745.000000
317615.000000
318487.000000
319413.000000
320303.000000
321174.000000
322069.000000
322953.000000
323817.000000
324723.000000
325673.000000
326572.000000
327516.000000
328455.000000
329323.000000
330213.000000
331148.000000
332042.000000
332990.000000
333973.000000
334888.000000
335882.000000
336857.000000
337781.000000
338759.000000
339650.000000
340535.000000
341393.000000
342211.000000
343104.000000
344182.000000
345166.000000
346139.000000
347126.000000
348057.000000
349013.000000
349964.000000
350859.000000
351801.000000
352714.000000
353610.000000
354569.000000
355486.000000
356385.000000
357293.000000
358197.000000
359095.000000
360051.000000
360985.000000
361893.000000
362842.000000
363808.000000
364725.000000
365655.000000
366633.000000
367545.000000
368494.000000
369483.000000
370380.000000
371300.000000
372188.000000
373087.000000
374032.000000
374974.000000
375861.000000
376754.000000
377652.000000
378513.000000
379480.000000
380377.000000
381255.000000
382166.000000
383055.000000
383939.000000
384879.000000
385815.000000
386683.000000
387570.000000
388496.000000
389372.000000
390293.000000
391190.000000
392054.000000
392991.000000
393933.000000
394807.000000
395712.000000
396608.000000
397486.000000
398434.000000
399368.000000
400288.000000
401206.000000
402093.000000
403025.000000
403951.000000
404849.000000
405777.000000
406689.000000
407550.000000
408326.000000
409075.000000
409851.000000
410853.000000
411922.000000
412930.000000
413897.000000
414846.000000
415764.000000
416620.000000
417474.000000
418400.000000
419318.000000
420218.000000
421195.000000
422175.000000
423079.000000
423980.000000
424922.000000
425804.000000
426696.000000
427587.000000
428471.000000
429333.000000
430320.000000
431283.000000
432203.000000
433187.000000
434144.000000
435032.000000
436001.000000
436981.000000
437870.000000
438774.000000
439695.000000
440583.000000
441543.000000
442536.000000
443448.000000
444393.000000
445291.000000
446174.000000
447097.000000
448001.000000
448922.000000
449873.000000
450753.000000
451679.000000
452611.000000
453501.000000
454403.000000
455314.000000
456183.000000
457094.000000
458035.000000
458926.000000
459855.000000
460781.000000
461649.000000
462568.000000
463440.000000
464281.000000
465198.000000
466141.000000
467033.000000
468003.000000
469030.000000
469993.000000
470983.000000
471904.000000
472808.000000
473762.000000
474685.000000
475669.000000
476626.000000
477587.000000
478550.000000
479469.000000
480428.000000
481373.000000
482269.000000
483199.000000
484105.000000
484965.000000
485875.000000
486813.000000
487689.000000
488626.000000
489578.000000
490490.000000
491479.000000
492466.000000
493380.000000
494361.000000
495289.000000
496196.000000
497113.000000
497981.000000
498858.000000
499802.000000
500788.000000
501711.000000
502659.000000
503643.000000
504589.000000
505497.000000
506435.000000
507413.000000
508272.000000
509022.000000
509751.000000
511088.000000
512228.000000
513311.000000
514373.000000
515399.000000
516392.000000
517366.000000
518294.000000
519183.000000
520048.000000
520931.000000
521857.000000
522822.000000
523793.000000
524760.000000
525712.000000
526602.000000
527495.000000
528390.000000
529264.000000
530116.000000
531015.000000
531946.000000
532811.000000
533689.000000
534604.000000
535473.000000
536326.000000
537260.000000
538148.000000
539012.000000
539898.000000
540813.000000
541669.000000
542571.000000
543473.000000
544338.000000
545237.000000
546134.000000
547000.000000
547891.000000
548823.000000
549690.000000
550611.000000
551524.000000
552410.000000
553335.000000
554290.000000
555185.000000
556100.000000
557033.000000
557923.000000
558890.000000
559853.000000
560826.000000
561799.000000
562739.000000
563609.000000
564483.000000
565371.000000
566240.000000
567207.000000
568158.000000
569076.000000
570056.000000
571034.000000
571932.000000
572838.000000
573746.000000
574584.000000
575464.000000
576388.000000
577260.000000
578182.000000
579071.000000
579927.000000
580787.000000
581640.000000
582476.000000
583348.000000
584238.000000
585102.000000
585957.000000
586822.000000
587664.000000
588504.000000
589344.000000
590174.000000
590955.000000
591782.000000
592661.000000
593514.000000
594370.000000
595243.000000
596115.000000
596937.000000
597783.000000
598663.000000
599533.000000
600379.000000
601224.000000
602060.000000
602829.000000
603705.000000
604667.000000
605508.000000
606361.000000
607266.000000
608279.000000
609204.000000
610164.000000
611131.000000
612074.000000
613013.000000
613886.000000
614765.000000
615661.000000
616529.000000
617453.000000
618353.000000
619251.000000
620227.000000
621179.000000
622052.000000
622943.000000
623844.000000
624716.000000
625662.000000
626643.000000
627561.000000
628508.000000
629458.000000
630360.000000
631372.000000
632316.000000
633157.000000
634037.000000
634992.000000
635936.000000
636937.000000
637975.000000
638963.000000
639999.000000
641013.000000
641922.000000
642811.000000
643704.000000
644568.000000
645473.000000
646413.000000
647352.000000
648246.000000
649165.000000
650070.000000
650908.000000
651784.000000
652711.000000
653584.000000
654518.000000
655408.000000
656286.000000
657226.000000
658197.000000
659081.000000
660012.000000
660938.000000
661804.000000
662730.000000
663672.000000
664558.000000
665486.000000
666418.000000
667302.000000
668423.000000
669552.000000
670588.000000
671601.000000
672573.000000
673562.000000
674429.000000
675232.000000
676054.000000
676820.000000
677620.000000
678701.000000
679775.000000
680824.000000
681777.000000
682715.000000
683657.000000
684535.000000
685420.000000
686334.000000
687266.000000
688188.000000
689195.000000
690161.000000
691033.000000
691909.000000
692791.000000
693673.000000
694625.000000
695694.000000
696707.000000
697774.000000
698806.000000
699771.000000
700725.000000
701644.000000
702586.000000
703550.000000
704473.000000
705442.000000
706462.000000
707406.000000
708404.000000
709372.000000
710278.000000
711221.000000
712141.000000
713053.000000
714038.000000
715071.000000
716045.000000
717073.000000
718088.000000
719059.000000
720050.000000
720983.000000
721835.000000
722725.000000
723703.000000
724681.000000
725731.000000
726746.000000
727733.000000
728776.000000
729756.000000
730676.000000
731579.000000
732484.000000
733367.000000
734412.000000
735506.000000
736519.000000
737565.000000
738580.000000
739498.000000
740404.000000
741325.000000
742193.000000
743151.000000
744140.000000
745080.000000
746175.000000
747240.000000
748254.000000
749236.000000
750162.000000
751108.000000
752068.000000
752940.000000
753863.000000
754807.000000
755703.000000
756631.000000
757560.000000
758445.000000
759349.000000
760271.000000
761157.000000
762078.000000
763006.000000
763851.000000
764615.000000
765341.000000
766071.000000
767288.000000
768377.000000
769422.000000
770448.000000
771454.000000
772439.000000
773382.000000
774303.000000
775208.000000
776112.000000
777041.000000
777961.000000
778901.000000
779852.000000
780775.000000
781695.000000
782607.000000
783483.000000
784340.000000
785234.000000
786221.000000
787105.000000
788025.000000
788955.000000
789843.000000
790810.000000
791808.000000
792731.000000
793718.000000
794684.000000
795578.000000
796495.000000
797400.000000
798253.000000
799140.000000
800050.000000
800943.000000
801910.000000
802909.000000
803835.000000
804754.000000
805690.000000
806557.000000
807454.000000
808378.000000
809283.000000
810220.000000
811169.000000
812130.000000
813052.000000
813966.000000
814869.000000
815757.000000
816656.000000
817577.000000
818469.000000
819425.000000
820380.000000
821277.000000
822203.000000
823166.000000
824065.000000
825010.000000
825946.000000
826863.000000
827823.000000
828797.000000
829752.000000
830743.000000
831746.000000
832702.000000
833679.000000
834628.000000
835513.000000
836425.000000
837332.000000
838215.000000
839202.000000
840177.000000
841098.000000
842053.000000
843017.000000
843911.000000
844807.000000
845679.000000
846520.000000
847418.000000
848431.000000
849358.000000
850330.000000
851286.000000
852225.000000
853202.000000
854143.000000
855006.000000
855888.000000
856765.000000
857620.000000
858567.000000
859547.000000
860517.000000
861504.000000
862457.000000
863353.000000
864258.000000
865182.000000
866097.000000
867021.000000
867946.000000
868830.000000
869787.000000
870892.000000
871913.000000
873005.000000
874075.000000
875037.000000
876008.000000
876959.000000
877831.000000
878724.000000
879640.000000
880498.000000
881410.000000
882341.000000
883206.000000
884093.000000
885004.000000
885863.000000
886751.000000
887681.000000
888548.000000
889452.000000
890386.000000
891276.000000
892275.000000
893256.000000
894140.000000
895015.000000
895921.000000
896745.000000
897539.000000
898305.000000
899125.000000
900012.000000
900847.000000
901725.000000
902676.000000
903602.000000
904547.000000
905431.000000
906258.000000
907095.000000
907962.000000
908857.000000
909829.000000
910845.000000
911820.000000
912889.000000
913948.000000
914945.000000
915928.000000
916873.000000
917734.000000
918634.000000
919556.000000
920432.000000
921347.000000
922245.000000
923118.000000
924082.000000
