ECG (ms)
874.000000
1737.000000
2555.000000
3395.000000
4279.000000
5170.000000
6077.000000
6942.000000
7813.000000
8717.000000
9626.000000
10541.000000
11436.000000
12282.000000
13091.000000
13956.000000
14960.000000
15980.000000
16976.000000
17941.000000
18928.000000
19882.000000
20820.000000
21768.000000
22704.000000
23583.000000
24422.000000
25300.000000
26253.000000
27238.000000
28219.000000
29160.000000
30041.000000
30925.000000
31809.000000
32663.000000
33501.000000
34397.000000
35357.000000
36331.000000
37254.000000
38137.000000
39033.000000
39946.000000
40850.000000
41702.000000
42510.000000
43335.000000
44198.000000
45088.000000
45979.000000
46873.000000
47697.000000
48519.000000
49356.000000
50169.000000
51017.000000
51933.000000
52869.000000
53802.000000
54704.000000
55551.000000
56393.000000
57250.000000
58117.000000
58901.000000
59672.000000
60506.000000
61387.000000
62322.000000
63293.000000
64254.000000
65162.000000
66013.000000
66876.000000
67778.000000
68685.000000
69640.000000
70609.000000
71522.000000
72405.000000
73320.000000
74270.000000
75183.000000
76038.000000
76903.000000
77852.000000
78782.000000
79679.000000
80569.000000
81410.000000
82223.000000
83019.000000
83877.000000
84765.000000
85641.000000
86498.000000
87387.000000
88281.000000
89136.000000
89942.000000
90703.000000
91442.000000
92180.000000
92952.000000
93844.000000
94715.000000
95606.000000
96557.000000
97511.000000
98397.000000
99276.000000
100149.000000
100993.000000
101859.000000
102746.000000
103642.000000
104531.000000
105398.000000
106269.000000
107137.000000
107993.000000
108870.000000
109722.000000
110518.000000
111325.000000
112167.000000
113071.000000
114016.000000
114982.000000
115904.000000
116813.000000
117717.000000
118573.000000
119381.000000
120231.000000
121160.000000
122105.000000
123020.000000
123892.000000
124759.000000
125645.000000
126491.000000
127304.000000
128139.000000
129056.000000
130043.000000
131010.000000
131989.000000
132952.000000
133833.000000
134678.000000
135525.000000
136367.000000
137193.000000
138014.000000
138903.000000
139874.000000
140840.000000
141768.000000
142667.000000
143596.000000
144513.000000
145403.000000
146251.000000
147120.000000
148003.000000
148878.000000
149783.000000
150676.000000
151537.000000
152423.000000
153295.000000
154144.000000
154940.000000
155697.000000
156472.000000
157263.000000
158142.000000
159043.000000
159930.000000
160861.000000
161751.000000
162591.000000
163411.000000
164266.000000
165124.000000
165920.000000
166666.000000
167426.000000
168263.000000
169141.000000
170059.000000
170952.000000
171826.000000
172713.000000
173537.000000
174310.000000
175062.000000
175762.000000
176509.000000
177311.000000
178131.000000
178981.000000
179842.000000
180644.000000
181413.000000
182214.000000
183040.000000
183862.000000
184670.000000
185448.000000
186262.000000
187156.000000
188065.000000
188954.000000
189779.000000
190555.000000
191324.000000
192066.000000
192802.000000
193603.000000
194526.000000
195480.000000
196430.000000
197359.000000
198259.000000
199115.000000
199919.000000
200702.000000
201538.000000
202423.000000
203329.000000
204226.000000
205100.000000
205985.000000
206872.000000
207746.000000
208621.000000
209462.000000
210269.000000
211094.000000
211970.000000
212915.000000
213835.000000
214720.000000
215608.000000
216501.000000
217382.000000
218257.000000
219150.000000
220030.000000
220876.000000
221729.000000
222620.000000
223554.000000
224490.000000
225395.000000
226246.000000
227050.000000
227851.000000
228649.000000
229489.000000
230340.000000
231224.000000
232177.000000
233115.000000
233996.000000
234854.000000
235725.000000
236561.000000
237383.000000
238198.000000
239011.000000
239837.000000
240750.000000
241681.000000
242601.000000
243451.000000
244260.000000
245069.000000
245933.000000
246848.000000
247751.000000
248691.000000
249656.000000
250602.000000
251515.000000
252364.000000
253153.000000
253936.000000
254710.000000
255469.000000
256281.000000
257130.000000
258038.000000
258922.000000
259757.000000
260573.000000
261335.000000
262070.000000
262802.000000
263548.000000
264315.000000
265177.000000
266149.000000
267115.000000
268064.000000
268975.000000
269853.000000
270743.000000
271640.000000
272507.000000
273358.000000
274168.000000
275015.000000
275904.000000
276779.000000
277634.000000
278510.000000
279404.000000
280296.000000
281185.000000
281980.000000
282738.000000
283515.000000
284349.000000
285229.000000
286100.000000
286894.000000
287627.000000
288339.000000
289121.000000
290097.000000
291093.000000
292049.000000
292945.000000
293827.000000
294670.000000
295513.000000
296339.000000
297158.000000
298017.000000
298874.000000
299754.000000
300686.000000
301606.000000
302468.000000
303291.000000
304113.000000
304946.000000
305807.000000
306718.000000
307637.000000
308559.000000
309482.000000
310362.000000
311222.000000
312055.000000
312878.000000
313691.000000
314521.000000
315416.000000
316313.000000
317230.000000
318120.000000
318959.000000
319791.000000
320579.000000
321335.000000
322047.000000
322762.000000
323505.000000
324387.000000
325323.000000
326239.000000
327144.000000
327957.000000
328722.000000
329479.000000
330222.000000
330992.000000
331762.000000
332532.000000
333324.000000
334165.000000
335045.000000
335915.000000
336767.000000
337625.000000
338443.000000
339286.000000
340130.000000
340936.000000
341760.000000
342614.000000
343490.000000
344313.000000
345092.000000
345878.000000
346657.000000
347409.000000
348184.000000
348918.000000
349637.000000
350354.000000
351104.000000
351866.000000
352654.000000
353443.000000
354239.000000
355027.000000
355779.000000
356535.000000
357256.000000
357981.000000
358715.000000
359491.000000
360294.000000
361086.000000
361851.000000
362605.000000
363394.000000
364199.000000
364974.000000
365760.000000
366565.000000
367377.000000
368164.000000
368976.000000
369824.000000
370655.000000
371468.000000
372275.000000
373119.000000
373979.000000
374837.000000
375734.000000
376634.000000
377494.000000
378312.000000
379127.000000
379956.000000
380803.000000
381651.000000
382494.000000
383346.000000
384244.000000
385154.000000
386021.000000
386872.000000
387731.000000
388606.000000
389496.000000
390354.000000
391177.000000
391957.000000
392700.000000
393426.000000
394174.000000
395068.000000
396045.000000
397016.000000
397929.000000
398824.000000
399658.000000
400435.000000
401167.000000
401898.000000
402662.000000
403493.000000
404322.000000
405159.000000
406016.000000
406854.000000
407656.000000
408458.000000
409246.000000
410041.000000
410855.000000
411676.000000
412511.000000
413370.000000
414232.000000
415069.000000
415919.000000
416739.000000
417559.000000
418412.000000
419234.000000
420013.000000
420757.000000
421496.000000
422224.000000
422965.000000
423737.000000
424501.000000
425319.000000
426184.000000
427003.000000
427828.000000
428655.000000
429420.000000
430163.000000
430891.000000
431609.000000
432370.000000
433115.000000
433859.000000
434646.000000
435460.000000
436337.000000
437239.000000
438111.000000
438950.000000
439800.000000
440649.000000
441498.000000
442323.000000
443128.000000
443925.000000
444769.000000
445656.000000
446535.000000
447383.000000
448210.000000
449056.000000
449935.000000
450810.000000
451642.000000
452456.000000
453295.000000
454171.000000
455043.000000
455901.000000
456779.000000
457692.000000
458603.000000
459468.000000
460285.000000
461099.000000
461934.000000
462791.000000
463597.000000
464400.000000
465295.000000
466224.000000
467118.000000
467987.000000
468870.000000
469749.000000
470602.000000
471424.000000
472211.000000
473017.000000
473880.000000
474757.000000
475656.000000
476608.000000
477587.000000
478521.000000
479434.000000
480362.000000
481282.000000
482127.000000
482959.000000
483793.000000
484603.000000
485421.000000
486281.000000
487152.000000
488008.000000
488822.000000
489638.000000
490506.000000
491424.000000
492338.000000
493234.000000
494171.000000
495109.000000
496015.000000
496922.000000
497811.000000
498691.000000
499545.000000
500388.000000
501286.000000
502217.000000
503137.000000
504022.000000
504856.000000
505637.000000
506379.000000
507103.000000
507880.000000
508811.000000
509756.000000
510703.000000
511660.000000
512599.000000
513513.000000
514356.000000
515197.000000
516023.000000
516845.000000
517674.000000
518494.000000
519334.000000
520198.000000
521040.000000
521868.000000
522665.000000
523431.000000
524206.000000
525032.000000
525917.000000
526795.000000
527630.000000
528487.000000
529375.000000
530240.000000
531113.000000
531996.000000
532825.000000
533664.000000
534505.000000
535313.000000
536103.000000
536938.000000
537813.000000
538689.000000
539552.000000
540432.000000
541274.000000
542115.000000
542979.000000
543848.000000
544726.000000
545636.000000
546518.000000
547417.000000
548294.000000
549126.000000
549915.000000
550729.000000
551577.000000
552418.000000
553283.000000
554175.000000
555038.000000
555895.000000
556794.000000
557715.000000
558593.000000
559435.000000
560299.000000
561200.000000
562118.000000
563014.000000
563907.000000
564810.000000
565689.000000
566568.000000
567434.000000
568330.000000
569232.000000
570073.000000
570930.000000
571807.000000
572665.000000
573488.000000
574308.000000
575181.000000
576090.000000
576988.000000
577853.000000
578715.000000
579594.000000
580393.000000
581169.000000
581939.000000
582683.000000
583392.000000
584083.000000
584763.000000
585504.000000
586406.000000
587302.000000
588209.000000
589037.000000
589836.000000
590603.000000
591380.000000
592183.000000
592961.000000
593730.000000
594498.000000
595254.000000
596028.000000
596796.000000
597544.000000
598286.000000
599085.000000
599974.000000
600865.000000
601756.000000
602655.000000
603489.000000
604292.000000
605062.000000
605851.000000
606694.000000
607614.000000
608529.000000
609419.000000
610335.000000
611254.000000
612118.000000
612951.000000
613794.000000
614615.000000
615443.000000
616322.000000
617198.000000
618105.000000
619081.000000
620024.000000
620963.000000
621860.000000
622721.000000
623567.000000
624422.000000
625270.000000
626135.000000
627017.000000
627930.000000
628873.000000
629801.000000
630692.000000
631512.000000
632325.000000
633163.000000
633988.000000
634799.000000
635631.000000
636481.000000
637325.000000
638212.000000
639072.000000
639935.000000
640812.000000
641629.000000
642415.000000
643250.000000
644137.000000
644995.000000
645807.000000
646617.000000
647374.000000
648125.000000
648884.000000
649638.000000
650415.000000
651201.000000
652018.000000
652889.000000
653765.000000
654651.000000
655528.000000
656377.000000
657244.000000
658056.000000
658866.000000
659714.000000
660561.000000
661434.000000
662341.000000
663178.000000
664005.000000
664830.000000
665630.000000
666455.000000
667343.000000
668159.000000
668909.000000
669646.000000
670341.000000
671022.000000
671753.000000
672679.000000
673664.000000
674614.000000
675554.000000
676460.000000
677335.000000
678164.000000
678956.000000
679727.000000
680537.000000
681398.000000
682278.000000
683145.000000
683965.000000
684745.000000
685507.000000
686251.000000
687028.000000
687845.000000
688670.000000
689528.000000
690394.000000
691250.000000
692155.000000
693032.000000
693927.000000
694802.000000
695651.000000
696546.000000
697444.000000
698311.000000
699168.000000
700054.000000
700930.000000
701773.000000
702631.000000
703476.000000
704346.000000
705275.000000
706221.000000
707117.000000
708005.000000
708900.000000
709769.000000
710604.000000
711471.000000
712349.000000
713218.000000
714071.000000
714940.000000
715797.000000
716651.000000
717537.000000
718409.000000
719239.000000
720056.000000
720906.000000
721714.000000
722501.000000
723277.000000
724022.000000
724783.000000
725563.000000
726358.000000
727156.000000
727990.000000
728802.000000
729591.000000
730416.000000
731247.000000
732025.000000
732775.000000
733546.000000
734362.000000
735226.000000
736096.000000
736942.000000
737761.000000
738580.000000
739349.000000
740099.000000
740824.000000
741526.000000
742241.000000
743062.000000
743961.000000
744815.000000
745690.000000
746598.000000
747499.000000
748336.000000
749097.000000
749850.000000
750583.000000
751303.000000
752016.000000
752725.000000
753452.000000
754269.000000
755174.000000
756078.000000
756996.000000
757879.000000
758749.000000
759621.000000
760502.000000
761391.000000
762253.000000
763081.000000
763959.000000
764912.000000
765887.000000
766851.000000
767778.000000
768658.000000
769545.000000
770448.000000
771336.000000
772187.000000
773035.000000
773938.000000
774900.000000
775845.000000
776771.000000
777655.000000
778499.000000
779306.000000
780139.000000
781061.000000
782020.000000
782976.000000
783903.000000
784796.000000
785702.000000
786568.000000
787382.000000
788222.000000
789109.000000
790003.000000
790891.000000
791805.000000
792715.000000
793584.000000
794400.000000
795173.000000
795918.000000
796646.000000
797381.000000
798217.000000
799197.000000
800174.000000
801131.000000
802022.000000
802821.000000
803634.000000
804436.000000
805237.000000
806004.000000
806753.000000
807490.000000
808204.000000
808960.000000
809745.000000
810528.000000
811353.000000
812221.000000
813092.000000
813940.000000
814804.000000
815677.000000
816534.000000
817365.000000
818176.000000
819013.000000
819888.000000
820761.000000
821640.000000
822540.000000
823402.000000
824239.000000
825108.000000
826011.000000
826936.000000
827881.000000
828810.000000
829735.000000
830600.000000
831477.000000
832329.000000
833141.000000
833954.000000
834795.000000
835626.000000
836497.000000
837412.000000
838276.000000
839115.000000
839989.000000
840843.000000
841649.000000
842443.000000
843278.000000
844186.000000
845108.000000
846044.000000
846945.000000
847780.000000
848613.000000
849470.000000
850347.000000
851201.000000
852025.000000
852885.000000
853786.000000
854659.000000
855491.000000
856338.000000
857161.000000
857967.000000
858819.000000
859700.000000
860596.000000
861450.000000
862305.000000
863178.000000
864016.000000
864840.000000
865693.000000
866526.000000
867350.000000
868205.000000
869067.000000
869896.000000
870702.000000
871503.000000
872351.000000
873213.000000
874079.000000
874914.000000
875705.000000
876424.000000
877144.000000
877826.000000
878515.000000
879218.000000
879984.000000
880759.000000
881571.000000
882386.000000
883240.000000
884110.000000
884952.000000
885755.000000
886505.000000
887227.000000
887960.000000
888728.000000
889523.000000
890361.000000
891214.000000
891962.000000
892672.000000
893374.000000
894077.000000
894803.000000
895602.000000
896422.000000
897228.000000
898053.000000
898880.000000
899687.000000
