ECG (ms)
172.000000
858.000000
1587.000000
2341.000000
3082.000000
3826.000000
4567.000000
5318.000000
6063.000000
6809.000000
7558.000000
8331.000000
9073.000000
9821.000000
10575.000000
11346.000000
12113.000000
12867.000000
13649.000000
14466.000000
15268.000000
16065.000000
16818.000000
17573.000000
18312.000000
19076.000000
19854.000000
20669.000000
21470.000000
22265.000000
23068.000000
23881.000000
24654.000000
25432.000000
26221.000000
27006.000000
27767.000000
28517.000000
29249.000000
29987.000000
30726.000000
31455.000000
32187.000000
32926.000000
33696.000000
34481.000000
35280.000000
36073.000000
36865.000000
37679.000000
38450.000000
39200.000000
39957.000000
40742.000000
41540.000000
42324.000000
43130.000000
43966.000000
44777.000000
45563.000000
46332.000000
47095.000000
47854.000000
48585.000000
49310.000000
50055.000000
50839.000000
51611.000000
52365.000000
53126.000000
53890.000000
54644.000000
55374.000000
56099.000000
56831.000000
57578.000000
58318.000000
59048.000000
59763.000000
60505.000000
61276.000000
62040.000000
62800.000000
63570.000000
64372.000000
65170.000000
65951.000000
66714.000000
67492.000000
68260.000000
69010.000000
69751.000000
70501.000000
71244.000000
71958.000000
72659.000000
73364.000000
74069.000000
74789.000000
75525.000000
76271.000000
77072.000000
77918.000000
78720.000000
79508.000000
80295.000000
81097.000000
81868.000000
82620.000000
83369.000000
84153.000000
84946.000000
85753.000000
86559.000000
87333.000000
88099.000000
88867.000000
89637.000000
90380.000000
91125.000000
91878.000000
92613.000000
93346.000000
94067.000000
94806.000000
95562.000000
96335.000000
97083.000000
97828.000000
98587.000000
99342.000000
100063.000000
100767.000000
101468.000000
102170.000000
102887.000000
103612.000000
104334.000000
105057.000000
105813.000000
106581.000000
107328.000000
108067.000000
108802.000000
109549.000000
110311.000000
111064.000000
111795.000000
112535.000000
113300.000000
114059.000000
114794.000000
115537.000000
116291.000000
117041.000000
117766.000000
118489.000000
119222.000000
119946.000000
120664.000000
121396.000000
122123.000000
122869.000000
123644.000000
124413.000000
125182.000000
125998.000000
126842.000000
127648.000000
128414.000000
129185.000000
129953.000000
130748.000000
131504.000000
132250.000000
133023.000000
133820.000000
134623.000000
135386.000000
136141.000000
136920.000000
137692.000000
138443.000000
139182.000000
139924.000000
140660.000000
141396.000000
142160.000000
142943.000000
143723.000000
144503.000000
145300.000000
146088.000000
146841.000000
147585.000000
148334.000000
149084.000000
149816.000000
150544.000000
151279.000000
152024.000000
152751.000000
153463.000000
154176.000000
154901.000000
155649.000000
156382.000000
157111.000000
157847.000000
158629.000000
159429.000000
160191.000000
160942.000000
161687.000000
162448.000000
163203.000000
163958.000000
164737.000000
165526.000000
166306.000000
167087.000000
167865.000000
168633.000000
169384.000000
170146.000000
170918.000000
171688.000000
172439.000000
173184.000000
173931.000000
174683.000000
175437.000000
176194.000000
176979.000000
177786.000000
178591.000000
179369.000000
180133.000000
180938.000000
181731.000000
182519.000000
183271.000000
184027.000000
184771.000000
185517.000000
186253.000000
187007.000000
187788.000000
188551.000000
189305.000000
190060.000000
190815.000000
191576.000000
192336.000000
193078.000000
193819.000000
194571.000000
195321.000000
196059.000000
196797.000000
197557.000000
198312.000000
199058.000000
199811.000000
200577.000000
201352.000000
202107.000000
202850.000000
203595.000000
204323.000000
205047.000000
205756.000000
206461.000000
207175.000000
207910.000000
208661.000000
209408.000000
210145.000000
210892.000000
211660.000000
212442.000000
213192.000000
213938.000000
214684.000000
215430.000000
216160.000000
216904.000000
217661.000000
218419.000000
219161.000000
219928.000000
220709.000000
221478.000000
222230.000000
222995.000000
223765.000000
224501.000000
225233.000000
225982.000000
226748.000000
227532.000000
228302.000000
229056.000000
229828.000000
230607.000000
231389.000000
232136.000000
232896.000000
233674.000000
234436.000000
235183.000000
235941.000000
236712.000000
237495.000000
238256.000000
239003.000000
239761.000000
240535.000000
241303.000000
242056.000000
242814.000000
243580.000000
244351.000000
245105.000000
245858.000000
246623.000000
247398.000000
248171.000000
248921.000000
249668.000000
250428.000000
251168.000000
251897.000000
252624.000000
253359.000000
254102.000000
254858.000000
255619.000000
256364.000000
257115.000000
257859.000000
258594.000000
259316.000000
260036.000000
260762.000000
261488.000000
262198.000000
262911.000000
263624.000000
264358.000000
265093.000000
265819.000000
266529.000000
267244.000000
267975.000000
268723.000000
269474.000000
270207.000000
270944.000000
271715.000000
272506.000000
273287.000000
274055.000000
274815.000000
275581.000000
276330.000000
277074.000000
277816.000000
278569.000000
279301.000000
280020.000000
280732.000000
281462.000000
282216.000000
282959.000000
283701.000000
284460.000000
285250.000000
286020.000000
286789.000000
287564.000000
288339.000000
289093.000000
289832.000000
290597.000000
291358.000000
292131.000000
292883.000000
293655.000000
294424.000000
295180.000000
295916.000000
296656.000000
297413.000000
298172.000000
298923.000000
299678.000000
300443.000000
301216.000000
301983.000000
302736.000000
303521.000000
304323.000000
305113.000000
305874.000000
306628.000000
307409.000000
308182.000000
308940.000000
309735.000000
310536.000000
311340.000000
312132.000000
312976.000000
313833.000000
314648.000000
315446.000000
316249.000000
317058.000000
317841.000000
318628.000000
319438.000000
320215.000000
320983.000000
321760.000000
322561.000000
323384.000000
324200.000000
324997.000000
325780.000000
326560.000000
327312.000000
328051.000000
328783.000000
329526.000000
330293.000000
331048.000000
331803.000000
332569.000000
333362.000000
334136.000000
334908.000000
335669.000000
336426.000000
337172.000000
337906.000000
338631.000000
339345.000000
340070.000000
340777.000000
341487.000000
342194.000000
342890.000000
343595.000000
344319.000000
345045.000000
345772.000000
346495.000000
347206.000000
347895.000000
348576.000000
349284.000000
349999.000000
350715.000000
351451.000000
352197.000000
353003.000000
353777.000000
354528.000000
355276.000000
356018.000000
356759.000000
357503.000000
358260.000000
359027.000000
359818.000000
360596.000000
361365.000000
362134.000000
362909.000000
363680.000000
364449.000000
365234.000000
366041.000000
366887.000000
367706.000000
368533.000000
369367.000000
370163.000000
370957.000000
371760.000000
372576.000000
373387.000000
374210.000000
375027.000000
375805.000000
376562.000000
377311.000000
378055.000000
378809.000000
379548.000000
380287.000000
381047.000000
381835.000000
382622.000000
383387.000000
384135.000000
384898.000000
385683.000000
386482.000000
387259.000000
388053.000000
388855.000000
389667.000000
390466.000000
391261.000000
392087.000000
392896.000000
393668.000000
394445.000000
395246.000000
396070.000000
396856.000000
397645.000000
398451.000000
399245.000000
400019.000000
400783.000000
401572.000000
402394.000000
403184.000000
403973.000000
404766.000000
405587.000000
406372.000000
407166.000000
407985.000000
408779.000000
409548.000000
410293.000000
411050.000000
411821.000000
412610.000000
413407.000000
414199.000000
415014.000000
415820.000000
416594.000000
417355.000000
418128.000000
418894.000000
419651.000000
420391.000000
421143.000000
421900.000000
422653.000000
423405.000000
424141.000000
424892.000000
425644.000000
426389.000000
427127.000000
427857.000000
428588.000000
429323.000000
430056.000000
430774.000000
431483.000000
432213.000000
432986.000000
433753.000000
434527.000000
435279.000000
436061.000000
436828.000000
437553.000000
438264.000000
438968.000000
439687.000000
440435.000000
441200.000000
441954.000000
442732.000000
443542.000000
444349.000000
445126.000000
445908.000000
446692.000000
447474.000000
448220.000000
448936.000000
449632.000000
450329.000000
451042.000000
451772.000000
452527.000000
453281.000000
454029.000000
454780.000000
455554.000000
456348.000000
457152.000000
457923.000000
458680.000000
459440.000000
460211.000000
460988.000000
461727.000000
462450.000000
463166.000000
463901.000000
464676.000000
465490.000000
466286.000000
467075.000000
467854.000000
468655.000000
469435.000000
470198.000000
470969.000000
471752.000000
472534.000000
473301.000000
474066.000000
474840.000000
475634.000000
476410.000000
477181.000000
477939.000000
478693.000000
479442.000000
480195.000000
480961.000000
481734.000000
482509.000000
483268.000000
484015.000000
484776.000000
485547.000000
486308.000000
487073.000000
487848.000000
488645.000000
489467.000000
490255.000000
491033.000000
491833.000000
492621.000000
493393.000000
494163.000000
494965.000000
495768.000000
496564.000000
497347.000000
498141.000000
498933.000000
499709.000000
500487.000000
501282.000000
502072.000000
502848.000000
503620.000000
504395.000000
505181.000000
505966.000000
506741.000000
507516.000000
508282.000000
509028.000000
509773.000000
510532.000000
511300.000000
512051.000000
512802.000000
513561.000000
514336.000000
515098.000000
515865.000000
516641.000000
517402.000000
518148.000000
518876.000000
519605.000000
520330.000000
521064.000000
521802.000000
522520.000000
523244.000000
523983.000000
524727.000000
525469.000000
526191.000000
526911.000000
527625.000000
528364.000000
529098.000000
529832.000000
530559.000000
531307.000000
532033.000000
532745.000000
533451.000000
534159.000000
534882.000000
535601.000000
536312.000000
537026.000000
537764.000000
538511.000000
539231.000000
539969.000000
540708.000000
541440.000000
542169.000000
542886.000000
543611.000000
544351.000000
545079.000000
545788.000000
546497.000000
547232.000000
547995.000000
548729.000000
549452.000000
550176.000000
550915.000000
551652.000000
552394.000000
553136.000000
553878.000000
554649.000000
555416.000000
556155.000000
556901.000000
557669.000000
558446.000000
559208.000000
559959.000000
560732.000000
561489.000000
562227.000000
562959.000000
563700.000000
564443.000000
565174.000000
565898.000000
566624.000000
567364.000000
568105.000000
568835.000000
569569.000000
570303.000000
571041.000000
571772.000000
572508.000000
573235.000000
573964.000000
574685.000000
575379.000000
576070.000000
576770.000000
577488.000000
578203.000000
578918.000000
579638.000000
580362.000000
581079.000000
581825.000000
582603.000000
583358.000000
584104.000000
584916.000000
585772.000000
586567.000000
587339.000000
588071.000000
588794.000000
589532.000000
590267.000000
591030.000000
591847.000000
592651.000000
593436.000000
594233.000000
595044.000000
595850.000000
596654.000000
597438.000000
598257.000000
599065.000000
599840.000000
600624.000000
601409.000000
602187.000000
602961.000000
603755.000000
604553.000000
605317.000000
606065.000000
606815.000000
607567.000000
608309.000000
609047.000000
609783.000000
610528.000000
611268.000000
612019.000000
612767.000000
613516.000000
614286.000000
615067.000000
615837.000000
616593.000000
617345.000000
618117.000000
618892.000000
619657.000000
620406.000000
621163.000000
621938.000000
622725.000000
623491.000000
624279.000000
625097.000000
625884.000000
626646.000000
627413.000000
628181.000000
628944.000000
629683.000000
630420.000000
631152.000000
631891.000000
632633.000000
633381.000000
634188.000000
634997.000000
635820.000000
636634.000000
637466.000000
638281.000000
639090.000000
639882.000000
640655.000000
641419.000000
642158.000000
642890.000000
643615.000000
644356.000000
645123.000000
645909.000000
646690.000000
647449.000000
648206.000000
648967.000000
649747.000000
650534.000000
651297.000000
652048.000000
652804.000000
653562.000000
654303.000000
655042.000000
655789.000000
656532.000000
657271.000000
658001.000000
658737.000000
659488.000000
660226.000000
660963.000000
661721.000000
662491.000000
663230.000000
663960.000000
664697.000000
665448.000000
666211.000000
666957.000000
667707.000000
668467.000000
669236.000000
669999.000000
670757.000000
671504.000000
672240.000000
672996.000000
673763.000000
674526.000000
675284.000000
676058.000000
676851.000000
677631.000000
678405.000000
679161.000000
679938.000000
680719.000000
681497.000000
682256.000000
683011.000000
683784.000000
684580.000000
685365.000000
686129.000000
686905.000000
687692.000000
688459.000000
689211.000000
689951.000000
690694.000000
691422.000000
692131.000000
692825.000000
693521.000000
694238.000000
694980.000000
695729.000000
696464.000000
697188.000000
697904.000000
698620.000000
699341.000000
700046.000000
700739.000000
701419.000000
702095.000000
702779.000000
703470.000000
704170.000000
704875.000000
705584.000000
706303.000000
707056.000000
707815.000000
708554.000000
709281.000000
710007.000000
710764.000000
711523.000000
712270.000000
713078.000000
713906.000000
714763.000000
715597.000000
716444.000000
717299.000000
718116.000000
718899.000000
719645.000000
720370.000000
721087.000000
721819.000000
722548.000000
723294.000000
724061.000000
724857.000000
725688.000000
726468.000000
727232.000000
727994.000000
728758.000000
729519.000000
730272.000000
731008.000000
731731.000000
732476.000000
733252.000000
734055.000000
734841.000000
735624.000000
736416.000000
737227.000000
738045.000000
738870.000000
739664.000000
740497.000000
741335.000000
742141.000000
742918.000000
743688.000000
744447.000000
745200.000000
745957.000000
746715.000000
747521.000000
748404.000000
749243.000000
750051.000000
750832.000000
751617.000000
752385.000000
753154.000000
753909.000000
754643.000000
755388.000000
756169.000000
756989.000000
757789.000000
758580.000000
759389.000000
760205.000000
761027.000000
761823.000000
762599.000000
763375.000000
764155.000000
764919.000000
765672.000000
766462.000000
767307.000000
768152.000000
768974.000000
769856.000000
770778.000000
771593.000000
772395.000000
773194.000000
773988.000000
774779.000000
775540.000000
776302.000000
777095.000000
777897.000000
778691.000000
779471.000000
780243.000000
781035.000000
781816.000000
782569.000000
783304.000000
784035.000000
784780.000000
785513.000000
786240.000000
786968.000000
787710.000000
788472.000000
789226.000000
789957.000000
790670.000000
791392.000000
792123.000000
792858.000000
793583.000000
794381.000000
795194.000000
795986.000000
796771.000000
797582.000000
798383.000000
799165.000000
799927.000000
800680.000000
801425.000000
802162.000000
802881.000000
803604.000000
804338.000000
805104.000000
805892.000000
806682.000000
807439.000000
808177.000000
808918.000000
809654.000000
810390.000000
811127.000000
811847.000000
812560.000000
813288.000000
814022.000000
814769.000000
815493.000000
816208.000000
816896.000000
817581.000000
818277.000000
818986.000000
819722.000000
820485.000000
821257.000000
822011.000000
822749.000000
823499.000000
824246.000000
824985.000000
825712.000000
826444.000000
827185.000000
827931.000000
828671.000000
829398.000000
830140.000000
830908.000000
831686.000000
832449.000000
833218.000000
834006.000000
834776.000000
835525.000000
836266.000000
837009.000000
837743.000000
838481.000000
839228.000000
839985.000000
840742.000000
841510.000000
842278.000000
843045.000000
843794.000000
844539.000000
845289.000000
846043.000000
846785.000000
847523.000000
848252.000000
848990.000000
849736.000000
850469.000000
851208.000000
851962.000000
852744.000000
853507.000000
854259.000000
855031.000000
855793.000000
856546.000000
857293.000000
858038.000000
858786.000000
859525.000000
860272.000000
861030.000000
861774.000000
862518.000000
863258.000000
864014.000000
864775.000000
865545.000000
866317.000000
867088.000000
867846.000000
868589.000000
869328.000000
870053.000000
870782.000000
871518.000000
872253.000000
872982.000000
873704.000000
874441.000000
875180.000000
875904.000000
876617.000000
877323.000000
878024.000000
878746.000000
879501.000000
880251.000000
880992.000000
881740.000000
882475.000000
883188.000000
883906.000000
884634.000000
885354.000000
886084.000000
886846.000000
887629.000000
888394.000000
889125.000000
889860.000000
890576.000000
891274.000000
891962.000000
892649.000000
893354.000000
894074.000000
894785.000000
895502.000000
896231.000000
896995.000000
897792.000000
898580.000000
899348.000000
