ECG (ms)
657.000000
1555.000000
2439.000000
3307.000000
4109.000000
4909.000000
5762.000000
6762.000000
7753.000000
8690.000000
9557.000000
10457.000000
11373.000000
12296.000000
13181.000000
14006.000000
14844.000000
15789.000000
16800.000000
17771.000000
18721.000000
19605.000000
20483.000000
21424.000000
22410.000000
23383.000000
24264.000000
25179.000000
26134.000000
27114.000000
28014.000000
28962.000000
29969.000000
30961.000000
31842.000000
32704.000000
33640.000000
34608.000000
35595.000000
36515.000000
37444.000000
38465.000000
39484.000000
40390.000000
41297.000000
42199.000000
43086.000000
43977.000000
44832.000000
45677.000000
46586.000000
47522.000000
48475.000000
49396.000000
50255.000000
51119.000000
52078.000000
53063.000000
53993.000000
54880.000000
55820.000000
56826.000000
57767.000000
58654.000000
59574.000000
60529.000000
61440.000000
62357.000000
63360.000000
64342.000000
65260.000000
66255.000000
67215.000000
68150.000000
69018.000000
69927.000000
70893.000000
71827.000000
72722.000000
73660.000000
74609.000000
75507.000000
76351.000000
77254.000000
78268.000000
79231.000000
80176.000000
81148.000000
82128.000000
83031.000000
83902.000000
84813.000000
85745.000000
86683.000000
87598.000000
88538.000000
89551.000000
90553.000000
91452.000000
92285.000000
93121.000000
93999.000000
94898.000000
95779.000000
96659.000000
97553.000000
98482.000000
99392.000000
100249.000000
101118.000000
102018.000000
102936.000000
103831.000000
104777.000000
105768.000000
106736.000000
107638.000000
108564.000000
109511.000000
110468.000000
111345.000000
112231.000000
113146.000000
114072.000000
114969.000000
115836.000000
116753.000000
117670.000000
118604.000000
119462.000000
120300.000000
121164.000000
122104.000000
123061.000000
123971.000000
124846.000000
125720.000000
126641.000000
127573.000000
128467.000000
129314.000000
130167.000000
131105.000000
132050.000000
133040.000000
133988.000000
134886.000000
135797.000000
136782.000000
137769.000000
138682.000000
139553.000000
140418.000000
141341.000000
142281.000000
143209.000000
144067.000000
144895.000000
145750.000000
146672.000000
147629.000000
148564.000000
149432.000000
150288.000000
151151.000000
152044.000000
152894.000000
153729.000000
154600.000000
155560.000000
156511.000000
157420.000000
158317.000000
159237.000000
160177.000000
161077.000000
161933.000000
162834.000000
163744.000000
164650.000000
165522.000000
166381.000000
167248.000000
168184.000000
169187.000000
170139.000000
171018.000000
171887.000000
172823.000000
173793.000000
174745.000000
175627.000000
176461.000000
177380.000000
178331.000000
179297.000000
180212.000000
181147.000000
182137.000000
183113.000000
184016.000000
184880.000000
185772.000000
186684.000000
187635.000000
188536.000000
189383.000000
190287.000000
191252.000000
192232.000000
193166.000000
194051.000000
194900.000000
195764.000000
196723.000000
197706.000000
198678.000000
199583.000000
200437.000000
201293.000000
202212.000000
203168.000000
204104.000000
204973.000000
205815.000000
206717.000000
207688.000000
208682.000000
209644.000000
210525.000000
211342.000000
212177.000000
213067.000000
213997.000000
214977.000000
215901.000000
216794.000000
217746.000000
218721.000000
219683.000000
220583.000000
221467.000000
222355.000000
223262.000000
224109.000000
224954.000000
225859.000000
226805.000000
227701.000000
228578.000000
229502.000000
230463.000000
231394.000000
232268.000000
233170.000000
234120.000000
235072.000000
235972.000000
236818.000000
237632.000000
238451.000000
239438.000000
240403.000000
241352.000000
242284.000000
243142.000000
243976.000000
244845.000000
245773.000000
246739.000000
247698.000000
248581.000000
249472.000000
250365.000000
251286.000000
252199.000000
253071.000000
253933.000000
254819.000000
255748.000000
256644.000000
257516.000000
258403.000000
259264.000000
260095.000000
260959.000000
261878.000000
262821.000000
263714.000000
264551.000000
265414.000000
266331.000000
267241.000000
268081.000000
268947.000000
269854.000000
270770.000000
271662.000000
272535.000000
273439.000000
274366.000000
275251.000000
276095.000000
277016.000000
277983.000000
278930.000000
279848.000000
280806.000000
281830.000000
282796.000000
283700.000000
284646.000000
285619.000000
286571.000000
287476.000000
288415.000000
289393.000000
290300.000000
291115.000000
291959.000000
292875.000000
293886.000000
294814.000000
295744.000000
296726.000000
297707.000000
298614.000000
299460.000000
300347.000000
301239.000000
302095.000000
302929.000000
303809.000000
304717.000000
305641.000000
306502.000000
307362.000000
308278.000000
309231.000000
310136.000000
311089.000000
312086.000000
313068.000000
313956.000000
314780.000000
315569.000000
316379.000000
317397.000000
318396.000000
319353.000000
320287.000000
321148.000000
321967.000000
322799.000000
323694.000000
324612.000000
325555.000000
326446.000000
327294.000000
328145.000000
328959.000000
329696.000000
330412.000000
331142.000000
331910.000000
332672.000000
333489.000000
334342.000000
335212.000000
336081.000000
336956.000000
337803.000000
338597.000000
339414.000000
340284.000000
341207.000000
342085.000000
342931.000000
343810.000000
344798.000000
345799.000000
346747.000000
347678.000000
348675.000000
349686.000000
350606.000000
351454.000000
352378.000000
353349.000000
354308.000000
355171.000000
356038.000000
356970.000000
357961.000000
358907.000000
359774.000000
360667.000000
361654.000000
362684.000000
363626.000000
364519.000000
365419.000000
366395.000000
367355.000000
368274.000000
369250.000000
370237.000000
371159.000000
372015.000000
372943.000000
373898.000000
374810.000000
375670.000000
376554.000000
377505.000000
378457.000000
379360.000000
380244.000000
381197.000000
382152.000000
383055.000000
383936.000000
384873.000000
385804.000000
386700.000000
387513.000000
388300.000000
389184.000000
390103.000000
391009.000000
391824.000000
392598.000000
393343.000000
394143.000000
394990.000000
395812.000000
396672.000000
397591.000000
398530.000000
399414.000000
400250.000000
401103.000000
402006.000000
402900.000000
403745.000000
404582.000000
405466.000000
406397.000000
407295.000000
408192.000000
409102.000000
410003.000000
410839.000000
411662.000000
412563.000000
413610.000000
414545.000000
415499.000000
416484.000000
417422.000000
418285.000000
419170.000000
420093.000000
420937.000000
421763.000000
422618.000000
423566.000000
424472.000000
425308.000000
426179.000000
427126.000000
428068.000000
428943.000000
429822.000000
430731.000000
431655.000000
432560.000000
433436.000000
434399.000000
435410.000000
436392.000000
437299.000000
438166.000000
439072.000000
440030.000000
441011.000000
441942.000000
442817.000000
443740.000000
444693.000000
445695.000000
446656.000000
447665.000000
448670.000000
449649.000000
450588.000000
451552.000000
452518.000000
453463.000000
454364.000000
455300.000000
456282.000000
457199.000000
458051.000000
458953.000000
459939.000000
460868.000000
461748.000000
462649.000000
463574.000000
464426.000000
465273.000000
466182.000000
467139.000000
468030.000000
468840.000000
469614.000000
470420.000000
471523.000000
472508.000000
473486.000000
474443.000000
475385.000000
476252.000000
477148.000000
478076.000000
479037.000000
479937.000000
480802.000000
481699.000000
482635.000000
483596.000000
484526.000000
485390.000000
486272.000000
487186.000000
488126.000000
489071.000000
489928.000000
490762.000000
491660.000000
492642.000000
493568.000000
494393.000000
495231.000000
496155.000000
497117.000000
498100.000000
499029.000000
499912.000000
500739.000000
501537.000000
502375.000000
503341.000000
504577.000000
505677.000000
506716.000000
507723.000000
508677.000000
509526.000000
510298.000000
511033.000000
511741.000000
512421.000000
513076.000000
513723.000000
514445.000000
515401.000000
516315.000000
517228.000000
518138.000000
519028.000000
519912.000000
520781.000000
521621.000000
522453.000000
523310.000000
524179.000000
525063.000000
525908.000000
526815.000000
527749.000000
528688.000000
529604.000000
530512.000000
531380.000000
532206.000000
533020.000000
533890.000000
534828.000000
535717.000000
536571.000000
537499.000000
538497.000000
539421.000000
540252.000000
541111.000000
542000.000000
542851.000000
543668.000000
544523.000000
545444.000000
546356.000000
547215.000000
548111.000000
549012.000000
549868.000000
550697.000000
551554.000000
552452.000000
553310.000000
554147.000000
555007.000000
555858.000000
556657.000000
557459.000000
558282.000000
559142.000000
559972.000000
560806.000000
561662.000000
562523.000000
563356.000000
564185.000000
565036.000000
565892.000000
566713.000000
567518.000000
568352.000000
569212.000000
570020.000000
570833.000000
571678.000000
572544.000000
573363.000000
574186.000000
575027.000000
575876.000000
576677.000000
577490.000000
578335.000000
579202.000000
580050.000000
580883.000000
581741.000000
582649.000000
583524.000000
584343.000000
585170.000000
586053.000000
586953.000000
587803.000000
588656.000000
589538.000000
590452.000000
591300.000000
592143.000000
593024.000000
593920.000000
594790.000000
595645.000000
596577.000000
597547.000000
598429.000000
599248.000000
600093.000000
600962.000000
601843.000000
602731.000000
603581.000000
604433.000000
605372.000000
606331.000000
607256.000000
608127.000000
608997.000000
609899.000000
610840.000000
611833.000000
612745.000000
613585.000000
614404.000000
615305.000000
616283.000000
617276.000000
618204.000000
619114.000000
620047.000000
621015.000000
621939.000000
622864.000000
623812.000000
624794.000000
625733.000000
626694.000000
627673.000000
628668.000000
629589.000000
630493.000000
631398.000000
632375.000000
633362.000000
634311.000000
635306.000000
636336.000000
637326.000000
638261.000000
639234.000000
640228.000000
641183.000000
642078.000000
643036.000000
644065.000000
645044.000000
645960.000000
646929.000000
647964.000000
648959.000000
649932.000000
650951.000000
651947.000000
652855.000000
653746.000000
654694.000000
655696.000000
656693.000000
657615.000000
658516.000000
659466.000000
660453.000000
661391.000000
662317.000000
663292.000000
664277.000000
665196.000000
666140.000000
667087.000000
668019.000000
668902.000000
669799.000000
670756.000000
671714.000000
672606.000000
673505.000000
674447.000000
675397.000000
676328.000000
677189.000000
678068.000000
678995.000000
679943.000000
680853.000000
681743.000000
682640.000000
683557.000000
684455.000000
685364.000000
686311.000000
687281.000000
688273.000000
689214.000000
690137.000000
691077.000000
692047.000000
692975.000000
693854.000000
694762.000000
695711.000000
696688.000000
697597.000000
698413.000000
699195.000000
700044.000000
701089.000000
702095.000000
703085.000000
704044.000000
704982.000000
705907.000000
706823.000000
707732.000000
708665.000000
709607.000000
710571.000000
711482.000000
712357.000000
713229.000000
714087.000000
714912.000000
715767.000000
716668.000000
717604.000000
718481.000000
719274.000000
720033.000000
720780.000000
721537.000000
722369.000000
723261.000000
724159.000000
725055.000000
725928.000000
726819.000000
727721.000000
728651.000000
729551.000000
730376.000000
731183.000000
732058.000000
733003.000000
733934.000000
734878.000000
735806.000000
736685.000000
737511.000000
738341.000000
739219.000000
740138.000000
741074.000000
741967.000000
742859.000000
743772.000000
744698.000000
745570.000000
746445.000000
747351.000000
748283.000000
749220.000000
750096.000000
751032.000000
751991.000000
752942.000000
753858.000000
754778.000000
755727.000000
756697.000000
757562.000000
758390.000000
759283.000000
760272.000000
761235.000000
762126.000000
763039.000000
764014.000000
765060.000000
766064.000000
767048.000000
768065.000000
769106.000000
770105.000000
771027.000000
772015.000000
773055.000000
774072.000000
775031.000000
776007.000000
777011.000000
777983.000000
778819.000000
779651.000000
780544.000000
781574.000000
782567.000000
783451.000000
784408.000000
785427.000000
786468.000000
787435.000000
788293.000000
789134.000000
790065.000000
791060.000000
792023.000000
792902.000000
793786.000000
794731.000000
795727.000000
796691.000000
797667.000000
798669.000000
799668.000000
800588.000000
801440.000000
802234.000000
802996.000000
803760.000000
804628.000000
805822.000000
806881.000000
807923.000000
808979.000000
809980.000000
810953.000000
811909.000000
812837.000000
813753.000000
814657.000000
815561.000000
816490.000000
817432.000000
818369.000000
819234.000000
820087.000000
820964.000000
821892.000000
822799.000000
823687.000000
824592.000000
825603.000000
826600.000000
827475.000000
828341.000000
829286.000000
830243.000000
831114.000000
831988.000000
832928.000000
833842.000000
834702.000000
835612.000000
836556.000000
837454.000000
838306.000000
839186.000000
840076.000000
840951.000000
841813.000000
842707.000000
843639.000000
844506.000000
845367.000000
846259.000000
847164.000000
848050.000000
848872.000000
849703.000000
850540.000000
851420.000000
852288.000000
853142.000000
854030.000000
854940.000000
855829.000000
856703.000000
857607.000000
858506.000000
859320.000000
860121.000000
860986.000000
861926.000000
862862.000000
863740.000000
864630.000000
865555.000000
866479.000000
867371.000000
868305.000000
869278.000000
870255.000000
871144.000000
871997.000000
872933.000000
873958.000000
874963.000000
875890.000000
876826.000000
877792.000000
878780.000000
879674.000000
880533.000000
881435.000000
882395.000000
883352.000000
884256.000000
885146.000000
886127.000000
887164.000000
888147.000000
889079.000000
890020.000000
890931.000000
891783.000000
892613.000000
893523.000000
894553.000000
895581.000000
896490.000000
897335.000000
898151.000000
898919.000000
899696.000000
900844.000000
