ECG (ms)
455.000000
1238.000000
2027.000000
2822.000000
3613.000000
4445.000000
5306.000000
6146.000000
7032.000000
7895.000000
8729.000000
9580.000000
10425.000000
11231.000000
12055.000000
12880.000000
13676.000000
14472.000000
15285.000000
16070.000000
16822.000000
17599.000000
18422.000000
19236.000000
20031.000000
20838.000000
21628.000000
22383.000000
23147.000000
23929.000000
24702.000000
25468.000000
26257.000000
27048.000000
27841.000000
28656.000000
29483.000000
30283.000000
31090.000000
31894.000000
32675.000000
33439.000000
34207.000000
34972.000000
35722.000000
36483.000000
37252.000000
38021.000000
38806.000000
39606.000000
40395.000000
41200.000000
42024.000000
42824.000000
43638.000000
44462.000000
45268.000000
46067.000000
46891.000000
47731.000000
48539.000000
49368.000000
50201.000000
51003.000000
51819.000000
52660.000000
53513.000000
54357.000000
55256.000000
56151.000000
57013.000000
57908.000000
58786.000000
59616.000000
60459.000000
61318.000000
62141.000000
63004.000000
63894.000000
64753.000000
65629.000000
66516.000000
67364.000000
68220.000000
69088.000000
69964.000000
70854.000000
71749.000000
72578.000000
73408.000000
74242.000000
75087.000000
75908.000000
76734.000000
77546.000000
78339.000000
79149.000000
79960.000000
80769.000000
81589.000000
82436.000000
83273.000000
84091.000000
84916.000000
85723.000000
86514.000000
87320.000000
88113.000000
88903.000000
89711.000000
90525.000000
91310.000000
92109.000000
92929.000000
93717.000000
94514.000000
95314.000000
96099.000000
96910.000000
97735.000000
98537.000000
99319.000000
100123.000000
100918.000000
101690.000000
102480.000000
103293.000000
104106.000000
104893.000000
105681.000000
106461.000000
107250.000000
108043.000000
108846.000000
109642.000000
110454.000000
111257.000000
112033.000000
112813.000000
113600.000000
114373.000000
115142.000000
115883.000000
116620.000000
117348.000000
118052.000000
118776.000000
119528.000000
120276.000000
121057.000000
121891.000000
122708.000000
123554.000000
124420.000000
125246.000000
126049.000000
126860.000000
127667.000000
128450.000000
129233.000000
130031.000000
130825.000000
131634.000000
132510.000000
133368.000000
134189.000000
134991.000000
135802.000000
136630.000000
137427.000000
138203.000000
138997.000000
139786.000000
140566.000000
141362.000000
142177.000000
142979.000000
143780.000000
144581.000000
145420.000000
146256.000000
147113.000000
147981.000000
148804.000000
149642.000000
150513.000000
151327.000000
152156.000000
152993.000000
153806.000000
154623.000000
155464.000000
156285.000000
157093.000000
157927.000000
158748.000000
159538.000000
160349.000000
161180.000000
161981.000000
162786.000000
163602.000000
164415.000000
165233.000000
166066.000000
166889.000000
167712.000000
168548.000000
169377.000000
170182.000000
171006.000000
171833.000000
172644.000000
173471.000000
174296.000000
175106.000000
175928.000000
176779.000000
177613.000000
178440.000000
179281.000000
180124.000000
180943.000000
181779.000000
182612.000000
183422.000000
184264.000000
185108.000000
185934.000000
186779.000000
187622.000000
188449.000000
189300.000000
190156.000000
190982.000000
191837.000000
192698.000000
193535.000000
194387.000000
195229.000000
196050.000000
196879.000000
197715.000000
198534.000000
199379.000000
200267.000000
201150.000000
202035.000000
202930.000000
203807.000000
204667.000000
205543.000000
206423.000000
207266.000000
208132.000000
209003.000000
209838.000000
210689.000000
211549.000000
212429.000000
213312.000000
214220.000000
215078.000000
215953.000000
216835.000000
217704.000000
218529.000000
219361.000000
220199.000000
221014.000000
221835.000000
222692.000000
223536.000000
224405.000000
225332.000000
226193.000000
227048.000000
227926.000000
228858.000000
229775.000000
230724.000000
231657.000000
232523.000000
233431.000000
234382.000000
235290.000000
236174.000000
237035.000000
237918.000000
238817.000000
239681.000000
240499.000000
241329.000000
242155.000000
243005.000000
243853.000000
244683.000000
245515.000000
246341.000000
247141.000000
247967.000000
248799.000000
249619.000000
250462.000000
251297.000000
252091.000000
252899.000000
253742.000000
254580.000000
255435.000000
256342.000000
257238.000000
258133.000000
259060.000000
259979.000000
260872.000000
261757.000000
262596.000000
263449.000000
264336.000000
265195.000000
266076.000000
266974.000000
267877.000000
268779.000000
269704.000000
270607.000000
271502.000000
272392.000000
273256.000000
274128.000000
275003.000000
275869.000000
276724.000000
277592.000000
278494.000000
279347.000000
280212.000000
281086.000000
281931.000000
282769.000000
283635.000000
284516.000000
285351.000000
286202.000000
287053.000000
287881.000000
288724.000000
289580.000000
290418.000000
291254.000000
292090.000000
292972.000000
293798.000000
294617.000000
295463.000000
296324.000000
297144.000000
298001.000000
298903.000000
299798.000000
300692.000000
301600.000000
302465.000000
303291.000000
304113.000000
304945.000000
305750.000000
306580.000000
307440.000000
308306.000000
309215.000000
310183.000000
311124.000000
312046.000000
313054.000000
314096.000000
315019.000000
315912.000000
316795.000000
317609.000000
318424.000000
319234.000000
320029.000000
320810.000000
321610.000000
322436.000000
323244.000000
324091.000000
324946.000000
325786.000000
326641.000000
327488.000000
328303.000000
329125.000000
329956.000000
330770.000000
331564.000000
332392.000000
333234.000000
334045.000000
334891.000000
335732.000000
336555.000000
337409.000000
338249.000000
339063.000000
339886.000000
340726.000000
341543.000000
342370.000000
343224.000000
344042.000000
344853.000000
345700.000000
346568.000000
347395.000000
348245.000000
349114.000000
349931.000000
350726.000000
351518.000000
352284.000000
353032.000000
353780.000000
354531.000000
355265.000000
356090.000000
356962.000000
357798.000000
358726.000000
359621.000000
360482.000000
361379.000000
362258.000000
363112.000000
363991.000000
364849.000000
365656.000000
366477.000000
367306.000000
368109.000000
368944.000000
369780.000000
370588.000000
371421.000000
372264.000000
373082.000000
373899.000000
374740.000000
375576.000000
376380.000000
377198.000000
378026.000000
378817.000000
379619.000000
380426.000000
381227.000000
382042.000000
382877.000000
383701.000000
384520.000000
385353.000000
386185.000000
386993.000000
387827.000000
388664.000000
389469.000000
390287.000000
391114.000000
391923.000000
392732.000000
393550.000000
394363.000000
395175.000000
395997.000000
396848.000000
397669.000000
398506.000000
399365.000000
400208.000000
401031.000000
401858.000000
402682.000000
403508.000000
404391.000000
405243.000000
406068.000000
406933.000000
407811.000000
408659.000000
409539.000000
410416.000000
411253.000000
412122.000000
413014.000000
413860.000000
414730.000000
415577.000000
416407.000000
417281.000000
418157.000000
419013.000000
419875.000000
420719.000000
421550.000000
422389.000000
423231.000000
424067.000000
424918.000000
425817.000000
426702.000000
427633.000000
428528.000000
429384.000000
430262.000000
431116.000000
431941.000000
432787.000000
433664.000000
434500.000000
435357.000000
436241.000000
437097.000000
437979.000000
438910.000000
439857.000000
440810.000000
441727.000000
442590.000000
443468.000000
444349.000000
445201.000000
446094.000000
447016.000000
447894.000000
448810.000000
449737.000000
450622.000000
451525.000000
452450.000000
453345.000000
454243.000000
455158.000000
456064.000000
456958.000000
457893.000000
458865.000000
459782.000000
460722.000000
461657.000000
462537.000000
463421.000000
464270.000000
465071.000000
465860.000000
466652.000000
467474.000000
468361.000000
469205.000000
470115.000000
471051.000000
471954.000000
472825.000000
473757.000000
474622.000000
475478.000000
476357.000000
477247.000000
478109.000000
478950.000000
479743.000000
480505.000000
481259.000000
481983.000000
482685.000000
483404.000000
484204.000000
485044.000000
485926.000000
486799.000000
487627.000000
488417.000000
489212.000000
490011.000000
490800.000000
491580.000000
492398.000000
493241.000000
494057.000000
494901.000000
495766.000000
496582.000000
497402.000000
498232.000000
499133.000000
500060.000000
500977.000000
501803.000000
502628.000000
503455.000000
504292.000000
505094.000000
505910.000000
506756.000000
507587.000000
508436.000000
509355.000000
510273.000000
511140.000000
512066.000000
513136.000000
514085.000000
514922.000000
515759.000000
516609.000000
517432.000000
518253.000000
519126.000000
520014.000000
520865.000000
521745.000000
522594.000000
523411.000000
524206.000000
524984.000000
525762.000000
526528.000000
527299.000000
528083.000000
528849.000000
529637.000000
530439.000000
531232.000000
532047.000000
532910.000000
533736.000000
534530.000000
535324.000000
536121.000000
536890.000000
537662.000000
538445.000000
539242.000000
540023.000000
540842.000000
541724.000000
542567.000000
543446.000000
544347.000000
545228.000000
546075.000000
546950.000000
547840.000000
548694.000000
549568.000000
550453.000000
551304.000000
552158.000000
553043.000000
553930.000000
554901.000000
555883.000000
556806.000000
557790.000000
558730.000000
559624.000000
560504.000000
561395.000000
562240.000000
563098.000000
563949.000000
564777.000000
565630.000000
566490.000000
567342.000000
568179.000000
569061.000000
569959.000000
570810.000000
571702.000000
572579.000000
573413.000000
574220.000000
574997.000000
575742.000000
576463.000000
577229.000000
578060.000000
578870.000000
579711.000000
580592.000000
581487.000000
582281.000000
583036.000000
583790.000000
584574.000000
585382.000000
586189.000000
586984.000000
587738.000000
588463.000000
589179.000000
589911.000000
590687.000000
591481.000000
592275.000000
593076.000000
593880.000000
594694.000000
595477.000000
596272.000000
597089.000000
597904.000000
598693.000000
599501.000000
600303.000000
601098.000000
601920.000000
602744.000000
603565.000000
604416.000000
605295.000000
606172.000000
607027.000000
607877.000000
608713.000000
609517.000000
610344.000000
611180.000000
611994.000000
612842.000000
613691.000000
614519.000000
615356.000000
616223.000000
617079.000000
617930.000000
618812.000000
619701.000000
620567.000000
621465.000000
622338.000000
623181.000000
624028.000000
624866.000000
625689.000000
626512.000000
627356.000000
628202.000000
629020.000000
629880.000000
630722.000000
631541.000000
632378.000000
633218.000000
634048.000000
634853.000000
635673.000000
636498.000000
637304.000000
638085.000000
638844.000000
639580.000000
640297.000000
641035.000000
641807.000000
642590.000000
643461.000000
644363.000000
645235.000000
646112.000000
646996.000000
647847.000000
648666.000000
649492.000000
650324.000000
651165.000000
651993.000000
652847.000000
653747.000000
654603.000000
655459.000000
656320.000000
657210.000000
658089.000000
658993.000000
659922.000000
660805.000000
661694.000000
662588.000000
663449.000000
664285.000000
665113.000000
665938.000000
666753.000000
667518.000000
668292.000000
669109.000000
669996.000000
670962.000000
671953.000000
673023.000000
674072.000000
674991.000000
675903.000000
676779.000000
677652.000000
678552.000000
679441.000000
680259.000000
681080.000000
681901.000000
682710.000000
683549.000000
684405.000000
685260.000000
686203.000000
687160.000000
688082.000000
689032.000000
689987.000000
690857.000000
691729.000000
692592.000000
693430.000000
694287.000000
695175.000000
696053.000000
696930.000000
697793.000000
698611.000000
699438.000000
700267.000000
701079.000000
701943.000000
702819.000000
703691.000000
704596.000000
705514.000000
706387.000000
707271.000000
708196.000000
709096.000000
709962.000000
710854.000000
711733.000000
712546.000000
713383.000000
714249.000000
715091.000000
715999.000000
716982.000000
717891.000000
718757.000000
719602.000000
720428.000000
721223.000000
722047.000000
722918.000000
723796.000000
724625.000000
725464.000000
726334.000000
727171.000000
728028.000000
728951.000000
729852.000000
730687.000000
731537.000000
732375.000000
733164.000000
733927.000000
734668.000000
735375.000000
736066.000000
736783.000000
737546.000000
738321.000000
739088.000000
739894.000000
740736.000000
741567.000000
742410.000000
743299.000000
744170.000000
745017.000000
745885.000000
746728.000000
747540.000000
748368.000000
749197.000000
750020.000000
750846.000000
751683.000000
752529.000000
753371.000000
754221.000000
755077.000000
755922.000000
756782.000000
757618.000000
758431.000000
759270.000000
760124.000000
760973.000000
761877.000000
762813.000000
763699.000000
764632.000000
765577.000000
766446.000000
767330.000000
768203.000000
769065.000000
769965.000000
770851.000000
771690.000000
772550.000000
773415.000000
774251.000000
775112.000000
775981.000000
776833.000000
777687.000000
778558.000000
779392.000000
780203.000000
781005.000000
781824.000000
782622.000000
783408.000000
784199.000000
784949.000000
785668.000000
786401.000000
787175.000000
787931.000000
788710.000000
789496.000000
790282.000000
791073.000000
791900.000000
792716.000000
793504.000000
794295.000000
795086.000000
795857.000000
796632.000000
797431.000000
798232.000000
799014.000000
799817.000000
800656.000000
801458.000000
802261.000000
803087.000000
803932.000000
804749.000000
805578.000000
806414.000000
807232.000000
808067.000000
808911.000000
809737.000000
810547.000000
811399.000000
812232.000000
813062.000000
813894.000000
814751.000000
815584.000000
816421.000000
817257.000000
818097.000000
818904.000000
819742.000000
820608.000000
821488.000000
822352.000000
823227.000000
824090.000000
824938.000000
825805.000000
826700.000000
827559.000000
828433.000000
829294.000000
830134.000000
830977.000000
831848.000000
832728.000000
833590.000000
834467.000000
835355.000000
836214.000000
837067.000000
837930.000000
838808.000000
839656.000000
840505.000000
841378.000000
842227.000000
843089.000000
843979.000000
844878.000000
845726.000000
846588.000000
847465.000000
848345.000000
849202.000000
850078.000000
850964.000000
851847.000000
852703.000000
853554.000000
854428.000000
855296.000000
856132.000000
856996.000000
857878.000000
858727.000000
859615.000000
860493.000000
861340.000000
862206.000000
863086.000000
863942.000000
864796.000000
865681.000000
866532.000000
867349.000000
868172.000000
868994.000000
869818.000000
870638.000000
871488.000000
872354.000000
873268.000000
874138.000000
875007.000000
875804.000000
876579.000000
877344.000000
878088.000000
878815.000000
879591.000000
880409.000000
881250.000000
882053.000000
882853.000000
883634.000000
884376.000000
885090.000000
885795.000000
886496.000000
887190.000000
887917.000000
888683.000000
889471.000000
890308.000000
891163.000000
892059.000000
892935.000000
893772.000000
894617.000000
895437.000000
896234.000000
897038.000000
897853.000000
898676.000000
899473.000000
900289.000000
901116.000000
901978.000000
902857.000000
903705.000000
904533.000000
905334.000000
906123.000000
906922.000000
907731.000000
908538.000000
909376.000000
910213.000000
911023.000000
911866.000000
912728.000000
913562.000000
914400.000000
915260.000000
916180.000000
917046.000000
917938.000000
918828.000000
919783.000000
920714.000000
921559.000000
922400.000000
923219.000000
923991.000000
924738.000000
925462.000000
926166.000000
926865.000000
927610.000000
928404.000000
929312.000000
930192.000000
931051.000000
931861.000000
932627.000000
933357.000000
934060.000000
934743.000000
935408.000000
936059.000000
936697.000000
937339.000000
938079.000000
939027.000000
939838.000000
940646.000000
941408.000000
942193.000000
943044.000000
943910.000000
944704.000000
945528.000000
946355.000000
947178.000000
947971.000000
948747.000000
949542.000000
950346.000000
951137.000000
951936.000000
952746.000000
953573.000000
954386.000000
955237.000000
956126.000000
956974.000000
957825.000000
958665.000000
959497.000000
960297.000000
961093.000000
961881.000000
962668.000000
963458.000000
964275.000000
965055.000000
965851.000000
966656.000000
967491.000000
968293.000000
969140.000000
969997.000000
970842.000000
971681.000000
972535.000000
973357.000000
974160.000000
974982.000000
975797.000000
976600.000000
977439.000000
978301.000000
979125.000000
979950.000000
980791.000000
981629.000000
982433.000000
983268.000000
984117.000000
984937.000000
985764.000000
986596.000000
987408.000000
988230.000000
989054.000000
989867.000000
990666.000000
991467.000000
992286.000000
993094.000000
993912.000000
994748.000000
995557.000000
996375.000000
997193.000000
997991.000000
998786.000000
999577.000000
1000360.000000
1001136.000000
1001916.000000
1002713.000000
1003508.000000
1004317.000000
1005116.000000
1005895.000000
1006683.000000
1007477.000000
1008270.000000
1009050.000000
1009853.000000
1010677.000000
1011491.000000
1012310.000000
1013146.000000
1013960.000000
1014790.000000
1015633.000000
1016460.000000
1017289.000000
1018148.000000
1019021.000000
1019870.000000
1020730.000000
1021579.000000
1022407.000000
1023225.000000
1024051.000000
1024888.000000
1025710.000000
1026530.000000
1027388.000000
1028283.000000
1029165.000000
1030016.000000
1030867.000000
1031714.000000
1032550.000000
1033405.000000
1034255.000000
1035091.000000
1035905.000000
1036716.000000
1037546.000000
1038410.000000
1039251.000000
1040087.000000
1040977.000000
1041889.000000
1042784.000000
1043686.000000
1044599.000000
1045453.000000
1046310.000000
1047090.000000
1047831.000000
1048546.000000
1049232.000000
1049944.000000
1050729.000000
1051613.000000
1052496.000000
1053435.000000
1054491.000000
1055421.000000
1056293.000000
1057214.000000
1058080.000000
1058896.000000
1059719.000000
1060632.000000
1061548.000000
1062481.000000
1063363.000000
1064192.000000
1064984.000000
1065753.000000
1066519.000000
1067286.000000
1068027.000000
1068730.000000
1069413.000000
1070086.000000
1070741.000000
1071383.000000
1072026.000000
1072792.000000
1074067.000000
1075151.000000
1076271.000000
1077203.000000
1078060.000000
1078862.000000
1079620.000000
1080387.000000
1081236.000000
1082130.000000
1083075.000000
1084005.000000
1084939.000000
1085840.000000
1086700.000000
1087568.000000
1088438.000000
1089301.000000
1090156.000000
1090982.000000
1091870.000000
1092798.000000
1093726.000000
1094626.000000
1095569.000000
1096467.000000
1097381.000000
1098297.000000
1099235.000000
1100148.000000
1101088.000000
1101967.000000
1102805.000000
1103656.000000
1104491.000000
1105319.000000
1106148.000000
1106998.000000
1107905.000000
1108777.000000
1109646.000000
1110516.000000
1111378.000000
1112202.000000
1113032.000000
1113884.000000
1114728.000000
1115556.000000
1116402.000000
1117274.000000
1118130.000000
1118970.000000
1119826.000000
1120678.000000
1121517.000000
1122360.000000
1123235.000000
1124105.000000
1124916.000000
1125752.000000
1126608.000000
1127452.000000
1128320.000000
1129173.000000
1130022.000000
1130851.000000
1131688.000000
1132519.000000
1133373.000000
1134200.000000
1135061.000000
1135914.000000
1136740.000000
1137572.000000
1138395.000000
1139188.000000
1139984.000000
1140780.000000
1141551.000000
1142313.000000
1143057.000000
1143781.000000
1144492.000000
1145187.000000
1145872.000000
1146567.000000
1147271.000000
1147983.000000
1148710.000000
1149444.000000
1150175.000000
1150908.000000
1151675.000000
1152457.000000
1153226.000000
1154010.000000
1154804.000000
1155624.000000
1156437.000000
1157270.000000
1158120.000000
1158924.000000
1159685.000000
1160405.000000
1161098.000000
1161773.000000
1162426.000000
1163065.000000
1163698.000000
1164389.000000
1165170.000000
1166023.000000
1166782.000000
1167597.000000
1168577.000000
1169527.000000
1170391.000000
1171284.000000
1172193.000000
1173118.000000
1173992.000000
1174893.000000
1175798.000000
1176656.000000
1177497.000000
1178367.000000
1179248.000000
1180085.000000
1180959.000000
1181861.000000
1182755.000000
1183585.000000
1184454.000000
1185345.000000
1186218.000000
1187071.000000
1187897.000000
1188723.000000
1189539.000000
1190355.000000
1191186.000000
1191980.000000
1192794.000000
1193616.000000
1194423.000000
1195267.000000
1196130.000000
1196974.000000
1197792.000000
1198612.000000
1199418.000000
1200189.000000
1200978.000000
1201777.000000
1202574.000000
1203399.000000
1204234.000000
1205087.000000
1205923.000000
1206784.000000
1207642.000000
1208464.000000
1209303.000000
1210125.000000
1210938.000000
1211735.000000
1212564.000000
1213377.000000
1214174.000000
1214996.000000
1215871.000000
1216729.000000
1217588.000000
1218442.000000
1219258.000000
1220088.000000
1220937.000000
1221764.000000
1222607.000000
1223452.000000
1224286.000000
1225109.000000
1225939.000000
1226750.000000
1227544.000000
1228357.000000
1229189.000000
1229983.000000
1230766.000000
1231543.000000
1232299.000000
1233047.000000
1233784.000000
1234494.000000
1235190.000000
1235867.000000
1236532.000000
1237193.000000
1237889.000000
1238598.000000
1239315.000000
1240087.000000
1240927.000000
1241710.000000
1242508.000000
1243311.000000
1244116.000000
1244893.000000
1245685.000000
1246484.000000
1247265.000000
1248035.000000
1248823.000000
1249613.000000
1250386.000000
1251185.000000
1251987.000000
1252813.000000
1253626.000000
1254472.000000
1255349.000000
1256190.000000
1257034.000000
1257872.000000
1258685.000000
1259503.000000
1260301.000000
1261084.000000
1261847.000000
1262619.000000
1263420.000000
1264228.000000
1265035.000000
1265876.000000
1266723.000000
1267565.000000
1268442.000000
1269352.000000
1270290.000000
1271161.000000
1272001.000000
1272824.000000
1273611.000000
1274384.000000
1275164.000000
1275962.000000
1276736.000000
1277500.000000
1278267.000000
1279056.000000
1279833.000000
1280618.000000
1281391.000000
1282129.000000
1282843.000000
1283532.000000
1284200.000000
1284866.000000
1285574.000000
1286336.000000
1287107.000000
1287858.000000
1288612.000000
1289342.000000
1290050.000000
1290767.000000
1291504.000000
1292230.000000
1292963.000000
1293726.000000
1294485.000000
1295245.000000
1296038.000000
1296899.000000
1297753.000000
1298613.000000
1299487.000000
1300324.000000
1301164.000000
1302019.000000
1302875.000000
1303721.000000
1304564.000000
1305378.000000
1306166.000000
1306952.000000
1307732.000000
1308518.000000
1309344.000000
1310180.000000
1311017.000000
1311868.000000
1312707.000000
1313516.000000
1314335.000000
1315180.000000
1315986.000000
1316795.000000
1317606.000000
1318405.000000
1319180.000000
1319972.000000
1320766.000000
1321560.000000
1322360.000000
1323181.000000
1323984.000000
1324788.000000
1325629.000000
1326456.000000
1327257.000000
1328059.000000
1328882.000000
1329690.000000
1330483.000000
1331295.000000
1332117.000000
1332916.000000
1333737.000000
1334596.000000
1335430.000000
1336287.000000
1337141.000000
1337971.000000
1338810.000000
1339659.000000
1340496.000000
1341337.000000
1342173.000000
1342981.000000
1343812.000000
1344649.000000
1345456.000000
1346285.000000
1347123.000000
1347924.000000
1348735.000000
1349546.000000
1350354.000000
1351185.000000
1352038.000000
1352889.000000
1353766.000000
1354652.000000
1355499.000000
1356380.000000
1357269.000000
1358139.000000
1359053.000000
1359953.000000
1360811.000000
1361665.000000
1362504.000000
1363315.000000
1364147.000000
1364978.000000
1365782.000000
1366614.000000
1367471.000000
1368277.000000
1369093.000000
1369949.000000
1370787.000000
1371649.000000
1372514.000000
1373351.000000
1374174.000000
1374994.000000
1375820.000000
1376603.000000
1377381.000000
1378168.000000
1378961.000000
1379742.000000
1380544.000000
1381389.000000
1382241.000000
1383075.000000
1383945.000000
1384783.000000
1385584.000000
1386364.000000
1387113.000000
1387840.000000
1388543.000000
1389235.000000
1389939.000000
1390651.000000
1391368.000000
1392089.000000
1392808.000000
1393545.000000
1394295.000000
1395049.000000
1395784.000000
1396485.000000
1397161.000000
1397828.000000
1398475.000000
1399108.000000
1399731.000000
1400349.000000
1400961.000000
1401571.000000
1402197.000000
1403097.000000
1403996.000000
1404832.000000
1405605.000000
1406400.000000
1407256.000000
1408172.000000
1409092.000000
1410024.000000
1410930.000000
1411750.000000
1412565.000000
1413372.000000
1414177.000000
1414968.000000
1415745.000000
1416517.000000
1417356.000000
1418240.000000
1419121.000000
1419986.000000
1420891.000000
1421804.000000
1422712.000000
1423580.000000
1424423.000000
1425236.000000
1426030.000000
1426861.000000
1427706.000000
1428537.000000
1429345.000000
1430165.000000
1430996.000000
1431810.000000
1432657.000000
1433500.000000
1434318.000000
1435139.000000
1435959.000000
1436799.000000
1437603.000000
1438386.000000
1439175.000000
1439969.000000
1440815.000000
1441631.000000
1442450.000000
1443325.000000
1444169.000000
1444988.000000
1445821.000000
1446696.000000
1447526.000000
1448381.000000
1449248.000000
1450090.000000
1451000.000000
1451915.000000
1452773.000000
1453595.000000
1454410.000000
1455237.000000
1456043.000000
1456869.000000
1457699.000000
1458506.000000
1459303.000000
1460101.000000
1460903.000000
1461740.000000
1462645.000000
1463528.000000
1464360.000000
1465209.000000
1466059.000000
1466882.000000
1467711.000000
1468540.000000
1469352.000000
1470122.000000
1470887.000000
1471652.000000
1472414.000000
1473165.000000
1473918.000000
1474734.000000
1475577.000000
1476423.000000
1477255.000000
1478060.000000
1478833.000000
1479647.000000
1480450.000000
1481234.000000
1482038.000000
1482867.000000
1483679.000000
1484516.000000
1485375.000000
1486186.000000
1486979.000000
1487771.000000
1488551.000000
1489323.000000
1490120.000000
1490938.000000
1491781.000000
1492569.000000
1493365.000000
1494162.000000
1494942.000000
1495722.000000
1496509.000000
1497351.000000
1498179.000000
1499011.000000
1499849.000000
1500656.000000
1501445.000000
1502231.000000
1503026.000000
1503835.000000
1504705.000000
1505738.000000
1506820.000000
1507720.000000
1508588.000000
1509438.000000
1510269.000000
1511120.000000
1511982.000000
1512857.000000
1513688.000000
1514551.000000
1515501.000000
1516443.000000
1517347.000000
1518262.000000
1519136.000000
1519991.000000
1520885.000000
1521743.000000
1522574.000000
1523419.000000
1524293.000000
1525153.000000
1525984.000000
1526806.000000
1527605.000000
1528391.000000
1529188.000000
1530001.000000
1530822.000000
1531629.000000
1532430.000000
1533220.000000
1533973.000000
1534715.000000
1535496.000000
1536307.000000
1537193.000000
1538105.000000
1538979.000000
1539856.000000
1540754.000000
1541621.000000
1542461.000000
1543285.000000
1544089.000000
1544868.000000
1545624.000000
1546402.000000
1547212.000000
1548011.000000
1548810.000000
1549664.000000
1550507.000000
1551330.000000
1552189.000000
1553106.000000
1553954.000000
1554803.000000
1555635.000000
1556419.000000
1557202.000000
1558025.000000
1558826.000000
1559607.000000
1560391.000000
1561202.000000
1561991.000000
1562783.000000
1563589.000000
1564402.000000
1565226.000000
1566102.000000
1566989.000000
1567793.000000
1568603.000000
1569417.000000
1570205.000000
1570986.000000
1571762.000000
1572518.000000
1573251.000000
1573958.000000
1574651.000000
1575336.000000
1576025.000000
1576740.000000
1577520.000000
1578296.000000
1579075.000000
1579884.000000
1580698.000000
1581510.000000
1582348.000000
1583195.000000
1584018.000000
1584838.000000
1585658.000000
1586458.000000
1587259.000000
1588063.000000
1588873.000000
1589681.000000
1590501.000000
1591332.000000
1592154.000000
1593000.000000
1593843.000000
1594670.000000
1595517.000000
1596407.000000
1597251.000000
1598112.000000
1598960.000000
1599827.000000
1600678.000000
1601526.000000
1602364.000000
1603195.000000
1604068.000000
1604966.000000
1605833.000000
1606748.000000
1607647.000000
1608498.000000
1609388.000000
1610286.000000
1611157.000000
1612058.000000
1612959.000000
1613842.000000
1614752.000000
1615645.000000
1616517.000000
1617386.000000
1618259.000000
1619089.000000
1619923.000000
1620755.000000
1621566.000000
1622381.000000
1623185.000000
1623998.000000
1624805.000000
1625597.000000
1626385.000000
1627180.000000
1627943.000000
1628700.000000
1629455.000000
1630208.000000
1630966.000000
1631740.000000
1632532.000000
1633307.000000
1634107.000000
1634920.000000
1635713.000000
1636527.000000
1637337.000000
1638144.000000
1638940.000000
1639738.000000
1640548.000000
1641350.000000
1642175.000000
1643016.000000
1643843.000000
1644693.000000
1645535.000000
1646364.000000
1647194.000000
1648037.000000
1648872.000000
1649659.000000
1650477.000000
1651292.000000
1652110.000000
1652910.000000
1653743.000000
1654580.000000
1655429.000000
1656270.000000
1657077.000000
1657889.000000
1658687.000000
1659452.000000
1660220.000000
1660953.000000
1661664.000000
1662396.000000
1663151.000000
1663905.000000
1664625.000000
1665359.000000
1666166.000000
1667035.000000
1667890.000000
1668760.000000
1669672.000000
1670529.000000
1671352.000000
1672173.000000
1672990.000000
1673781.000000
1674577.000000
1675368.000000
1676149.000000
1676930.000000
1677718.000000
1678528.000000
1679312.000000
1680111.000000
1680921.000000
1681720.000000
1682565.000000
1683411.000000
1684231.000000
1685025.000000
1685793.000000
1686542.000000
1687294.000000
1688068.000000
1688823.000000
1689591.000000
1690342.000000
1691100.000000
1691836.000000
1692540.000000
1693235.000000
1693916.000000
1694579.000000
1695233.000000
1695877.000000
1696512.000000
1697154.000000
1697918.000000
1698790.000000
1699581.000000
1700350.000000
1701175.000000
1702040.000000
1702862.000000
1703719.000000
1704558.000000
1705360.000000
1706178.000000
1706996.000000
1707782.000000
1708585.000000
1709382.000000
1710176.000000
1710954.000000
1711739.000000
1712547.000000
1713349.000000
1714140.000000
1715013.000000
1715854.000000
1716678.000000
1717468.000000
1718249.000000
1719029.000000
1719825.000000
1720592.000000
1721373.000000
1722135.000000
1722875.000000
1723596.000000
1724298.000000
1724988.000000
1725668.000000
1726355.000000
1727049.000000
1727750.000000
1728457.000000
1729182.000000
1729931.000000
1730693.000000
1731458.000000
1732239.000000
1733026.000000
1733806.000000
1734577.000000
1735354.000000
1736137.000000
1736920.000000
1737701.000000
1738492.000000
1739270.000000
1740028.000000
1740783.000000
1741543.000000
1742301.000000
1743066.000000
1743854.000000
1744660.000000
1745445.000000
1746247.000000
1747062.000000
1747885.000000
1748711.000000
1749545.000000
1750383.000000
1751195.000000
1752040.000000
1752880.000000
1753698.000000
1754542.000000
1755378.000000
1756198.000000
1757003.000000
1757810.000000
1758604.000000
1759381.000000
1760201.000000
1761053.000000
1761906.000000
1762734.000000
1763567.000000
1764385.000000
1765210.000000
1766051.000000
1766883.000000
1767702.000000
1768518.000000
1769339.000000
1770141.000000
1770932.000000
1771736.000000
1772542.000000
1773330.000000
1774147.000000
1774971.000000
1775783.000000
1776601.000000
1777422.000000
1778211.000000
1779014.000000
1779831.000000
1780660.000000
1781496.000000
1782358.000000
1783197.000000
1784007.000000
1784803.000000
1785582.000000
1786346.000000
1787110.000000
1787888.000000
1788704.000000
1789521.000000
1790379.000000
1791238.000000
1792081.000000
1792907.000000
1793710.000000
1794481.000000
1795221.000000
1795959.000000
1796723.000000
1797497.000000
1798312.000000
1799198.000000
1800083.000000
1800960.000000
1801854.000000
1802736.000000
1803583.000000
1804434.000000
1805298.000000
1806116.000000
1806924.000000
1807720.000000
1808500.000000
1809272.000000
1810076.000000
1810909.000000
1811729.000000
1812567.000000
1813417.000000
1814268.000000
1815100.000000
1815954.000000
1816801.000000
1817667.000000
1818521.000000
1819386.000000
1820258.000000
1821094.000000
1821949.000000
1822805.000000
1823656.000000
1824499.000000
1825322.000000
1826097.000000
1826867.000000
1827641.000000
1828454.000000
1829271.000000
1830121.000000
1830991.000000
1831856.000000
1832694.000000
1833553.000000
1834418.000000
1835269.000000
1836149.000000
1837026.000000
1837853.000000
1838699.000000
1839552.000000
1840412.000000
1841224.000000
1842073.000000
1842902.000000
1843662.000000
1844409.000000
1845158.000000
1845923.000000
1846704.000000
1847501.000000
1848290.000000
1849082.000000
1849847.000000
1850597.000000
1851328.000000
1852059.000000
1852893.000000
1853869.000000
1854797.000000
1855666.000000
1856478.000000
1857284.000000
1858098.000000
1858919.000000
1859740.000000
1860596.000000
1861499.000000
1862327.000000
1863141.000000
1863966.000000
1864798.000000
1865620.000000
1866447.000000
1867256.000000
1868097.000000
1869020.000000
1869884.000000
1870777.000000
1871756.000000
1872637.000000
1873471.000000
1874318.000000
1875171.000000
1876008.000000
1876855.000000
1877723.000000
1878584.000000
1879396.000000
1880215.000000
1881044.000000
1881849.000000
1882654.000000
1883454.000000
1884248.000000
1885025.000000
1885794.000000
1886586.000000
1887382.000000
1888163.000000
1888955.000000
1889758.000000
1890553.000000
1891332.000000
1892150.000000
1892954.000000
1893737.000000
1894507.000000
1895287.000000
1896102.000000
1896916.000000
1897712.000000
1898494.000000
1899267.000000
1900028.000000
1900761.000000
1901519.000000
1902301.000000
1903118.000000
1904014.000000
1904980.000000
1905857.000000
1906741.000000
1907607.000000
1908451.000000
1909279.000000
1910125.000000
1910957.000000
1911763.000000
1912566.000000
1913385.000000
1914196.000000
1915002.000000
1915847.000000
1916732.000000
1917587.000000
1918499.000000
1919421.000000
1920345.000000
1921305.000000
1922240.000000
1923118.000000
