ECG (ms)
234.000000
1102.000000
1972.000000
2820.000000
3674.000000
4549.000000
5434.000000
6301.000000
7179.000000
8066.000000
8962.000000
9841.000000
10717.000000
11606.000000
12490.000000
13356.000000
14236.000000
15127.000000
16012.000000
16891.000000
17779.000000
18674.000000
19543.000000
20414.000000
21289.000000
22165.000000
23036.000000
23921.000000
24809.000000
25660.000000
26522.000000
27378.000000
28212.000000
29053.000000
29891.000000
30721.000000
31534.000000
32368.000000
33208.000000
34051.000000
34910.000000
35757.000000
36576.000000
37401.000000
38224.000000
39042.000000
39865.000000
40688.000000
41498.000000
42331.000000
43176.000000
44008.000000
44849.000000
45707.000000
46558.000000
47390.000000
48227.000000
49065.000000
49890.000000
50719.000000
51563.000000
52409.000000
53260.000000
54121.000000
54993.000000
55852.000000
56701.000000
57561.000000
58426.000000
59284.000000
60133.000000
61004.000000
61896.000000
62788.000000
63659.000000
64526.000000
65400.000000
66280.000000
67158.000000
68027.000000
68881.000000
69732.000000
70601.000000
71472.000000
72338.000000
73199.000000
74072.000000
74954.000000
75836.000000
76692.000000
77554.000000
78423.000000
79287.000000
80132.000000
80973.000000
81834.000000
82705.000000
83566.000000
84424.000000
85312.000000
86218.000000
87121.000000
88022.000000
88909.000000
89802.000000
90696.000000
91575.000000
92435.000000
93292.000000
94165.000000
95054.000000
95934.000000
96818.000000
97725.000000
98636.000000
99522.000000
100407.000000
101302.000000
102199.000000
103082.000000
103951.000000
104839.000000
105756.000000
106671.000000
107567.000000
108477.000000
109394.000000
110302.000000
111193.000000
112100.000000
113007.000000
113888.000000
114782.000000
115688.000000
116599.000000
117493.000000
118389.000000
119284.000000
120174.000000
121053.000000
121943.000000
122838.000000
123738.000000
124615.000000
125485.000000
126359.000000
127236.000000
128112.000000
128976.000000
129865.000000
130765.000000
131649.000000
132535.000000
133436.000000
134342.000000
135234.000000
136141.000000
137052.000000
137937.000000
138827.000000
139724.000000
140619.000000
141501.000000
142406.000000
143329.000000
144240.000000
145145.000000
146062.000000
146987.000000
147894.000000
148803.000000
149717.000000
150638.000000
151539.000000
152437.000000
153354.000000
154269.000000
155175.000000
156092.000000
157018.000000
157922.000000
158822.000000
159728.000000
160632.000000
161538.000000
162428.000000
163327.000000
164236.000000
165138.000000
166030.000000
166936.000000
167856.000000
168762.000000
169648.000000
170536.000000
171426.000000
172306.000000
173174.000000
174043.000000
174922.000000
175802.000000
176685.000000
177553.000000
178428.000000
179316.000000
180210.000000
181098.000000
181972.000000
182855.000000
183742.000000
184631.000000
185505.000000
186385.000000
187278.000000
188180.000000
189060.000000
189926.000000
190774.000000
191637.000000
192495.000000
193350.000000
194197.000000
195055.000000
195886.000000
196687.000000
197478.000000
198264.000000
199071.000000
199912.000000
200762.000000
201613.000000
202483.000000
203364.000000
204243.000000
205109.000000
205958.000000
206821.000000
207689.000000
208555.000000
209420.000000
210312.000000
211239.000000
212147.000000
213050.000000
213960.000000
214876.000000
215788.000000
216683.000000
217569.000000
218470.000000
219376.000000
220274.000000
221169.000000
222080.000000
222999.000000
223919.000000
224827.000000
225702.000000
226569.000000
227450.000000
228347.000000
229254.000000
230165.000000
231072.000000
231997.000000
232929.000000
233862.000000
234782.000000
235669.000000
236548.000000
237439.000000
238330.000000
239212.000000
240091.000000
240976.000000
241864.000000
242747.000000
243642.000000
244559.000000
245482.000000
246390.000000
247299.000000
248209.000000
249127.000000
250022.000000
250927.000000
251848.000000
252764.000000
253678.000000
254596.000000
255527.000000
256446.000000
257343.000000
258242.000000
259142.000000
260037.000000
260921.000000
261824.000000
262760.000000
263680.000000
264613.000000
265559.000000
266484.000000
267391.000000
268312.000000
269235.000000
270144.000000
271052.000000
271977.000000
272890.000000
273797.000000
274724.000000
275671.000000
276604.000000
277524.000000
278464.000000
279405.000000
280331.000000
281219.000000
282110.000000
283023.000000
283934.000000
284844.000000
285741.000000
286650.000000
287577.000000
288496.000000
289397.000000
290301.000000
291212.000000
292120.000000
293019.000000
293941.000000
294884.000000
295828.000000
296764.000000
297699.000000
298647.000000
299583.000000
300509.000000
301463.000000
302421.000000
303374.000000
304314.000000
305273.000000
306219.000000
307136.000000
308040.000000
308962.000000
309881.000000
310790.000000
311688.000000
312610.000000
313550.000000
314447.000000
315336.000000
316246.000000
317148.000000
318035.000000
318917.000000
319831.000000
320764.000000
321695.000000
322646.000000
323601.000000
324546.000000
325465.000000
326402.000000
327340.000000
328268.000000
329200.000000
330135.000000
331066.000000
331994.000000
332931.000000
333866.000000
334798.000000
335720.000000
336657.000000
337588.000000
338523.000000
339444.000000
340369.000000
341322.000000
342271.000000
343202.000000
344131.000000
345075.000000
346020.000000
346931.000000
347837.000000
348766.000000
349691.000000
350615.000000
351568.000000
352526.000000
353463.000000
354379.000000
355300.000000
356211.000000
357105.000000
358009.000000
358931.000000
359842.000000
360772.000000
361734.000000
362684.000000
363617.000000
364563.000000
365507.000000
366415.000000
367317.000000
368223.000000
369142.000000
370052.000000
370967.000000
371905.000000
372839.000000
373775.000000
374683.000000
375586.000000
376495.000000
377402.000000
378306.000000
379202.000000
380115.000000
381055.000000
381996.000000
382938.000000
383887.000000
384830.000000
385751.000000
386670.000000
387606.000000
388546.000000
389483.000000
390436.000000
391396.000000
392342.000000
393258.000000
394212.000000
395167.000000
396099.000000
397024.000000
397975.000000
398941.000000
399883.000000
400820.000000
401778.000000
402735.000000
403674.000000
404616.000000
405591.000000
406556.000000
407486.000000
408407.000000
409362.000000
410335.000000
411299.000000
412256.000000
413232.000000
414197.000000
415148.000000
416115.000000
417081.000000
418026.000000
418947.000000
419879.000000
420829.000000
421775.000000
422726.000000
423691.000000
424658.000000
425627.000000
426587.000000
427532.000000
428470.000000
429415.000000
430351.000000
431306.000000
432289.000000
433253.000000
434214.000000
435191.000000
436150.000000
437083.000000
438008.000000
438946.000000
439863.000000
440744.000000
441629.000000
442545.000000
443463.000000
444382.000000
445338.000000
446290.000000
447223.000000
448160.000000
449106.000000
450044.000000
450980.000000
451923.000000
452868.000000
453808.000000
454737.000000
455687.000000
456652.000000
457604.000000
458566.000000
459534.000000
460478.000000
461404.000000
462325.000000
463257.000000
464177.000000
465100.000000
466004.000000
466924.000000
467864.000000
468790.000000
469727.000000
470704.000000
471679.000000
472636.000000
473598.000000
474557.000000
475484.000000
476413.000000
477358.000000
478292.000000
479197.000000
480079.000000
480982.000000
481912.000000
482856.000000
483837.000000
484847.000000
485855.000000
486834.000000
487795.000000
488764.000000
489717.000000
490646.000000
491597.000000
492549.000000
493471.000000
494387.000000
495318.000000
496270.000000
497230.000000
498157.000000
499093.000000
500029.000000
500945.000000
501843.000000
502753.000000
503688.000000
504603.000000
505505.000000
506435.000000
507386.000000
508329.000000
509247.000000
510186.000000
511146.000000
512113.000000
513055.000000
514004.000000
514981.000000
515979.000000
516950.000000
517935.000000
518918.000000
519883.000000
520832.000000
521780.000000
522721.000000
523651.000000
524561.000000
525483.000000
526425.000000
527357.000000
528317.000000
529300.000000
530288.000000
531241.000000
532180.000000
533127.000000
534067.000000
534999.000000
535953.000000
536907.000000
537849.000000
538795.000000
539746.000000
540698.000000
541635.000000
542568.000000
543523.000000
544492.000000
545450.000000
546406.000000
547383.000000
548337.000000
549266.000000
550168.000000
551092.000000
552042.000000
552960.000000
553865.000000
554730.000000
555569.000000
556410.000000
557250.000000
558115.000000
558996.000000
559882.000000
560741.000000
561591.000000
562465.000000
563351.000000
564094.000000
565101.000000
565995.000000
566903.000000
567803.000000
568694.000000
569611.000000
570552.000000
571479.000000
572393.000000
573331.000000
574283.000000
575223.000000
576162.000000
577123.000000
578077.000000
579033.000000
579980.000000
580932.000000
581894.000000
582838.000000
583762.000000
584699.000000
585630.000000
586542.000000
587468.000000
588412.000000
589366.000000
590301.000000
591203.000000
592073.000000
592939.000000
593798.000000
594646.000000
595511.000000
596402.000000
597297.000000
598206.000000
599160.000000
600118.000000
601051.000000
602015.000000
602999.000000
603965.000000
604901.000000
605843.000000
606790.000000
607727.000000
608670.000000
609643.000000
610628.000000
611598.000000
612547.000000
613492.000000
614425.000000
615352.000000
616262.000000
617190.000000
618137.000000
619079.000000
620010.000000
620966.000000
621919.000000
622864.000000
623815.000000
624782.000000
625758.000000
626708.000000
627630.000000
628562.000000
629488.000000
630421.000000
631368.000000
632323.000000
633273.000000
634203.000000
635107.000000
635964.000000
636814.000000
637669.000000
638513.000000
639390.000000
640276.000000
641158.000000
642029.000000
642896.000000
643771.000000
644656.000000
645526.000000
646396.000000
647293.000000
648202.000000
649095.000000
650006.000000
650960.000000
651919.000000
652863.000000
653819.000000
654789.000000
655756.000000
656714.000000
657679.000000
658635.000000
659585.000000
660515.000000
661453.000000
662413.000000
663369.000000
664311.000000
665263.000000
666218.000000
667156.000000
668084.000000
669026.000000
669988.000000
670947.000000
671930.000000
672950.000000
673957.000000
674930.000000
675883.000000
676841.000000
677790.000000
678717.000000
679640.000000
680571.000000
681489.000000
682412.000000
683369.000000
684349.000000
685337.000000
686300.000000
687224.000000
688151.000000
689080.000000
689990.000000
690915.000000
691855.000000
692805.000000
693729.000000
694678.000000
695648.000000
696607.000000
697554.000000
698497.000000
699432.000000
700356.000000
701270.000000
702223.000000
703189.000000
704164.000000
705119.000000
706073.000000
707035.000000
707980.000000
708912.000000
709848.000000
710803.000000
711751.000000
712691.000000
713634.000000
714592.000000
715533.000000
716453.000000
717384.000000
718348.000000
719320.000000
720239.000000
721119.000000
721966.000000
722832.000000
723708.000000
724565.000000
725453.000000
726357.000000
727249.000000
728117.000000
728988.000000
729868.000000
730748.000000
731620.000000
732520.000000
733440.000000
734358.000000
735265.000000
736210.000000
737188.000000
738162.000000
739141.000000
740123.000000
741101.000000
742062.000000
743034.000000
744019.000000
745000.000000
745964.000000
746942.000000
747911.000000
748872.000000
749812.000000
750772.000000
751728.000000
752664.000000
753593.000000
754536.000000
755475.000000
756401.000000
757332.000000
758275.000000
759217.000000
760135.000000
761048.000000
761911.000000
762745.000000
763580.000000
764412.000000
765272.000000
766178.000000
767066.000000
767935.000000
768827.000000
769746.000000
770659.000000
771570.000000
772512.000000
773478.000000
774439.000000
775396.000000
776378.000000
777376.000000
778357.000000
779327.000000
780316.000000
781322.000000
782311.000000
783268.000000
784252.000000
785260.000000
786278.000000
787268.000000
788265.000000
789240.000000
790212.000000
791221.000000
792241.000000
793237.000000
794198.000000
795159.000000
796118.000000
797062.000000
798009.000000
798983.000000
799972.000000
800947.000000
801919.000000
802904.000000
803872.000000
804813.000000
805760.000000
806733.000000
807693.000000
808631.000000
809565.000000
810510.000000
811458.000000
812394.000000
813334.000000
814308.000000
815290.000000
816243.000000
817192.000000
818156.000000
819128.000000
820078.000000
821005.000000
821939.000000
822880.000000
823831.000000
824755.000000
825716.000000
826706.000000
827674.000000
828657.000000
829643.000000
830605.000000
831533.000000
832466.000000
833385.000000
834283.000000
835187.000000
836108.000000
837034.000000
837964.000000
838895.000000
839857.000000
840824.000000
841757.000000
842696.000000
843656.000000
844617.000000
845562.000000
846531.000000
847504.000000
848456.000000
849396.000000
850355.000000
851342.000000
852318.000000
853310.000000
854314.000000
855320.000000
856298.000000
857290.000000
858284.000000
859260.000000
860208.000000
861188.000000
862159.000000
863103.000000
864018.000000
864952.000000
865894.000000
866840.000000
867810.000000
868804.000000
869787.000000
870752.000000
871732.000000
872710.000000
873669.000000
874607.000000
875545.000000
876477.000000
877414.000000
878365.000000
879296.000000
880249.000000
881221.000000
882191.000000
883145.000000
884122.000000
885118.000000
886092.000000
887093.000000
888096.000000
889076.000000
890041.000000
891018.000000
891991.000000
892953.000000
893906.000000
894851.000000
895784.000000
896697.000000
897604.000000
898531.000000
899455.000000
900378.000000
901310.000000
902286.000000
903277.000000
904242.000000
905173.000000
906126.000000
907077.000000
908018.000000
908987.000000
909989.000000
910996.000000
911986.000000
912989.000000
914000.000000
915002.000000
915982.000000
916934.000000
917895.000000
918845.000000
919765.000000
920694.000000
921656.000000
922624.000000
923573.000000
924549.000000
925541.000000
926515.000000
927467.000000
928444.000000
929417.000000
930370.000000
931316.000000
932257.000000
933204.000000
934137.000000
935062.000000
936003.000000
936958.000000
937917.000000
938870.000000
939841.000000
940822.000000
941792.000000
942742.000000
943705.000000
944689.000000
945663.000000
946594.000000
947535.000000
948487.000000
949423.000000
950373.000000
951363.000000
952348.000000
953328.000000
954338.000000
955344.000000
956324.000000
957294.000000
958267.000000
959214.000000
960145.000000
961103.000000
962064.000000
963020.000000
963964.000000
964909.000000
965876.000000
966849.000000
967823.000000
968802.000000
969776.000000
970732.000000
971677.000000
972630.000000
973606.000000
974584.000000
975547.000000
976505.000000
977510.000000
978511.000000
979479.000000
980390.000000
981318.000000
982279.000000
983232.000000
984173.000000
985158.000000
986128.000000
987085.000000
988043.000000
989019.000000
989982.000000
990922.000000
991881.000000
992833.000000
993758.000000
994670.000000
995595.000000
996521.000000
997433.000000
998348.000000
999286.000000
1000241.000000
1001191.000000
1002145.000000
1003117.000000
1004081.000000
1005044.000000
1005982.000000
1006960.000000
1007964.000000
1008962.000000
1009972.000000
1010991.000000
1011973.000000
1012933.000000
1013908.000000
1014882.000000
1015849.000000
1016799.000000
1017784.000000
1018792.000000
1019760.000000
1020709.000000
1021683.000000
1022662.000000
1023646.000000
1024611.000000
1025573.000000
1026555.000000
1027531.000000
1028490.000000
1029433.000000
1030389.000000
1031342.000000
1032282.000000
1033221.000000
1034174.000000
1035120.000000
1036052.000000
1037008.000000
1037980.000000
1038937.000000
1039880.000000
1040850.000000
1041832.000000
1042812.000000
1043779.000000
1044744.000000
1045704.000000
1046639.000000
1047560.000000
1048517.000000
1049512.000000
1050478.000000
1051437.000000
1052434.000000
1053433.000000
1054379.000000
1055298.000000
1056233.000000
1057169.000000
1058083.000000
1059010.000000
1059961.000000
1060915.000000
1061858.000000
1062819.000000
1063786.000000
1064728.000000
1065676.000000
1066651.000000
1067619.000000
1068587.000000
1069577.000000
1070555.000000
1071524.000000
1072453.000000
1073396.000000
1074356.000000
1075297.000000
1076189.000000
1077062.000000
1077934.000000
1078821.000000
1079752.000000
1080677.000000
1081588.000000
1082520.000000
1083457.000000
1084382.000000
1085296.000000
1086228.000000
1087162.000000
1088086.000000
1089004.000000
1089940.000000
1090889.000000
1091841.000000
1092816.000000
1093811.000000
1094795.000000
1095761.000000
1096736.000000
1097708.000000
1098671.000000
1099626.000000
1100597.000000
1101575.000000
1102531.000000
1103450.000000
1104384.000000
1105325.000000
1106274.000000
1107284.000000
1108331.000000
1109340.000000
1110316.000000
1111299.000000
1112275.000000
1113213.000000
1114155.000000
1115081.000000
1115985.000000
1116883.000000
1117822.000000
1118817.000000
1119795.000000
1120749.000000
1121735.000000
1122704.000000
1123636.000000
1124578.000000
1125518.000000
1126440.000000
1127376.000000
1128335.000000
1129300.000000
1130269.000000
1131223.000000
1132188.000000
1133166.000000
1134136.000000
1135093.000000
1136060.000000
1137041.000000
1138011.000000
1138959.000000
1139910.000000
1140864.000000
1141792.000000
1142705.000000
1143605.000000
1144543.000000
1145498.000000
1146448.000000
1147417.000000
1148426.000000
1149424.000000
1150395.000000
1151362.000000
1152342.000000
1153293.000000
1154205.000000
1155116.000000
1156055.000000
1157001.000000
1157945.000000
1158961.000000
1159999.000000
1161015.000000
1162035.000000
1163057.000000
1164046.000000
1165007.000000
1165976.000000
1166932.000000
1167868.000000
1168807.000000
1169782.000000
1170804.000000
1171804.000000
1172790.000000
1173807.000000
1174811.000000
1175796.000000
1176793.000000
1177793.000000
1178768.000000
1179731.000000
1180701.000000
1181656.000000
1182603.000000
1183518.000000
1184463.000000
1185428.000000
1186419.000000
1187421.000000
1188450.000000
1189487.000000
1190500.000000
1191517.000000
1192537.000000
1193550.000000
1194535.000000
1195511.000000
1196494.000000
1197470.000000
1198423.000000
1199363.000000
1200306.000000
1201251.000000
1202199.000000
1203130.000000
1204047.000000
1204995.000000
1205958.000000
1206909.000000
1207867.000000
1208855.000000
1209833.000000
1210779.000000
1211716.000000
1212677.000000
1213644.000000
1214585.000000
1215495.000000
1216439.000000
1217412.000000
1218360.000000
1219321.000000
1220323.000000
1221301.000000
1222236.000000
1223171.000000
1224106.000000
1225044.000000
1225968.000000
1226879.000000
1227818.000000
1228767.000000
1229718.000000
1230696.000000
1231688.000000
1232665.000000
1233646.000000
1234640.000000
1235635.000000
1236622.000000
1237616.000000
1238616.000000
1239606.000000
1240598.000000
1241605.000000
1242644.000000
1243664.000000
1244682.000000
1245710.000000
1246703.000000
1247671.000000
1248665.000000
1249698.000000
1250708.000000
1251711.000000
1252733.000000
1253716.000000
1254684.000000
1255665.000000
1256666.000000
1257644.000000
1258579.000000
1259528.000000
1260487.000000
1261436.000000
1262382.000000
1263394.000000
1264418.000000
1265383.000000
1266308.000000
1267248.000000
1268199.000000
1269122.000000
1270045.000000
1271005.000000
1271960.000000
1272897.000000
1273846.000000
1274806.000000
1275748.000000
1276685.000000
1277652.000000
1278621.000000
1279573.000000
1280527.000000
1281490.000000
1282445.000000
1283378.000000
1284331.000000
1285314.000000
1286293.000000
1287306.000000
1288339.000000
1289355.000000
1290342.000000
1291329.000000
1292310.000000
1293273.000000
1294258.000000
1295265.000000
1296257.000000
1297231.000000
1298222.000000
1299197.000000
1300144.000000
1301089.000000
1302035.000000
1302985.000000
1303930.000000
1304874.000000
1305840.000000
1306811.000000
1307761.000000
1308721.000000
1309676.000000
1310614.000000
1311534.000000
1312474.000000
1313435.000000
1314392.000000
1315334.000000
1316295.000000
1317239.000000
1318168.000000
1319120.000000
1320083.000000
1321032.000000
1321972.000000
1322959.000000
1323952.000000
1324930.000000
1325881.000000
1326836.000000
1327803.000000
1328727.000000
1329676.000000
1330661.000000
1331610.000000
1332555.000000
1333546.000000
1334522.000000
1335472.000000
1336430.000000
1337400.000000
1338345.000000
1339261.000000
1340213.000000
1341187.000000
1342170.000000
1343149.000000
1344164.000000
1345182.000000
1346185.000000
1347184.000000
1348174.000000
1349154.000000
1350132.000000
1351134.000000
1352151.000000
1353156.000000
1354156.000000
1355175.000000
1356173.000000
1357164.000000
1358127.000000
1359111.000000
1360079.000000
1361010.000000
1361894.000000
1362761.000000
1363627.000000
1364525.000000
1365440.000000
1366334.000000
1367220.000000
1368137.000000
1369050.000000
1369941.000000
1370860.000000
1371782.000000
1372686.000000
1373604.000000
1374539.000000
1375474.000000
1376410.000000
1377378.000000
1378340.000000
1379299.000000
1380238.000000
1381191.000000
1382153.000000
1383103.000000
1384080.000000
1385084.000000
1386088.000000
1387062.000000
1388031.000000
1389004.000000
1389976.000000
1390967.000000
1391952.000000
1392937.000000
1393909.000000
1394871.000000
1395861.000000
1396867.000000
1397854.000000
1398827.000000
1399807.000000
1400761.000000
1401682.000000
1402610.000000
1403550.000000
1404479.000000
1405381.000000
1406309.000000
1407259.000000
1408215.000000
1409205.000000
1410221.000000
1411222.000000
1412187.000000
1413168.000000
1414137.000000
1415081.000000
1416009.000000
1416952.000000
1417886.000000
1418783.000000
1419659.000000
1420504.000000
1421336.000000
1422190.000000
1423077.000000
1424018.000000
1424967.000000
1425901.000000
1426798.000000
1427725.000000
1428646.000000
1429550.000000
1430425.000000
1431315.000000
1432202.000000
1433070.000000
1433907.000000
1434723.000000
1435537.000000
1436360.000000
1437215.000000
1438099.000000
1438980.000000
1439861.000000
1440729.000000
1441575.000000
1442396.000000
1443198.000000
1443994.000000
1444804.000000
1445646.000000
1446512.000000
1447391.000000
1448271.000000
1449176.000000
1450080.000000
1450970.000000
1451877.000000
1452776.000000
1453657.000000
1454537.000000
1455426.000000
1456321.000000
1457194.000000
1458065.000000
1458943.000000
1459818.000000
1460694.000000
1461575.000000
1462421.000000
1463243.000000
1464072.000000
1464938.000000
1465814.000000
1466669.000000
1467543.000000
1468386.000000
1469224.000000
1470071.000000
1470900.000000
1471715.000000
1472535.000000
1473365.000000
1474190.000000
1475025.000000
1475888.000000
1476755.000000
1477628.000000
1478536.000000
1479451.000000
1480340.000000
1481229.000000
1482123.000000
1483004.000000
1483902.000000
1484818.000000
1485717.000000
1486627.000000
1487551.000000
1488458.000000
1489367.000000
1490286.000000
1491191.000000
1492082.000000
1492981.000000
1493880.000000
1494776.000000
1495694.000000
1496628.000000
1497556.000000
1498505.000000
1499457.000000
1500383.000000
1501315.000000
1502259.000000
1503185.000000
1504121.000000
1505058.000000
1505998.000000
1506935.000000
1507848.000000
1508776.000000
1509711.000000
1510637.000000
1511539.000000
1512439.000000
1513333.000000
1514220.000000
1515106.000000
1516006.000000
1516912.000000
1517812.000000
1518728.000000
1519659.000000
1520593.000000
1521515.000000
1522450.000000
1523397.000000
1524343.000000
1525280.000000
1526215.000000
1527155.000000
1528089.000000
1529035.000000
1529991.000000
1530936.000000
1531872.000000
1532811.000000
1533752.000000
1534692.000000
1535654.000000
1536607.000000
1537548.000000
1538483.000000
1539418.000000
1540343.000000
1541272.000000
1542226.000000
1543202.000000
1544175.000000
1545143.000000
1546107.000000
1547051.000000
1547983.000000
1548891.000000
1549802.000000
1550727.000000
1551653.000000
1552585.000000
1553525.000000
1554500.000000
1555456.000000
1556400.000000
1557358.000000
1558312.000000
1559247.000000
1560162.000000
1561083.000000
1562003.000000
1562915.000000
1563827.000000
1564751.000000
1565691.000000
1566634.000000
1567592.000000
1568576.000000
1569556.000000
1570521.000000
1571461.000000
1572390.000000
1573308.000000
1574218.000000
1575140.000000
1576096.000000
1577053.000000
1577998.000000
1578925.000000
1579862.000000
1580805.000000
1581740.000000
1582687.000000
1583647.000000
1584592.000000
1585518.000000
1586434.000000
1587349.000000
1588276.000000
1589192.000000
1590098.000000
1591023.000000
1591968.000000
1592936.000000
1593940.000000
1594955.000000
1595950.000000
1596928.000000
1597903.000000
1598840.000000
1599756.000000
1600663.000000
1601581.000000
1602508.000000
1603451.000000
1604396.000000
1605362.000000
1606322.000000
1607279.000000
1608222.000000
1609158.000000
1610083.000000
1610983.000000
1611891.000000
1612814.000000
1613752.000000
1614683.000000
1615629.000000
1616599.000000
1617559.000000
1618498.000000
1619444.000000
1620380.000000
1621310.000000
1622245.000000
1623184.000000
1624115.000000
1625026.000000
1625955.000000
1626903.000000
1627852.000000
1628818.000000
1629811.000000
1630803.000000
1631785.000000
1632782.000000
1633777.000000
1634760.000000
1635727.000000
1636711.000000
1637688.000000
1638662.000000
1639617.000000
1640580.000000
1641564.000000
1642502.000000
1643454.000000
1644435.000000
1645408.000000
1646363.000000
1647345.000000
1648335.000000
1649287.000000
1650256.000000
1651237.000000
1652188.000000
1653118.000000
1654045.000000
1654981.000000
1655922.000000
1656857.000000
1657793.000000
1658748.000000
1659690.000000
1660623.000000
1661567.000000
1662512.000000
1663456.000000
1664393.000000
1665360.000000
1666363.000000
1667365.000000
1668370.000000
1669383.000000
1670390.000000
1671375.000000
1672342.000000
1673316.000000
1674284.000000
1675245.000000
1676196.000000
1677154.000000
1678125.000000
1679086.000000
1680065.000000
1681070.000000
1682074.000000
1683066.000000
1684035.000000
1685006.000000
1685950.000000
1686877.000000
1687828.000000
1688815.000000
1689823.000000
1690803.000000
1691791.000000
1692795.000000
1693773.000000
1694728.000000
1695699.000000
1696675.000000
1697645.000000
1698581.000000
1699516.000000
1700456.000000
1701393.000000
1702333.000000
1703308.000000
1704318.000000
1705303.000000
1706274.000000
1707278.000000
1708267.000000
1709241.000000
1710229.000000
1711227.000000
1712206.000000
1713156.000000
1714124.000000
1715091.000000
1716028.000000
1716950.000000
1717887.000000
1718824.000000
1719771.000000
1720735.000000
1721743.000000
1722762.000000
1723767.000000
1724783.000000
1725799.000000
1726783.000000
1727736.000000
1728712.000000
1729683.000000
1730659.000000
1731603.000000
1732557.000000
1733521.000000
1734474.000000
1735418.000000
1736382.000000
1737357.000000
1738311.000000
1739291.000000
1740272.000000
1741226.000000
1742155.000000
1743096.000000
1744052.000000
1744985.000000
1745925.000000
1746906.000000
1747907.000000
1748899.000000
1749900.000000
1750920.000000
1751921.000000
1752908.000000
1753901.000000
1754890.000000
1755876.000000
1756851.000000
1757859.000000
1758846.000000
1759797.000000
1760719.000000
1761688.000000
1762689.000000
1763700.000000
1764725.000000
1765755.000000
1766756.000000
1767724.000000
1768693.000000
1769648.000000
1770577.000000
1771484.000000
1772398.000000
1773315.000000
1774232.000000
1775172.000000
1776147.000000
1777119.000000
1778087.000000
1779061.000000
1780053.000000
1781015.000000
1781952.000000
1782885.000000
1783831.000000
1784792.000000
1785751.000000
1786739.000000
1787733.000000
1788716.000000
1789682.000000
1790662.000000
1791655.000000
1792614.000000
1793553.000000
1794525.000000
1795496.000000
1796479.000000
1797447.000000
1798401.000000
