ECG (ms)
816.000000
1695.000000
2576.000000
3429.000000
4298.000000
5165.000000
6067.000000
7002.000000
7906.000000
8779.000000
9681.000000
10585.000000
11504.000000
12387.000000
13304.000000
14203.000000
15103.000000
15996.000000
16870.000000
17779.000000
18720.000000
19666.000000
20552.000000
21446.000000
22317.000000
23186.000000
24060.000000
24937.000000
25863.000000
26824.000000
27750.000000
28617.000000
29517.000000
30415.000000
31308.000000
32163.000000
33047.000000
33928.000000
34813.000000
35678.000000
36565.000000
37452.000000
38341.000000
39210.000000
40099.000000
40998.000000
41905.000000
42782.000000
43677.000000
44573.000000
45475.000000
46346.000000
47223.000000
48108.000000
49030.000000
49934.000000
50855.000000
51812.000000
52773.000000
53670.000000
54582.000000
55493.000000
56423.000000
57314.000000
58201.000000
59093.000000
59994.000000
60880.000000
61784.000000
62701.000000
63636.000000
64559.000000
65461.000000
66388.000000
67293.000000
68183.000000
69054.000000
69973.000000
70927.000000
71890.000000
72815.000000
73763.000000
74711.000000
75618.000000
76521.000000
77424.000000
78329.000000
79207.000000
80086.000000
80966.000000
81857.000000
82715.000000
83622.000000
84564.000000
85521.000000
86436.000000
87380.000000
88344.000000
89259.000000
90165.000000
91088.000000
92020.000000
92916.000000
93822.000000
94711.000000
95604.000000
96472.000000
97381.000000
98332.000000
99311.000000
100254.000000
101217.000000
102195.000000
103145.000000
104050.000000
104960.000000
105868.000000
106785.000000
107672.000000
108591.000000
109547.000000
110507.000000
111427.000000
112364.000000
113298.000000
114215.000000
115080.000000
115981.000000
116895.000000
117811.000000
118695.000000
119619.000000
120541.000000
121436.000000
122309.000000
123189.000000
124077.000000
124945.000000
125810.000000
126693.000000
127603.000000
128489.000000
129368.000000
130256.000000
131155.000000
132032.000000
132897.000000
133778.000000
134675.000000
135546.000000
136436.000000
137330.000000
138226.000000
139098.000000
139980.000000
140864.000000
141746.000000
142603.000000
143438.000000
144224.000000
144981.000000
145768.000000
146614.000000
147496.000000
148418.000000
149382.000000
150298.000000
151213.000000
152112.000000
153028.000000
153891.000000
154796.000000
155732.000000
156694.000000
157599.000000
158525.000000
159459.000000
160363.000000
161234.000000
162133.000000
163054.000000
163973.000000
164853.000000
165772.000000
166695.000000
167613.000000
168484.000000
169396.000000
170319.000000
171243.000000
172113.000000
173023.000000
173928.000000
174824.000000
175690.000000
176579.000000
177479.000000
178392.000000
179293.000000
180230.000000
181157.000000
182079.000000
182963.000000
183857.000000
184756.000000
185665.000000
186552.000000
187481.000000
188434.000000
189392.000000
190314.000000
191253.000000
192165.000000
193053.000000
193902.000000
194778.000000
195685.000000
196633.000000
197550.000000
198506.000000
199461.000000
200424.000000
201325.000000
202263.000000
203211.000000
204140.000000
205016.000000
205927.000000
206849.000000
207745.000000
208620.000000
209546.000000
210497.000000
211427.000000
212328.000000
213248.000000
214194.000000
215103.000000
216024.000000
216955.000000
217882.000000
218766.000000
219672.000000
220588.000000
221514.000000
222408.000000
223325.000000
224256.000000
225215.000000
226134.000000
227094.000000
228045.000000
228968.000000
229874.000000
230776.000000
231685.000000
232583.000000
233529.000000
234507.000000
235501.000000
236444.000000
237428.000000
238409.000000
239364.000000
240252.000000
241154.000000
242061.000000
242961.000000
243839.000000
244796.000000
245768.000000
246708.000000
247600.000000
248552.000000
249490.000000
250415.000000
251288.000000
252205.000000
253119.000000
254038.000000
254938.000000
255880.000000
256815.000000
257740.000000
258621.000000
259533.000000
260432.000000
261336.000000
262207.000000
263130.000000
264081.000000
265061.000000
266000.000000
266956.000000
267942.000000
268904.000000
269827.000000
270755.000000
271675.000000
272594.000000
273522.000000
274416.000000
275352.000000
276308.000000
277282.000000
278196.000000
279141.000000
280122.000000
281074.000000
281976.000000
282916.000000
283876.000000
284843.000000
285755.000000
286706.000000
287671.000000
288650.000000
289594.000000
290567.000000
291575.000000
292580.000000
293522.000000
294459.000000
295408.000000
296350.000000
297255.000000
298195.000000
299168.000000
300189.000000
301151.000000
302156.000000
303136.000000
304091.000000
304980.000000
305897.000000
306823.000000
307738.000000
308617.000000
309550.000000
310517.000000
311499.000000
312429.000000
313398.000000
314366.000000
315322.000000
316222.000000
317147.000000
318072.000000
318996.000000
319897.000000
320843.000000
321829.000000
322805.000000
323729.000000
324658.000000
325597.000000
326564.000000
327530.000000
328525.000000
329536.000000
330545.000000
331489.000000
332449.000000
333423.000000
334389.000000
335303.000000
336223.000000
337151.000000
338103.000000
339034.000000
339971.000000
340957.000000
341925.000000
342845.000000
343733.000000
344630.000000
345543.000000
346453.000000
347396.000000
348413.000000
349451.000000
350414.000000
351385.000000
352368.000000
353325.000000
354259.000000
355210.000000
356153.000000
357073.000000
357969.000000
358907.000000
359869.000000
360780.000000
361710.000000
362651.000000
363610.000000
364516.000000
365438.000000
366373.000000
367279.000000
368141.000000
369042.000000
369957.000000
370931.000000
371867.000000
372841.000000
373817.000000
374785.000000
375706.000000
376673.000000
377636.000000
378552.000000
379496.000000
380431.000000
381375.000000
382297.000000
383248.000000
384220.000000
385189.000000
386113.000000
387045.000000
387978.000000
388911.000000
389826.000000
390777.000000
391733.000000
392676.000000
393590.000000
394512.000000
395435.000000
396367.000000
397283.000000
398166.000000
399068.000000
399985.000000
400913.000000
401832.000000
402758.000000
403693.000000
404632.000000
405533.000000
406393.000000
407285.000000
408203.000000
409184.000000
410111.000000
411044.000000
412000.000000
412971.000000
413881.000000
414791.000000
415705.000000
416624.000000
417500.000000
418376.000000
419280.000000
420228.000000
421150.000000
422076.000000
423057.000000
424052.000000
424954.000000
425872.000000
426795.000000
427733.000000
428644.000000
429655.000000
430645.000000
431596.000000
432508.000000
433428.000000
434344.000000
435240.000000
436120.000000
437052.000000
438019.000000
438983.000000
439901.000000
440859.000000
441812.000000
442760.000000
443679.000000
444631.000000
445580.000000
446522.000000
447438.000000
448375.000000
449358.000000
450338.000000
451288.000000
452206.000000
453123.000000
454065.000000
455014.000000
455947.000000
456876.000000
457821.000000
458788.000000
459732.000000
460643.000000
461595.000000
462579.000000
463566.000000
464519.000000
465404.000000
466284.000000
467159.000000
468095.000000
469034.000000
469986.000000
470999.000000
472019.000000
472969.000000
473982.000000
475010.000000
475933.000000
476854.000000
477775.000000
478688.000000
479563.000000
480485.000000
481433.000000
482367.000000
483265.000000
484212.000000
485187.000000
486129.000000
487095.000000
488066.000000
489019.000000
489925.000000
490866.000000
491825.000000
492761.000000
493675.000000
494614.000000
495550.000000
496462.000000
497351.000000
498263.000000
499194.000000
500148.000000
501072.000000
502036.000000
502993.000000
503934.000000
504825.000000
505748.000000
506669.000000
507610.000000
508515.000000
509467.000000
510450.000000
511407.000000
512317.000000
513236.000000
514154.000000
515063.000000
515932.000000
516839.000000
517785.000000
518752.000000
519668.000000
520629.000000
521582.000000
522525.000000
523421.000000
524257.000000
525057.000000
525869.000000
526743.000000
527701.000000
528684.000000
529668.000000
530640.000000
531558.000000
532495.000000
533435.000000
534377.000000
535309.000000
536223.000000
537151.000000
538093.000000
539025.000000
539960.000000
540860.000000
541788.000000
542724.000000
543672.000000
544633.000000
545568.000000
546455.000000
547355.000000
548242.000000
549132.000000
550032.000000
550934.000000
551887.000000
552867.000000
553786.000000
554707.000000
555642.000000
556588.000000
557475.000000
558381.000000
559290.000000
560212.000000
561094.000000
562018.000000
562942.000000
563902.000000
564823.000000
565786.000000
566765.000000
567717.000000
568617.000000
569545.000000
570497.000000
571445.000000
572356.000000
573296.000000
574251.000000
575205.000000
576116.000000
577067.000000
578013.000000
578957.000000
579859.000000
580775.000000
581703.000000
582646.000000
583577.000000
584480.000000
585435.000000
586395.000000
587355.000000
588261.000000
589203.000000
590127.000000
591047.000000
591946.000000
592860.000000
593798.000000
594739.000000
595640.000000
596575.000000
597513.000000
598438.000000
599334.000000
600283.000000
601220.000000
602121.000000
603021.000000
603929.000000
604844.000000
605726.000000
606638.000000
607545.000000
608447.000000
609321.000000
610270.000000
611186.000000
612088.000000
613045.000000
614016.000000
614936.000000
615798.000000
616618.000000
617476.000000
618432.000000
619370.000000
620357.000000
621328.000000
622270.000000
623221.000000
624154.000000
625084.000000
625970.000000
626899.000000
627839.000000
628806.000000
629737.000000
630703.000000
631663.000000
632591.000000
633479.000000
634376.000000
635286.000000
636218.000000
637137.000000
638084.000000
639062.000000
640038.000000
640995.000000
641911.000000
642848.000000
643770.000000
644705.000000
645605.000000
646541.000000
647512.000000
648516.000000
649480.000000
650469.000000
651450.000000
652417.000000
653329.000000
654230.000000
655119.000000
656007.000000
656891.000000
657776.000000
658692.000000
659680.000000
660620.000000
661594.000000
662563.000000
663539.000000
664448.000000
665392.000000
666357.000000
667327.000000
668245.000000
669193.000000
670145.000000
671080.000000
671969.000000
672904.000000
673860.000000
674816.000000
675752.000000
676719.000000
677705.000000
678671.000000
679606.000000
680594.000000
681580.000000
682550.000000
683467.000000
684416.000000
685376.000000
686350.000000
687288.000000
688258.000000
689227.000000
690193.000000
691124.000000
692124.000000
693126.000000
694129.000000
695094.000000
696101.000000
697106.000000
698071.000000
699005.000000
699954.000000
700930.000000
701997.000000
703067.000000
704058.000000
705049.000000
706023.000000
706979.000000
707893.000000
708831.000000
709802.000000
710771.000000
711700.000000
712684.000000
713707.000000
714730.000000
715693.000000
716685.000000
717680.000000
718672.000000
719594.000000
720489.000000
721414.000000
722394.000000
723444.000000
724423.000000
725485.000000
726546.000000
727563.000000
728545.000000
729451.000000
730370.000000
731321.000000
732334.000000
733309.000000
734308.000000
735339.000000
736351.000000
737309.000000
738288.000000
739276.000000
740261.000000
741215.000000
742260.000000
743299.000000
744300.000000
745245.000000
746193.000000
747125.000000
748055.000000
748959.000000
749933.000000
750990.000000
752005.000000
753042.000000
754120.000000
755148.000000
756096.000000
757088.000000
758100.000000
759089.000000
760023.000000
761005.000000
761986.000000
762956.000000
763903.000000
764860.000000
765817.000000
766744.000000
767644.000000
768571.000000
769524.000000
770450.000000
771374.000000
772317.000000
773277.000000
774199.000000
775068.000000
775891.000000
776687.000000
777493.000000
778362.000000
779444.000000
780550.000000
781650.000000
782724.000000
783783.000000
784824.000000
785802.000000
786737.000000
787672.000000
788637.000000
789624.000000
790622.000000
791615.000000
792588.000000
793525.000000
794462.000000
795404.000000
796339.000000
797286.000000
798212.000000
799151.000000
800134.000000
801135.000000
802154.000000
803124.000000
804082.000000
805014.000000
805956.000000
806895.000000
807803.000000
808761.000000
809745.000000
810745.000000
811697.000000
812630.000000
813567.000000
814503.000000
815394.000000
816299.000000
817228.000000
818227.000000
819176.000000
820127.000000
821138.000000
822127.000000
823099.000000
824005.000000
824974.000000
825946.000000
826929.000000
827867.000000
828862.000000
829871.000000
830876.000000
831820.000000
832749.000000
833724.000000
834729.000000
835739.000000
836793.000000
837899.000000
838968.000000
839960.000000
840896.000000
841849.000000
842815.000000
843774.000000
844717.000000
845754.000000
846837.000000
847895.000000
848884.000000
849904.000000
850903.000000
851877.000000
852814.000000
853759.000000
854727.000000
855669.000000
856594.000000
857564.000000
858544.000000
859516.000000
860456.000000
861404.000000
862372.000000
863349.000000
864290.000000
865196.000000
866146.000000
867108.000000
868074.000000
868997.000000
869934.000000
870873.000000
871792.000000
872690.000000
873620.000000
874562.000000
875529.000000
876476.000000
877396.000000
878347.000000
879294.000000
880178.000000
881015.000000
881823.000000
882576.000000
883328.000000
884157.000000
885178.000000
886234.000000
887323.000000
888391.000000
889420.000000
890387.000000
891235.000000
892011.000000
892806.000000
893654.000000
894520.000000
895500.000000
896491.000000
897496.000000
898485.000000
