ECG (ms)
267.000000
1414.000000
2396.000000
3259.000000
4102.000000
5077.000000
6692.000000
8113.000000
9435.000000
10740.000000
11950.000000
12992.000000
13895.000000
14787.000000
16129.000000
17473.000000
18577.000000
19520.000000
20552.000000
21773.000000
22876.000000
23840.000000
24841.000000
26026.000000
27245.000000
28258.000000
29208.000000
30382.000000
31593.000000
32646.000000
33589.000000
34830.000000
36000.000000
36945.000000
37778.000000
38627.000000
39567.000000
40873.000000
42116.000000
43204.000000
44132.000000
45078.000000
46180.000000
47388.000000
48523.000000
49457.000000
50350.000000
51446.000000
52529.000000
53623.000000
54627.000000
55531.000000
56467.000000
57535.000000
58713.000000
59779.000000
60679.000000
61578.000000
62656.000000
63817.000000
64887.000000
65803.000000
66689.000000
67598.000000
68860.000000
70100.000000
71260.000000
72251.000000
73130.000000
74144.000000
75414.000000
76722.000000
77854.000000
78796.000000
79689.000000
80753.000000
82136.000000
83413.000000
84591.000000
85615.000000
86683.000000
87975.000000
89403.000000
90450.000000
91389.000000
92754.000000
94154.000000
95443.000000
96422.000000
97340.000000
98782.000000
100203.000000
101266.000000
102227.000000
103518.000000
104954.000000
106276.000000
107276.000000
108226.000000
109632.000000
110996.000000
112135.000000
113166.000000
114523.000000
115804.000000
116824.000000
117987.000000
119389.000000
120450.000000
121433.000000
122786.000000
124034.000000
125043.000000
126165.000000
127497.000000
128630.000000
129613.000000
130759.000000
131982.000000
133129.000000
134070.000000
135101.000000
136298.000000
137424.000000
138433.000000
139709.000000
141013.000000
142090.000000
143025.000000
144084.000000
145423.000000
146638.000000
147581.000000
148500.000000
149469.000000
150507.000000
151413.000000
152538.000000
153576.000000
154836.000000
156132.000000
157104.000000
158170.000000
159408.000000
160582.000000
161590.000000
162768.000000
164077.000000
165230.000000
166290.000000
167526.000000
168862.000000
169939.000000
171130.000000
172381.000000
173645.000000
174801.000000
176086.000000
177190.000000
178148.000000
179274.000000
180667.000000
181791.000000
183018.000000
184442.000000
185489.000000
186914.000000
188144.000000
189322.000000
190753.000000
191990.000000
193062.000000
194356.000000
195794.000000
196847.000000
198075.000000
199516.000000
200748.000000
201679.000000
202755.000000
204256.000000
205601.000000
206878.000000
208227.000000
209148.000000
209995.000000
211006.000000
212082.000000
213589.000000
214821.000000
216131.000000
217216.000000
218284.000000
219494.000000
220635.000000
221806.000000
223028.000000
224146.000000
225427.000000
226591.000000
227791.000000
229038.000000
230359.000000
231430.000000
232679.000000
233736.000000
234820.000000
236000.000000
237458.000000
238595.000000
239998.000000
241184.000000
242225.000000
243622.000000
244882.000000
246025.000000
247266.000000
248303.000000
249407.000000
250890.000000
251893.000000
253184.000000
254332.000000
255476.000000
256709.000000
257916.000000
258958.000000
259864.000000
261196.000000
262319.000000
263506.000000
264569.000000
265543.000000
266369.000000
267390.000000
268684.000000
269657.000000
270728.000000
272047.000000
273294.000000
274262.000000
275298.000000
276486.000000
277648.000000
278656.000000
279797.000000
280807.000000
282029.000000
283247.000000
284252.000000
285526.000000
286775.000000
287897.000000
289072.000000
290270.000000
291398.000000
292595.000000
293751.000000
294854.000000
296033.000000
297185.000000
298414.000000
299643.000000
301031.000000
302164.000000
303252.000000
304243.000000
305590.000000
307008.000000
308098.000000
309307.000000
310535.000000
311563.000000
313094.000000
314274.000000
315623.000000
316859.000000
317993.000000
319438.000000
320608.000000
321746.000000
323057.000000
324468.000000
325497.000000
326644.000000
328028.000000
329360.000000
330493.000000
331835.000000
332876.000000
334000.000000
335078.000000
336386.000000
337671.000000
338765.000000
339842.000000
341099.000000
342142.000000
343437.000000
344573.000000
345636.000000
347060.000000
348116.000000
349255.000000
350385.000000
351448.000000
352662.000000
353890.000000
354996.000000
356091.000000
357212.000000
358412.000000
359498.000000
360695.000000
361866.000000
362988.000000
364132.000000
365355.000000
366434.000000
367643.000000
368809.000000
369952.000000
371068.000000
372198.000000
373203.000000
374063.000000
374993.000000
376099.000000
377522.000000
378706.000000
379812.000000
380956.000000
382292.000000
383475.000000
384584.000000
385719.000000
386685.000000
387615.000000
389110.000000
390605.000000
391922.000000
393114.000000
394246.000000
395365.000000
396351.000000
397520.000000
398780.000000
399948.000000
400952.000000
401892.000000
402777.000000
403887.000000
405135.000000
406511.000000
407488.000000
408518.000000
409566.000000
410746.000000
411951.000000
413193.000000
414429.000000
415433.000000
416526.000000
417911.000000
419326.000000
420392.000000
421487.000000
422769.000000
424075.000000
425528.000000
427040.000000
428288.000000
429392.000000
430474.000000
432053.000000
433569.000000
434904.000000
436067.000000
437290.000000
438381.000000
439629.000000
441090.000000
442276.000000
443256.000000
444754.000000
446043.000000
447153.000000
448489.000000
449662.000000
450900.000000
452354.000000
453568.000000
454627.000000
455769.000000
457024.000000
458416.000000
459607.000000
460663.000000
461611.000000
463119.000000
464320.000000
465461.000000
466720.000000
467914.000000
469128.000000
470594.000000
471709.000000
472782.000000
473929.000000
475246.000000
476688.000000
478166.000000
479193.000000
480434.000000
481735.000000
482784.000000
484037.000000
485616.000000
486688.000000
488195.000000
489311.000000
490433.000000
491569.000000
492778.000000
493888.000000
495109.000000
496249.000000
497415.000000
498555.000000
499687.000000
500780.000000
501860.000000
502997.000000
504082.000000
505179.000000
506239.000000
507238.000000
508270.000000
509401.000000
510470.000000
511600.000000
512610.000000
513631.000000
514672.000000
515783.000000
516853.000000
517990.000000
519086.000000
520194.000000
521141.000000
522052.000000
522984.000000
523871.000000
524784.000000
525818.000000
526789.000000
527850.000000
528957.000000
530029.000000
531118.000000
532184.000000
533233.000000
534285.000000
535177.000000
536156.000000
537373.000000
538511.000000
539595.000000
540674.000000
541582.000000
542551.000000
543449.000000
544822.000000
546303.000000
547564.000000
548815.000000
549823.000000
550908.000000
552376.000000
553753.000000
554792.000000
555714.000000
556605.000000
558208.000000
559600.000000
560989.000000
562382.000000
563398.000000
564948.000000
566138.000000
567306.000000
568837.000000
570302.000000
571371.000000
572659.000000
573944.000000
575027.000000
576672.000000
578149.000000
579582.000000
580693.000000
582176.000000
583516.000000
584656.000000
585855.000000
587015.000000
588341.000000
589639.000000
591107.000000
592372.000000
593501.000000
594544.000000
596002.000000
597315.000000
598515.000000
599836.000000
601269.000000
602244.000000
603212.000000
604855.000000
606398.000000
607685.000000
608763.000000
610115.000000
611589.000000
612896.000000
614095.000000
615320.000000
616660.000000
617820.000000
619351.000000
620336.000000
621637.000000
622957.000000
624194.000000
625690.000000
627188.000000
628379.000000
629621.000000
630824.000000
632373.000000
633757.000000
635068.000000
636448.000000
637566.000000
638629.000000
639986.000000
641101.000000
642315.000000
643754.000000
644879.000000
646205.000000
647420.000000
648510.000000
649763.000000
651024.000000
652105.000000
653357.000000
654456.000000
655581.000000
656797.000000
657968.000000
659176.000000
660392.000000
661763.000000
662784.000000
664040.000000
665375.000000
666516.000000
667902.000000
669035.000000
670469.000000
671905.000000
672912.000000
673937.000000
674961.000000
675880.000000
676763.000000
678299.000000
679343.000000
680555.000000
681816.000000
682867.000000
684111.000000
685408.000000
686465.000000
687444.000000
688565.000000
689631.000000
691098.000000
692344.000000
693448.000000
694601.000000
695815.000000
696956.000000
698204.000000
699409.000000
700586.000000
701798.000000
703176.000000
704238.000000
705544.000000
706679.000000
707860.000000
709389.000000
710459.000000
711932.000000
712941.000000
714211.000000
715669.000000
716640.000000
718149.000000
719606.000000
720725.000000
722237.000000
723639.000000
725032.000000
726464.000000
727682.000000
728826.000000
730203.000000
731410.000000
732734.000000
734257.000000
735732.000000
736924.000000
738404.000000
739734.000000
740711.000000
742197.000000
743331.000000
744783.000000
746317.000000
747639.000000
749110.000000
750226.000000
751439.000000
752790.000000
753999.000000
755185.000000
756406.000000
757560.000000
758784.000000
760056.000000
761391.000000
762809.000000
763972.000000
765141.000000
766325.000000
767462.000000
768715.000000
769948.000000
771230.000000
772647.000000
773845.000000
775048.000000
776356.000000
777477.000000
779027.000000
780360.000000
781759.000000
783173.000000
784204.000000
785347.000000
786800.000000
787910.000000
788868.000000
789746.000000
790744.000000
791996.000000
793376.000000
794547.000000
795845.000000
797268.000000
798278.000000
799694.000000
800686.000000
802027.000000
803187.000000
804422.000000
805893.000000
807005.000000
808240.000000
809573.000000
810674.000000
812100.000000
813343.000000
814571.000000
815922.000000
817043.000000
818424.000000
819531.000000
820659.000000
821922.000000
823056.000000
824250.000000
825236.000000
826272.000000
827388.000000
828635.000000
829835.000000
830949.000000
832080.000000
833268.000000
834356.000000
835524.000000
836687.000000
837879.000000
838971.000000
840164.000000
841281.000000
842435.000000
843545.000000
844560.000000
845417.000000
846275.000000
847384.000000
848642.000000
849657.000000
850759.000000
851853.000000
852838.000000
853908.000000
855023.000000
856073.000000
857180.000000
858217.000000
859248.000000
860406.000000
861609.000000
862727.000000
864004.000000
865237.000000
866252.000000
867338.000000
868611.000000
869727.000000
870872.000000
871967.000000
873181.000000
874617.000000
875820.000000
876826.000000
878153.000000
879547.000000
880667.000000
882150.000000
883288.000000
884729.000000
885872.000000
887389.000000
888660.000000
889886.000000
891178.000000
892379.000000
893529.000000
894783.000000
896254.000000
897370.000000
898785.000000
900217.000000
901480.000000
902888.000000
904117.000000
905279.000000
906471.000000
907972.000000
909135.000000
910006.000000
910988.000000
912612.000000
913686.000000
914606.000000
916213.000000
917698.000000
919106.000000
920411.000000
921623.000000
