ECG (ms)
-8.000000
809.000000
1880.000000
2991.000000
4007.000000
5070.000000
6152.000000
7188.000000
8354.000000
9448.000000
10525.000000
11670.000000
12722.000000
13822.000000
15006.000000
16066.000000
17223.000000
18309.000000
19431.000000
20576.000000
21607.000000
22702.000000
23845.000000
24865.000000
25975.000000
27079.000000
28137.000000
29222.000000
30245.000000
31276.000000
32298.000000
33283.000000
34356.000000
35415.000000
36495.000000
37648.000000
38698.000000
39692.000000
40677.000000
41634.000000
42794.000000
43988.000000
45212.000000
46437.000000
47534.000000
48716.000000
49804.000000
50902.000000
52052.000000
53091.000000
54241.000000
55332.000000
56422.000000
57572.000000
58607.000000
59735.000000
60773.000000
61858.000000
63040.000000
64067.000000
65232.000000
66342.000000
67319.000000
68390.000000
69535.000000
70677.000000
71893.000000
73018.000000
74191.000000
75334.000000
76397.000000
77553.000000
78669.000000
79813.000000
81029.000000
82105.000000
83270.000000
84488.000000
85593.000000
86827.000000
87979.000000
89165.000000
90355.000000
91406.000000
92545.000000
93634.000000
94731.000000
95911.000000
97005.000000
98193.000000
99397.000000
100496.000000
101640.000000
102708.000000
103841.000000
105056.000000
106190.000000
107396.000000
108618.000000
109920.000000
111240.000000
112410.000000
113604.000000
114725.000000
115836.000000
117015.000000
118075.000000
119214.000000
120414.000000
121497.000000
122643.000000
123798.000000
124872.000000
125998.000000
127154.000000
128262.000000
129328.000000
130497.000000
131623.000000
132730.000000
133856.000000
134887.000000
135913.000000
137097.000000
138230.000000
139265.000000
140404.000000
141504.000000
142542.000000
143659.000000
144667.000000
145722.000000
146820.000000
147898.000000
149047.000000
150235.000000
151285.000000
152397.000000
153505.000000
154597.000000
155801.000000
156914.000000
158021.000000
159165.000000
160189.000000
161287.000000
162452.000000
163492.000000
164642.000000
165774.000000
166814.000000
167949.000000
168974.000000
170038.000000
171203.000000
172300.000000
173461.000000
174685.000000
175834.000000
177068.000000
178218.000000
179370.000000
180584.000000
181674.000000
182838.000000
184031.000000
185151.000000
186348.000000
187473.000000
188618.000000
189813.000000
190893.000000
192039.000000
193123.000000
194184.000000
195298.000000
196338.000000
197480.000000
198605.000000
199610.000000
200732.000000
201821.000000
202903.000000
204110.000000
205227.000000
206356.000000
207568.000000
208651.000000
209773.000000
210991.000000
212086.000000
213240.000000
214356.000000
215409.000000
216520.000000
217555.000000
218602.000000
219735.000000
220796.000000
221801.000000
222881.000000
223968.000000
225092.000000
226286.000000
227390.000000
228571.000000
229698.000000
230727.000000
231799.000000
232839.000000
233901.000000
235073.000000
236207.000000
237386.000000
238597.000000
239679.000000
240844.000000
241914.000000
242861.000000
243831.000000
244851.000000
245885.000000
247047.000000
248143.000000
249283.000000
250434.000000
251432.000000
252489.000000
253541.000000
254516.000000
255621.000000
256701.000000
257768.000000
258889.000000
259929.000000
260970.000000
262006.000000
262951.000000
264018.000000
265210.000000
266320.000000
267508.000000
268615.000000
269703.000000
270839.000000
271867.000000
273029.000000
274211.000000
275342.000000
276510.000000
277566.000000
278644.000000
279777.000000
280781.000000
281818.000000
282954.000000
283999.000000
285223.000000
286421.000000
287565.000000
288743.000000
289787.000000
290842.000000
291915.000000
292941.000000
294105.000000
295212.000000
296350.000000
297547.000000
298626.000000
299720.000000
300914.000000
302053.000000
303250.000000
304360.000000
305468.000000
306670.000000
307740.000000
308902.000000
310060.000000
311202.000000
312378.000000
313392.000000
314432.000000
315596.000000
316634.000000
317776.000000
318943.000000
320023.000000
321170.000000
322239.000000
323297.000000
324372.000000
325366.000000
326349.000000
327425.000000
328439.000000
329535.000000
330765.000000
331832.000000
332789.000000
333707.000000
334579.000000
335601.000000
336806.000000
337831.000000
338877.000000
339970.000000
340967.000000
342017.000000
343166.000000
344211.000000
345276.000000
346382.000000
347345.000000
348357.000000
349420.000000
350391.000000
351467.000000
352600.000000
353637.000000
354719.000000
355796.000000
356750.000000
357725.000000
358727.000000
359705.000000
360752.000000
361814.000000
362783.000000
363767.000000
364674.000000
365564.000000
366543.000000
367534.000000
368496.000000
369557.000000
370609.000000
371676.000000
372726.000000
373674.000000
374730.000000
375808.000000
376887.000000
378018.000000
379025.000000
380107.000000
381207.000000
382239.000000
383330.000000
384527.000000
385584.000000
386693.000000
387822.000000
388854.000000
390010.000000
391139.000000
392251.000000
393398.000000
394455.000000
395552.000000
396706.000000
397725.000000
398826.000000
400046.000000
401180.000000
402432.000000
403639.000000
404708.000000
405850.000000
406982.000000
408002.000000
409047.000000
410269.000000
411419.000000
412550.000000
413745.000000
414818.000000
415942.000000
417101.000000
418146.000000
419281.000000
420446.000000
421476.000000
422609.000000
423763.000000
424771.000000
425930.000000
427173.000000
428272.000000
429458.000000
430700.000000
431791.000000
432986.000000
434216.000000
435306.000000
436507.000000
437630.000000
438803.000000
439992.000000
441056.000000
442222.000000
443394.000000
444488.000000
445665.000000
446798.000000
447996.000000
449259.000000
450428.000000
451703.000000
452996.000000
454126.000000
455340.000000
456357.000000
457234.000000
458148.000000
459515.000000
460812.000000
461895.000000
463017.000000
464192.000000
465254.000000
466401.000000
467534.000000
468666.000000
469928.000000
471059.000000
472265.000000
473433.000000
474462.000000
475597.000000
476753.000000
477802.000000
478956.000000
480106.000000
481129.000000
482277.000000
483452.000000
484510.000000
485635.000000
486755.000000
487793.000000
488911.000000
490023.000000
491063.000000
492149.000000
493201.000000
494263.000000
495404.000000
496495.000000
497577.000000
498686.000000
499750.000000
500818.000000
501982.000000
503085.000000
504291.000000
505509.000000
506621.000000
507824.000000
509023.000000
510094.000000
511274.000000
512512.000000
513614.000000
514802.000000
516033.000000
517151.000000
518364.000000
519602.000000
520740.000000
521988.000000
523160.000000
524327.000000
525549.000000
526667.000000
527912.000000
529155.000000
530337.000000
531585.000000
532743.000000
533976.000000
535187.000000
536264.000000
537427.000000
538550.000000
539685.000000
540898.000000
542026.000000
543226.000000
544426.000000
545497.000000
546639.000000
547748.000000
548815.000000
549967.000000
551049.000000
552181.000000
553329.000000
554383.000000
555517.000000
556701.000000
557751.000000
558876.000000
559992.000000
561014.000000
562124.000000
563217.000000
564255.000000
565340.000000
566514.000000
567569.000000
568760.000000
569935.000000
571139.000000
572371.000000
573458.000000
574608.000000
575724.000000
576876.000000
578037.000000
579116.000000
580339.000000
581465.000000
582599.000000
583657.000000
584708.000000
585793.000000
586836.000000
587998.000000
589140.000000
590182.000000
591286.000000
592413.000000
593441.000000
594588.000000
595716.000000
596743.000000
597819.000000
598867.000000
599827.000000
600861.000000
601925.000000
602992.000000
604148.000000
605260.000000
606349.000000
607454.000000
608485.000000
609544.000000
610530.000000
611581.000000
612689.000000
613709.000000
614822.000000
615889.000000
616994.000000
618138.000000
619223.000000
620476.000000
621649.000000
622850.000000
624037.000000
625097.000000
626346.000000
627538.000000
628755.000000
630004.000000
631101.000000
632273.000000
633387.000000
634478.000000
635610.000000
636681.000000
637818.000000
638970.000000
640011.000000
641183.000000
642345.000000
643494.000000
644720.000000
645853.000000
647014.000000
648233.000000
649340.000000
650493.000000
651690.000000
652790.000000
654014.000000
655158.000000
656263.000000
657447.000000
658599.000000
659763.000000
660957.000000
662013.000000
663106.000000
664207.000000
665208.000000
666339.000000
667478.000000
668607.000000
669820.000000
670925.000000
672118.000000
673306.000000
674376.000000
675536.000000
676707.000000
677864.000000
679077.000000
680205.000000
681366.000000
682554.000000
683592.000000
684678.000000
685865.000000
686947.000000
688143.000000
689305.000000
690396.000000
691481.000000
692467.000000
693473.000000
694573.000000
695656.000000
696755.000000
697889.000000
698911.000000
699965.000000
701105.000000
702207.000000
703324.000000
704458.000000
705470.000000
706564.000000
707726.000000
708740.000000
709736.000000
710917.000000
712208.000000
713404.000000
714646.000000
715767.000000
716965.000000
718155.000000
719216.000000
720355.000000
721526.000000
722566.000000
723689.000000
724783.000000
725923.000000
727104.000000
728163.000000
729237.000000
730343.000000
731397.000000
732543.000000
733690.000000
734723.000000
735843.000000
736943.000000
737967.000000
739040.000000
740041.000000
741027.000000
742114.000000
743177.000000
744272.000000
745433.000000
746511.000000
747541.000000
748562.000000
749519.000000
750492.000000
751563.000000
752596.000000
753713.000000
754842.000000
755901.000000
757002.000000
758098.000000
759062.000000
760098.000000
761184.000000
762183.000000
763283.000000
764449.000000
765489.000000
766587.000000
767665.000000
768613.000000
769611.000000
770658.000000
771624.000000
772660.000000
773771.000000
774826.000000
775896.000000
777019.000000
778062.000000
779157.000000
780293.000000
781300.000000
782403.000000
783493.000000
784517.000000
785661.000000
786711.000000
787780.000000
788881.000000
789894.000000
790965.000000
792109.000000
793174.000000
794374.000000
795542.000000
796599.000000
797736.000000
798839.000000
799951.000000
801153.000000
802288.000000
803481.000000
804610.000000
805699.000000
806779.000000
807775.000000
808846.000000
810019.000000
811044.000000
812149.000000
813207.000000
814262.000000
815452.000000
816593.000000
817792.000000
819057.000000
820200.000000
821378.000000
822616.000000
823741.000000
824938.000000
826174.000000
827304.000000
828535.000000
829717.000000
830921.000000
832185.000000
833345.000000
834554.000000
835759.000000
836916.000000
838141.000000
839317.000000
840542.000000
841784.000000
842913.000000
844079.000000
845299.000000
846436.000000
847660.000000
848838.000000
849967.000000
851144.000000
852235.000000
853363.000000
854559.000000
855671.000000
856862.000000
858074.000000
859146.000000
860267.000000
861430.000000
862495.000000
863643.000000
864819.000000
865902.000000
867040.000000
868076.000000
869114.000000
870227.000000
871306.000000
872415.000000
873576.000000
874623.000000
875705.000000
876809.000000
877802.000000
878927.000000
880120.000000
881194.000000
882335.000000
883491.000000
884567.000000
885713.000000
886879.000000
887987.000000
889184.000000
890278.000000
891372.000000
892480.000000
893499.000000
894600.000000
895767.000000
896899.000000
898056.000000
899222.000000
900242.000000
901331.000000
902441.000000
903493.000000
904614.000000
905682.000000
906721.000000
907776.000000
908816.000000
909908.000000
911093.000000
912179.000000
913344.000000
914542.000000
915623.000000
916755.000000
917909.000000
918941.000000
920047.000000
921223.000000
922280.000000
923441.000000
924598.000000
925693.000000
926869.000000
927978.000000
929026.000000
930112.000000
931140.000000
932182.000000
933286.000000
934303.000000
935372.000000
936472.000000
937492.000000
938603.000000
939721.000000
940748.000000
941913.000000
943036.000000
944141.000000
945336.000000
946412.000000
947537.000000
948636.000000
949640.000000
950740.000000
951941.000000
953025.000000
954201.000000
955357.000000
956462.000000
957609.000000
958678.000000
959764.000000
960896.000000
961985.000000
963082.000000
964243.000000
965359.000000
966555.000000
967751.000000
968885.000000
970087.000000
971255.000000
972387.000000
973619.000000
974747.000000
975970.000000
977220.000000
978318.000000
979507.000000
980662.000000
981790.000000
982982.000000
984093.000000
985316.000000
986542.000000
987719.000000
989001.000000
990155.000000
991355.000000
992552.000000
993664.000000
994918.000000
996074.000000
997204.000000
998409.000000
999507.000000
1000662.000000
1001865.000000
1002911.000000
1004010.000000
1005167.000000
1006194.000000
1007290.000000
1008397.000000
1009365.000000
1010360.000000
1011409.000000
1012400.000000
1013467.000000
1014585.000000
1015600.000000
1016690.000000
1017757.000000
1018704.000000
1019768.000000
1020858.000000
1021884.000000
1023022.000000
1024139.000000
1025225.000000
1026382.000000
1027508.000000
1028561.000000
1029611.000000
1030573.000000
1031572.000000
1032704.000000
1033849.000000
1035011.000000
1036193.000000
1037264.000000
1038435.000000
1039653.000000
1040722.000000
1041830.000000
1042929.000000
1043959.000000
1045130.000000
1046256.000000
1047395.000000
1048527.000000
1049523.000000
1050597.000000
1051726.000000
1052781.000000
1053899.000000
1054977.000000
1055952.000000
1057003.000000
1058066.000000
1059100.000000
1060197.000000
1061279.000000
1062421.000000
1063585.000000
1064665.000000
1065746.000000
1066704.000000
1067764.000000
1068833.000000
1069912.000000
1071105.000000
1072231.000000
1073365.000000
1074511.000000
1075496.000000
1076539.000000
1077630.000000
1078679.000000
1079868.000000
1080970.000000
1082082.000000
1083230.000000
1084286.000000
1085425.000000
1086590.000000
1087704.000000
1088912.000000
1090041.000000
1091214.000000
1092385.000000
1093454.000000
1094661.000000
1095863.000000
1097071.000000
1098329.000000
1099477.000000
1100634.000000
1101794.000000
1102849.000000
1104021.000000
1105064.000000
1106170.000000
1107421.000000
1108477.000000
1109605.000000
1110774.000000
1111804.000000
1112919.000000
1113974.000000
1115015.000000
1116109.000000
1117158.000000
1118241.000000
1119338.000000
1120310.000000
1121316.000000
1122388.000000
1123383.000000
1124482.000000
1125544.000000
1126596.000000
1127721.000000
1128788.000000
1129855.000000
1130944.000000
1131916.000000
1132981.000000
1134354.000000
1135533.000000
1136772.000000
1137951.000000
1139073.000000
1140223.000000
1141276.000000
1142442.000000
1143673.000000
1144782.000000
1145991.000000
1147217.000000
1148317.000000
1149503.000000
1150699.000000
1151810.000000
1152975.000000
1154062.000000
1155202.000000
1156392.000000
1157472.000000
1158648.000000
1159775.000000
1160869.000000
1162070.000000
1163234.000000
1164414.000000
1165559.000000
1166583.000000
1167673.000000
1168694.000000
1169695.000000
1170835.000000
1171929.000000
1173036.000000
1174149.000000
1175127.000000
1176161.000000
1177290.000000
1178361.000000
1179438.000000
1180550.000000
1181554.000000
1182606.000000
1183687.000000
1184711.000000
1185750.000000
1186864.000000
1187881.000000
1188953.000000
1190069.000000
1191104.000000
1192180.000000
1193297.000000
1194253.000000
1195256.000000
1196308.000000
1197356.000000
1198414.000000
1199503.000000
1200516.000000
1201578.000000
1202680.000000
1203726.000000
1204833.000000
1205992.000000
1207050.000000
1208126.000000
1209234.000000
1210348.000000
1211528.000000
1212800.000000
1213946.000000
1215099.000000
1216176.000000
1217299.000000
1218457.000000
1219528.000000
1220711.000000
1221929.000000
1223126.000000
1224236.000000
1225208.000000
1226343.000000
1227476.000000
1228615.000000
1229741.000000
1230866.000000
1231948.000000
1232916.000000
1233953.000000
1234949.000000
1235995.000000
1237041.000000
1238017.000000
1239125.000000
1240231.000000
1241307.000000
1242442.000000
1243439.000000
1244493.000000
1245538.000000
1246484.000000
1247481.000000
1248469.000000
1249383.000000
1250371.000000
1251622.000000
1252770.000000
1253915.000000
1255015.000000
1255971.000000
1256932.000000
1257914.000000
1258869.000000
1259923.000000
1261048.000000
1262070.000000
1263166.000000
1264210.000000
1265205.000000
1266212.000000
1267130.000000
1268046.000000
1268989.000000
1269934.000000
1270894.000000
1271938.000000
1272962.000000
1273946.000000
1274959.000000
1275898.000000
1276876.000000
1277920.000000
1278940.000000
1279966.000000
1280998.000000
1281955.000000
1282933.000000
1283938.000000
1284900.000000
1285890.000000
1286963.000000
1287995.000000
1289087.000000
1290195.000000
1291206.000000
1292325.000000
1293395.000000
1294436.000000
1295522.000000
1296528.000000
1297529.000000
1298564.000000
1299638.000000
1300668.000000
1301840.000000
1302890.000000
1303977.000000
1305080.000000
1306065.000000
1307080.000000
1308175.000000
1309271.000000
1310384.000000
1311566.000000
1312585.000000
1313585.000000
1314598.000000
1315543.000000
1316568.000000
1317718.000000
1318845.000000
1319951.000000
1321063.000000
1322070.000000
1323128.000000
1324219.000000
1325197.000000
1326192.000000
1327222.000000
1328240.000000
1329268.000000
1330363.000000
1331408.000000
1332459.000000
1333546.000000
1334584.000000
1335661.000000
1336792.000000
1337850.000000
1338920.000000
1340017.000000
1341019.000000
1342121.000000
1343267.000000
1344326.000000
1345516.000000
1346656.000000
1347726.000000
1348822.000000
1349778.000000
1350794.000000
1351859.000000
1352842.000000
1353896.000000
1354959.000000
1355938.000000
1357045.000000
1358163.000000
1359228.000000
1360296.000000
1361245.000000
1362245.000000
1363310.000000
1364317.000000
1365436.000000
1366630.000000
1367813.000000
1368998.000000
1370206.000000
1371269.000000
1372338.000000
1373413.000000
1374382.000000
1375458.000000
1376678.000000
1377789.000000
1378953.000000
1380143.000000
1381357.000000
1382609.000000
1383781.000000
1384907.000000
1386012.000000
1387006.000000
1388084.000000
1389231.000000
1390454.000000
1391670.000000
1392895.000000
1394032.000000
1394990.000000
1395961.000000
1397004.000000
1398062.000000
1399220.000000
1400301.000000
1401374.000000
1402423.000000
1403368.000000
1404350.000000
1405347.000000
1406307.000000
1407287.000000
1408309.000000
1409253.000000
1410278.000000
1411346.000000
1412358.000000
1413422.000000
1414469.000000
1415380.000000
1416336.000000
1417299.000000
1418233.000000
1419200.000000
1420290.000000
1421267.000000
1422271.000000
1423324.000000
1424270.000000
1425283.000000
1426341.000000
1427366.000000
1428497.000000
1429559.000000
1430622.000000
1431694.000000
1432647.000000
1433667.000000
1434772.000000
1435734.000000
1436843.000000
1437964.000000
1438934.000000
1439963.000000
1440989.000000
1441890.000000
1442864.000000
1443928.000000
1444941.000000
1446054.000000
1447204.000000
1448193.000000
1449245.000000
1450350.000000
1451348.000000
1452430.000000
1453499.000000
1454511.000000
1455557.000000
1456728.000000
1457878.000000
1459035.000000
1460224.000000
1461273.000000
1462343.000000
1463416.000000
1464386.000000
1465497.000000
1466711.000000
1467861.000000
1469031.000000
1470249.000000
1471331.000000
1472531.000000
1473715.000000
1474903.000000
1476122.000000
1477218.000000
1478361.000000
1479411.000000
1480580.000000
1481787.000000
1482971.000000
1484152.000000
1485172.000000
1486293.000000
1487432.000000
1488627.000000
1490012.000000
1491169.000000
1492381.000000
1493537.000000
1494718.000000
1495932.000000
1497053.000000
1498240.000000
1499379.000000
1500451.000000
1501550.000000
1502579.000000
1503679.000000
1504987.000000
1506130.000000
1507340.000000
1508569.000000
1509667.000000
1510862.000000
1511931.000000
1513051.000000
1514214.000000
1515300.000000
1516510.000000
1517658.000000
1518803.000000
1520024.000000
1521139.000000
1522307.000000
1523521.000000
1524660.000000
1525786.000000
1526957.000000
1527974.000000
1529032.000000
1530134.000000
1531178.000000
1532268.000000
1533422.000000
1534448.000000
1535499.000000
1536643.000000
1537703.000000
1538746.000000
1539785.000000
1540779.000000
1541790.000000
1542947.000000
1544161.000000
1545354.000000
1546516.000000
1547643.000000
1548670.000000
1549701.000000
1550740.000000
1551772.000000
1552753.000000
1553757.000000
1554699.000000
1555653.000000
1556528.000000
1557452.000000
1558384.000000
1559386.000000
1560425.000000
1561447.000000
1562497.000000
1563551.000000
1564458.000000
1565428.000000
1566460.000000
1567505.000000
1568684.000000
1569687.000000
1570733.000000
1571887.000000
1572850.000000
1573904.000000
1574927.000000
1575917.000000
1577027.000000
1578080.000000
1579201.000000
1580329.000000
1581367.000000
1582456.000000
1583492.000000
1584521.000000
1585572.000000
1586535.000000
1587548.000000
1588603.000000
1589615.000000
1590734.000000
1591776.000000
1592873.000000
1593974.000000
1595068.000000
1596224.000000
1597237.000000
1598272.000000
1599315.000000
1600331.000000
1601401.000000
1602412.000000
1603584.000000
1604702.000000
1605804.000000
1606882.000000
1607844.000000
1608897.000000
1609942.000000
1611078.000000
1612273.000000
1613373.000000
1614547.000000
1615599.000000
1616731.000000
1617823.000000
1618929.000000
1620083.000000
1621108.000000
1622222.000000
1623286.000000
1624341.000000
1625477.000000
1626529.000000
1627675.000000
1628832.000000
1629922.000000
1631012.000000
1631994.000000
1633050.000000
1634153.000000
1635203.000000
1636351.000000
1637412.000000
1638498.000000
1639575.000000
1640542.000000
1641569.000000
1642607.000000
1643640.000000
1644734.000000
1645780.000000
1646894.000000
1648040.000000
1649075.000000
1650150.000000
1651191.000000
1652228.000000
1653328.000000
1654385.000000
1655460.000000
1656592.000000
1657663.000000
1658779.000000
1659903.000000
1660921.000000
1661998.000000
1663039.000000
1664059.000000
1665140.000000
1666246.000000
1667420.000000
1668564.000000
1669580.000000
1670666.000000
1671702.000000
1672750.000000
1673858.000000
1674884.000000
1676041.000000
1677222.000000
1678265.000000
1679374.000000
1680447.000000
1681511.000000
1682648.000000
1683700.000000
1684817.000000
1686015.000000
1687125.000000
1688324.000000
1689460.000000
1690571.000000
1691767.000000
1692854.000000
1694013.000000
1695170.000000
1696220.000000
1697374.000000
1698483.000000
1699645.000000
1700892.000000
1702003.000000
1703198.000000
1704291.000000
1705378.000000
1706541.000000
1707606.000000
1708701.000000
1709805.000000
1710827.000000
1711951.000000
1713058.000000
1714171.000000
1715331.000000
1716400.000000
1717613.000000
1718815.000000
1719924.000000
1721082.000000
1722162.000000
1723226.000000
1724346.000000
1725433.000000
1726574.000000
1727805.000000
1728903.000000
1730103.000000
1731270.000000
1732360.000000
1733544.000000
1734682.000000
1735794.000000
1736948.000000
1738037.000000
1739177.000000
1740370.000000
1741434.000000
1742593.000000
1743721.000000
1744863.000000
1746042.000000
1747141.000000
1748293.000000
1749469.000000
1750531.000000
1751676.000000
1752833.000000
1753954.000000
1755109.000000
1756134.000000
1757233.000000
1758425.000000
1759532.000000
1760693.000000
1761751.000000
1762833.000000
1763932.000000
1764942.000000
1766034.000000
1767233.000000
1768351.000000
1769527.000000
1770689.000000
1771788.000000
1772955.000000
1774013.000000
1775036.000000
1776114.000000
1777173.000000
1778135.000000
1779248.000000
1780504.000000
1781598.000000
1782757.000000
1783925.000000
1784955.000000
1785999.000000
1787074.000000
1788091.000000
1789128.000000
1790224.000000
1791279.000000
1792357.000000
1793522.000000
1794649.000000
1795777.000000
1796896.000000
1797938.000000
1798977.000000
1800026.000000
