ECG (ms)
207.000000
871.000000
1523.000000
2159.000000
2783.000000
3413.000000
4058.000000
4711.000000
5367.000000
6004.000000
6655.000000
7298.000000
7942.000000
8578.000000
9203.000000
9832.000000
10488.000000
11212.000000
11868.000000
12686.000000
13476.000000
14322.000000
15161.000000
15906.000000
16666.000000
17372.000000
18042.000000
18698.000000
19360.000000
20015.000000
20656.000000
21268.000000
21858.000000
22446.000000
23055.000000
23781.000000
24529.000000
25291.000000
26028.000000
26671.000000
27454.000000
28119.000000
28892.000000
29526.000000
30167.000000
30816.000000
31467.000000
32118.000000
32767.000000
33406.000000
34033.000000
34665.000000
35383.000000
36116.000000
36846.000000
37570.000000
38200.000000
38837.000000
39472.000000
40110.000000
40752.000000
41405.000000
42060.000000
42717.000000
43451.000000
44177.000000
44906.000000
45561.000000
46188.000000
46782.000000
47358.000000
47931.000000
48510.000000
49106.000000
49731.000000
50418.000000
51095.000000
51762.000000
52442.000000
53138.000000
53841.000000
54528.000000
55166.000000
55796.000000
56424.000000
57066.000000
57696.000000
58329.000000
58952.000000
59566.000000
60181.000000
60819.000000
61467.000000
62133.000000
62820.000000
63482.000000
64122.000000
64795.000000
65451.000000
66089.000000
66695.000000
67274.000000
67838.000000
68390.000000
68941.000000
69497.000000
70067.000000
70672.000000
71347.000000
72106.000000
72815.000000
73507.000000
74202.000000
74915.000000
75632.000000
76354.000000
77052.000000
77717.000000
78388.000000
79069.000000
79757.000000
80451.000000
81165.000000
81852.000000
82533.000000
83216.000000
83923.000000
84648.000000
85383.000000
86108.000000
86798.000000
87458.000000
88126.000000
88826.000000
89537.000000
90276.000000
91007.000000
91665.000000
92401.000000
93054.000000
93824.000000
94586.000000
95365.000000
96105.000000
96749.000000
97407.000000
98064.000000
98789.000000
99432.000000
100076.000000
100687.000000
101288.000000
101900.000000
102527.000000
103208.000000
103938.000000
104661.000000
105357.000000
106066.000000
106792.000000
107521.000000
108208.000000
108883.000000
109546.000000
110203.000000
110871.000000
111545.000000
112270.000000
112990.000000
113733.000000
114527.000000
115324.000000
116057.000000
116800.000000
117501.000000
118175.000000
118862.000000
119559.000000
120263.000000
120940.000000
121603.000000
122270.000000
122908.000000
123528.000000
124157.000000
124801.000000
125452.000000
126136.000000
126932.000000
127713.000000
128466.000000
129129.000000
129825.000000
130529.000000
131241.000000
131953.000000
132636.000000
133323.000000
134023.000000
134802.000000
135485.000000
136245.000000
137009.000000
137795.000000
138574.000000
139264.000000
139985.000000
140731.000000
141498.000000
142326.000000
143022.000000
143810.000000
144604.000000
145396.000000
146086.000000
146800.000000
147609.000000
148318.000000
149187.000000
149991.000000
150762.000000
151459.000000
152290.000000
153103.000000
153803.000000
154474.000000
155121.000000
155766.000000
156417.000000
157079.000000
157761.000000
158534.000000
159201.000000
159955.000000
160606.000000
161378.000000
162135.000000
162901.000000
163640.000000
164294.000000
164964.000000
165641.000000
166412.000000
167152.000000
167908.000000
168643.000000
169303.000000
169986.000000
170734.000000
171397.000000
172164.000000
172820.000000
173550.000000
174216.000000
174939.000000
175558.000000
176190.000000
176821.000000
177444.000000
178076.000000
178760.000000
179433.000000
180109.000000
180772.000000
181419.000000
182065.000000
182715.000000
183387.000000
184072.000000
184764.000000
185453.000000
186138.000000
186783.000000
187427.000000
188073.000000
188722.000000
189408.000000
190051.000000
190690.000000
191306.000000
191908.000000
192510.000000
193121.000000
193739.000000
194363.000000
194999.000000
195627.000000
196255.000000
196885.000000
197524.000000
198167.000000
198811.000000
199435.000000
200057.000000
200681.000000
201320.000000
201960.000000
202609.000000
203266.000000
203907.000000
204567.000000
205235.000000
205921.000000
206621.000000
207308.000000
207945.000000
208657.000000
209345.000000
210021.000000
210693.000000
211330.000000
211940.000000
212534.000000
213119.000000
213705.000000
214301.000000
214912.000000
215593.000000
216372.000000
217129.000000
217856.000000
218576.000000
219298.000000
219958.000000
220653.000000
221322.000000
221977.000000
222650.000000
223320.000000
223967.000000
224582.000000
225175.000000
225773.000000
226391.000000
227032.000000
227723.000000
228460.000000
229174.000000
229895.000000
230657.000000
231415.000000
232149.000000
232816.000000
233510.000000
234224.000000
234913.000000
235606.000000
236300.000000
237007.000000
237734.000000
238527.000000
239253.000000
239986.000000
240788.000000
241572.000000
242353.000000
243031.000000
243735.000000
244442.000000
245162.000000
245890.000000
246598.000000
247295.000000
248024.000000
248797.000000
249664.000000
250368.000000
251080.000000
251786.000000
252508.000000
253222.000000
253905.000000
254554.000000
255191.000000
255857.000000
256613.000000
257356.000000
258013.000000
258783.000000
259547.000000
260316.000000
260996.000000
261760.000000
262530.000000
263293.000000
263969.000000
264731.000000
265432.000000
266262.000000
267089.000000
267888.000000
268724.000000
269590.000000
270441.000000
271261.000000
272106.000000
272940.000000
273735.000000
274436.000000
275198.000000
276013.000000
276938.000000
277811.000000
278732.000000
279584.000000
280406.000000
281130.000000
281881.000000
282654.000000
283455.000000
284226.000000
284980.000000
285850.000000
286652.000000
287345.000000
288102.000000
288879.000000
289661.000000
290386.000000
291094.000000
291828.000000
292538.000000
293204.000000
293843.000000
294477.000000
295125.000000
295795.000000
296584.000000
297256.000000
298012.000000
298653.000000
299327.000000
300023.000000
300716.000000
301388.000000
302044.000000
302704.000000
303385.000000
304151.000000
304897.000000
305560.000000
306333.000000
306998.000000
307814.000000
308603.000000
309387.000000
310134.000000
310793.000000
311452.000000
312111.000000
312765.000000
313424.000000
314198.000000
314958.000000
315701.000000
316471.000000
317303.000000
318148.000000
318955.000000
319631.000000
320337.000000
321040.000000
321740.000000
322473.000000
323266.000000
323957.000000
324667.000000
325348.000000
326015.000000
326687.000000
327384.000000
328175.000000
328923.000000
329574.000000
330209.000000
330844.000000
331482.000000
332141.000000
332903.000000
333651.000000
334409.000000
335125.000000
335787.000000
336523.000000
337178.000000
337850.000000
338515.000000
339157.000000
339795.000000
340444.000000
341189.000000
341950.000000
342737.000000
343496.000000
344254.000000
345032.000000
345790.000000
346443.000000
347104.000000
347754.000000
348415.000000
349076.000000
349732.000000
350374.000000
351013.000000
351659.000000
352400.000000
353042.000000
353761.000000
354379.000000
355085.000000
355717.000000
356420.000000
357025.000000
357648.000000
358268.000000
358888.000000
359508.000000
360123.000000
360725.000000
361329.000000
361936.000000
362554.000000
363168.000000
363769.000000
364380.000000
364995.000000
365602.000000
366190.000000
366779.000000
367363.000000
367946.000000
368537.000000
369142.000000
369771.000000
370382.000000
370987.000000
371590.000000
372201.000000
372831.000000
373456.000000
374102.000000
374741.000000
375373.000000
376013.000000
376671.000000
377346.000000
378028.000000
378699.000000
379375.000000
380072.000000
380768.000000
381441.000000
382098.000000
382768.000000
383438.000000
384115.000000
384774.000000
385447.000000
386124.000000
386788.000000
387440.000000
388062.000000
388663.000000
389267.000000
389878.000000
390491.000000
391119.000000
391754.000000
392397.000000
393056.000000
393731.000000
394400.000000
395051.000000
395703.000000
396367.000000
397030.000000
397709.000000
398388.000000
399070.000000
399797.000000
400553.000000
401315.000000
402056.000000
402798.000000
403544.000000
404282.000000
405000.000000
405719.000000
406434.000000
407146.000000
407834.000000
408532.000000
409257.000000
409988.000000
410713.000000
411415.000000
412144.000000
412877.000000
413607.000000
414311.000000
415035.000000
415790.000000
416529.000000
417264.000000
418019.000000
418788.000000
419534.000000
420253.000000
420942.000000
421636.000000
422353.000000
423056.000000
423719.000000
424369.000000
425025.000000
425712.000000
426432.000000
427194.000000
427982.000000
428739.000000
429406.000000
430189.000000
430866.000000
431622.000000
432263.000000
432917.000000
433581.000000
434272.000000
435011.000000
435882.000000
436655.000000
437343.000000
438154.000000
438993.000000
439838.000000
440576.000000
441280.000000
441995.000000
442687.000000
443372.000000
444027.000000
444683.000000
445359.000000
446042.000000
446831.000000
447491.000000
448280.000000
449053.000000
449752.000000
450475.000000
451186.000000
451920.000000
452653.000000
453353.000000
454040.000000
454748.000000
455471.000000
456204.000000
456909.000000
457622.000000
458446.000000
459121.000000
459901.000000
460554.000000
461268.000000
462071.000000
462739.000000
463442.000000
464267.000000
464957.000000
465667.000000
466346.000000
466985.000000
467602.000000
468212.000000
468836.000000
469588.000000
470379.000000
471202.000000
471997.000000
472815.000000
473615.000000
474314.000000
475007.000000
475665.000000
476313.000000
476969.000000
477646.000000
478435.000000
479179.000000
479851.000000
480703.000000
481543.000000
482378.000000
483178.000000
483861.000000
484545.000000
485196.000000
485825.000000
486470.000000
487147.000000
487876.000000
488617.000000
489339.000000
490004.000000
490652.000000
491295.000000
491938.000000
492596.000000
493279.000000
493971.000000
494673.000000
495341.000000
496001.000000
496670.000000
497343.000000
498015.000000
498683.000000
499336.000000
499998.000000
500675.000000
501361.000000
502036.000000
502721.000000
503453.000000
504216.000000
504966.000000
505679.000000
506442.000000
507211.000000
507962.000000
508663.000000
509386.000000
510099.000000
510804.000000
511494.000000
512212.000000
512976.000000
513811.000000
514596.000000
515339.000000
516150.000000
516992.000000
517821.000000
518608.000000
519345.000000
520095.000000
520838.000000
521566.000000
522269.000000
522995.000000
523773.000000
524662.000000
525462.000000
526253.000000
527142.000000
527936.000000
528766.000000
529486.000000
530196.000000
530894.000000
531602.000000
532356.000000
533186.000000
533980.000000
534663.000000
535339.000000
536011.000000
536710.000000
537500.000000
538266.000000
538949.000000
539744.000000
540531.000000
541326.000000
542112.000000
542799.000000
543617.000000
544306.000000
544998.000000
545682.000000
546486.000000
547306.000000
548160.000000
549048.000000
549981.000000
550878.000000
551607.000000
552375.000000
553148.000000
553922.000000
554655.000000
555382.000000
556145.000000
556903.000000
557647.000000
558426.000000
559278.000000
560137.000000
560927.000000
561746.000000
562542.000000
563268.000000
563986.000000
564724.000000
565468.000000
566203.000000
566957.000000
567776.000000
568634.000000
569440.000000
570334.000000
571091.000000
571858.000000
572585.000000
573320.000000
574064.000000
574807.000000
575525.000000
576299.000000
577136.000000
577980.000000
578771.000000
579620.000000
580458.000000
581209.000000
581942.000000
582681.000000
583401.000000
584119.000000
584899.000000
585725.000000
586495.000000
587295.000000
588115.000000
588871.000000
589593.000000
590279.000000
590953.000000
591672.000000
592438.000000
593294.000000
594078.000000
594777.000000
595458.000000
596118.000000
596769.000000
597422.000000
598102.000000
598885.000000
599652.000000
600437.000000
601127.000000
601849.000000
602593.000000
603350.000000
604120.000000
604821.000000
605502.000000
606187.000000
606877.000000
607572.000000
608281.000000
609178.000000
610111.000000
611002.000000
611860.000000
612667.000000
613493.000000
614226.000000
614971.000000
615704.000000
616439.000000
617156.000000
617887.000000
618703.000000
619561.000000
620364.000000
621146.000000
621952.000000
622756.000000
623527.000000
624232.000000
624942.000000
625675.000000
626410.000000
627170.000000
627980.000000
628771.000000
629577.000000
630292.000000
630989.000000
631650.000000
632296.000000
632957.000000
633618.000000
634284.000000
634934.000000
635583.000000
636256.000000
637002.000000
637682.000000
638372.000000
639057.000000
639774.000000
640499.000000
641200.000000
641881.000000
642573.000000
643278.000000
643994.000000
644681.000000
645362.000000
646072.000000
646858.000000
647530.000000
648220.000000
648889.000000
649540.000000
650184.000000
650872.000000
651680.000000
652492.000000
653311.000000
654038.000000
654744.000000
655426.000000
656108.000000
656792.000000
657462.000000
658111.000000
658742.000000
659366.000000
659998.000000
660656.000000
661344.000000
662058.000000
662766.000000
663446.000000
664166.000000
664885.000000
665611.000000
666319.000000
667004.000000
667695.000000
668409.000000
669163.000000
669933.000000
670678.000000
671445.000000
672220.000000
673019.000000
673805.000000
674500.000000
675243.000000
675965.000000
676696.000000
677412.000000
678109.000000
678835.000000
679566.000000
680286.000000
681012.000000
681796.000000
682613.000000
683424.000000
684154.000000
684913.000000
685652.000000
686343.000000
687050.000000
687751.000000
688428.000000
689070.000000
689694.000000
690341.000000
691024.000000
691778.000000
692440.000000
693249.000000
694047.000000
694823.000000
695588.000000
696378.000000
697128.000000
697791.000000
698434.000000
699059.000000
699690.000000
700401.000000
701358.000000
702336.000000
703209.000000
704054.000000
704890.000000
705694.000000
706450.000000
707129.000000
707845.000000
708560.000000
709285.000000
709991.000000
710686.000000
711404.000000
712127.000000
712818.000000
713499.000000
714196.000000
714892.000000
715587.000000
716256.000000
716941.000000
717594.000000
718234.000000
718876.000000
719505.000000
720140.000000
720831.000000
721515.000000
722174.000000
722869.000000
723573.000000
724289.000000
725015.000000
725722.000000
726449.000000
727193.000000
728005.000000
728688.000000
729467.000000
730168.000000
730915.000000
731619.000000
732352.000000
733088.000000
733811.000000
734514.000000
735276.000000
736120.000000
736912.000000
737681.000000
738361.000000
739179.000000
739866.000000
740583.000000
741274.000000
742079.000000
742859.000000
743672.000000
744447.000000
745250.000000
745984.000000
746814.000000
747486.000000
748225.000000
748970.000000
749695.000000
750389.000000
751091.000000
751803.000000
752495.000000
753168.000000
753868.000000
754566.000000
755327.000000
755959.000000
756582.000000
757197.000000
757824.000000
758458.000000
759166.000000
759778.000000
760413.000000
761148.000000
761790.000000
762530.000000
763150.000000
763783.000000
764436.000000
765085.000000
765736.000000
766374.000000
767001.000000
767645.000000
768378.000000
769007.000000
769651.000000
770324.000000
771072.000000
771730.000000
772394.000000
773048.000000
773726.000000
774403.000000
775079.000000
775734.000000
776386.000000
777058.000000
777741.000000
778432.000000
779097.000000
779741.000000
780401.000000
781069.000000
781743.000000
782417.000000
783077.000000
783768.000000
784488.000000
785285.000000
785962.000000
786665.000000
787357.000000
788072.000000
788787.000000
789489.000000
790169.000000
790860.000000
791567.000000
792265.000000
792932.000000
793616.000000
794297.000000
794953.000000
795587.000000
796210.000000
796855.000000
797570.000000
798277.000000
798929.000000
799658.000000
800328.000000
801018.000000
801705.000000
802367.000000
803052.000000
803824.000000
804561.000000
805288.000000
805962.000000
806748.000000
807487.000000
808180.000000
808867.000000
809586.000000
810302.000000
811014.000000
811704.000000
812436.000000
813281.000000
814111.000000
814899.000000
815574.000000
816294.000000
817035.000000
817780.000000
818502.000000
819186.000000
819857.000000
820541.000000
821238.000000
821954.000000
822759.000000
823423.000000
824116.000000
824813.000000
825614.000000
826327.000000
827174.000000
827954.000000
828630.000000
829335.000000
830070.000000
830832.000000
831663.000000
832356.000000
833059.000000
833749.000000
834439.000000
835154.000000
835878.000000
836554.000000
837214.000000
837889.000000
838695.000000
839497.000000
840302.000000
841067.000000
841737.000000
842468.000000
843184.000000
843883.000000
844556.000000
845221.000000
845909.000000
846640.000000
847456.000000
848223.000000
848905.000000
849673.000000
850512.000000
851289.000000
851984.000000
852682.000000
853377.000000
854098.000000
854838.000000
855647.000000
856327.000000
857012.000000
857699.000000
858486.000000
859179.000000
859996.000000
860680.000000
861449.000000
862145.000000
862962.000000
863656.000000
864353.000000
865044.000000
865780.000000
866528.000000
867265.000000
867978.000000
868712.000000
869525.000000
870235.000000
870967.000000
871677.000000
872383.000000
873099.000000
873808.000000
874514.000000
875198.000000
875889.000000
876693.000000
877498.000000
878307.000000
879077.000000
879727.000000
880376.000000
881020.000000
881692.000000
882413.000000
883297.000000
884057.000000
884849.000000
885576.000000
886246.000000
886889.000000
887517.000000
888142.000000
888779.000000
889437.000000
890157.000000
890886.000000
891590.000000
892273.000000
893071.000000
893838.000000
894578.000000
895288.000000
896026.000000
896742.000000
897431.000000
898092.000000
898753.000000
899428.000000
900124.000000
900827.000000
901527.000000
902339.000000
903038.000000
903875.000000
904564.000000
905376.000000
906083.000000
906801.000000
907473.000000
908141.000000
908817.000000
909488.000000
910149.000000
910849.000000
911657.000000
912459.000000
913277.000000
914051.000000
914811.000000
915554.000000
916283.000000
