ECG (ms)
364.000000
1024.000000
1679.000000
2344.000000
3007.000000
3660.000000
4316.000000
4979.000000
5638.000000
6289.000000
6933.000000
7570.000000
8216.000000
8859.000000
9494.000000
10139.000000
10791.000000
11439.000000
12083.000000
12728.000000
13383.000000
14033.000000
14691.000000
15340.000000
15987.000000
16626.000000
17278.000000
17947.000000
18613.000000
19275.000000
19939.000000
20602.000000
21269.000000
21925.000000
22569.000000
23205.000000
23834.000000
24466.000000
25109.000000
25756.000000
26397.000000
27055.000000
27741.000000
28441.000000
29127.000000
29799.000000
30452.000000
31100.000000
31764.000000
32434.000000
33106.000000
33784.000000
34451.000000
35112.000000
35768.000000
36430.000000
37094.000000
37754.000000
38407.000000
39065.000000
39735.000000
40409.000000
41080.000000
41747.000000
42409.000000
43077.000000
43740.000000
44409.000000
45068.000000
45716.000000
46347.000000
46979.000000
47612.000000
48253.000000
48901.000000
49552.000000
50197.000000
50846.000000
51506.000000
52161.000000
52819.000000
53472.000000
54116.000000
54755.000000
55397.000000
56041.000000
56695.000000
57357.000000
58007.000000
58658.000000
59308.000000
59968.000000
60634.000000
61291.000000
61946.000000
62594.000000
63260.000000
63928.000000
64591.000000
65265.000000
65938.000000
66620.000000
67310.000000
67992.000000
68666.000000
69327.000000
69977.000000
70631.000000
71285.000000
71952.000000
72619.000000
73285.000000
73955.000000
74645.000000
75350.000000
76052.000000
76747.000000
77437.000000
78104.000000
78763.000000
79417.000000
80085.000000
80750.000000
81419.000000
82075.000000
82734.000000
83408.000000
84111.000000
84818.000000
85525.000000
86215.000000
86891.000000
87562.000000
88236.000000
88907.000000
89576.000000
90232.000000
90877.000000
91529.000000
92189.000000
92871.000000
93547.000000
94224.000000
94899.000000
95589.000000
96303.000000
97022.000000
97717.000000
98390.000000
99053.000000
99707.000000
100370.000000
101051.000000
101736.000000
102418.000000
103103.000000
103810.000000
104509.000000
105203.000000
105878.000000
106547.000000
107206.000000
107879.000000
108564.000000
109239.000000
109906.000000
110570.000000
111242.000000
111937.000000
112644.000000
113330.000000
114002.000000
114666.000000
115323.000000
115986.000000
116651.000000
117310.000000
117961.000000
118612.000000
119266.000000
119936.000000
120601.000000
121257.000000
121903.000000
122537.000000
123180.000000
123837.000000
124502.000000
125162.000000
125820.000000
126479.000000
127144.000000
127836.000000
128537.000000
129231.000000
129905.000000
130558.000000
131197.000000
131836.000000
132483.000000
133130.000000
133776.000000
134421.000000
135085.000000
135775.000000
136476.000000
137188.000000
137877.000000
138553.000000
139214.000000
139874.000000
140552.000000
141220.000000
141879.000000
142537.000000
143203.000000
143886.000000
144562.000000
145229.000000
145883.000000
146531.000000
147192.000000
147874.000000
148569.000000
149259.000000
149945.000000
150636.000000
151321.000000
152018.000000
152713.000000
153398.000000
154074.000000
154751.000000
155434.000000
156120.000000
156801.000000
157467.000000
158118.000000
158770.000000
159429.000000
160103.000000
160771.000000
161435.000000
162119.000000
162825.000000
163537.000000
164247.000000
164943.000000
165625.000000
166312.000000
166998.000000
167688.000000
168368.000000
169034.000000
169686.000000
170334.000000
170999.000000
171668.000000
172342.000000
173012.000000
173670.000000
174337.000000
175020.000000
175709.000000
176395.000000
177078.000000
177745.000000
178405.000000
179069.000000
179742.000000
180412.000000
181079.000000
181735.000000
182383.000000
183020.000000
183668.000000
184323.000000
184991.000000
185653.000000
186312.000000
186969.000000
187631.000000
188296.000000
188966.000000
189634.000000
190289.000000
190938.000000
191592.000000
192256.000000
192926.000000
193589.000000
194239.000000
194894.000000
195552.000000
196228.000000
196912.000000
197590.000000
198250.000000
198904.000000
199566.000000
200238.000000
200912.000000
201586.000000
202252.000000
202912.000000
203580.000000
204257.000000
204927.000000
205589.000000
206245.000000
206905.000000
207589.000000
208289.000000
208980.000000
209662.000000
210344.000000
211032.000000
211722.000000
212415.000000
213091.000000
213760.000000
214434.000000
215121.000000
215832.000000
216534.000000
217232.000000
217926.000000
218619.000000
219320.000000
220024.000000
220718.000000
221397.000000
222075.000000
222758.000000
223438.000000
224116.000000
224802.000000
225504.000000
226220.000000
226933.000000
227637.000000
228330.000000
229014.000000
229704.000000
230389.000000
231061.000000
231719.000000
232377.000000
233051.000000
233727.000000
234401.000000
235074.000000
235749.000000
236436.000000
237118.000000
237797.000000
238467.000000
239140.000000
239819.000000
240503.000000
241171.000000
241822.000000
242468.000000
243109.000000
243756.000000
244418.000000
245095.000000
245788.000000
246475.000000
247155.000000
247838.000000
248529.000000
249217.000000
249886.000000
250536.000000
251175.000000
251819.000000
252485.000000
253175.000000
253848.000000
254520.000000
255213.000000
255929.000000
256652.000000
257372.000000
258079.000000
258764.000000
259429.000000
260105.000000
260784.000000
261462.000000
262123.000000
262778.000000
263427.000000
264087.000000
264765.000000
265446.000000
266112.000000
266774.000000
267449.000000
268145.000000
268863.000000
269562.000000
270245.000000
270920.000000
271590.000000
272256.000000
272935.000000
273608.000000
274273.000000
274963.000000
275682.000000
276404.000000
277125.000000
277839.000000
278543.000000
279252.000000
279957.000000
280649.000000
281318.000000
281989.000000
282656.000000
283326.000000
283996.000000
284658.000000
285317.000000
285971.000000
286635.000000
287309.000000
287980.000000
288642.000000
289295.000000
289955.000000
290623.000000
291292.000000
291953.000000
292609.000000
293266.000000
293924.000000
294592.000000
295269.000000
295937.000000
296598.000000
297259.000000
297925.000000
298603.000000
299286.000000
299967.000000
300633.000000
301293.000000
301953.000000
302607.000000
303258.000000
303898.000000
304535.000000
305172.000000
305821.000000
306484.000000
307146.000000
307796.000000
308446.000000
309095.000000
309747.000000
310411.000000
311073.000000
311729.000000
312389.000000
313061.000000
313739.000000
314420.000000
315084.000000
315729.000000
316366.000000
317007.000000
317668.000000
318333.000000
318994.000000
319686.000000
320396.000000
321118.000000
321833.000000
322540.000000
323221.000000
323898.000000
324581.000000
325268.000000
325936.000000
326604.000000
327260.000000
327912.000000
328560.000000
329216.000000
329884.000000
330550.000000
331212.000000
331891.000000
332573.000000
333246.000000
333923.000000
334588.000000
335247.000000
335922.000000
336615.000000
337289.000000
337947.000000
338595.000000
339242.000000
339887.000000
340540.000000
341193.000000
341847.000000
342495.000000
343159.000000
343825.000000
344497.000000
345165.000000
345821.000000
346479.000000
347144.000000
347815.000000
348482.000000
349140.000000
349783.000000
350431.000000
351080.000000
351740.000000
352410.000000
353075.000000
353728.000000
354374.000000
355019.000000
355669.000000
356328.000000
356984.000000
357645.000000
358325.000000
359032.000000
359743.000000
360442.000000
361119.000000
361774.000000
362412.000000
363054.000000
363685.000000
364312.000000
364948.000000
365625.000000
366319.000000
367010.000000
367696.000000
368361.000000
369038.000000
369726.000000
370409.000000
371084.000000
371749.000000
372408.000000
373067.000000
373718.000000
374373.000000
375031.000000
375677.000000
376323.000000
376992.000000
377673.000000
378340.000000
378998.000000
379646.000000
380276.000000
380904.000000
381542.000000
382187.000000
382829.000000
383467.000000
384102.000000
384746.000000
385410.000000
386075.000000
386734.000000
387385.000000
388028.000000
388667.000000
389306.000000
389943.000000
390573.000000
391195.000000
391815.000000
392443.000000
393087.000000
393746.000000
394427.000000
395124.000000
395793.000000
396440.000000
397098.000000
397765.000000
398435.000000
399100.000000
399749.000000
400384.000000
401013.000000
401643.000000
402273.000000
402920.000000
403578.000000
404235.000000
404895.000000
405556.000000
406212.000000
406860.000000
407513.000000
408174.000000
408843.000000
409503.000000
410156.000000
410800.000000
411451.000000
412092.000000
412732.000000
413362.000000
413984.000000
414600.000000
415218.000000
415841.000000
416478.000000
417123.000000
417767.000000
418416.000000
419068.000000
419726.000000
420376.000000
421034.000000
421675.000000
422310.000000
422948.000000
423590.000000
424247.000000
424940.000000
425632.000000
426324.000000
427016.000000
427712.000000
428400.000000
429080.000000
429744.000000
430384.000000
431013.000000
431637.000000
432279.000000
432932.000000
433610.000000
434299.000000
434995.000000
435702.000000
436396.000000
437084.000000
437758.000000
438417.000000
439078.000000
439753.000000
440436.000000
441113.000000
441778.000000
442440.000000
443110.000000
443792.000000
444486.000000
445164.000000
445828.000000
446482.000000
447134.000000
447795.000000
448453.000000
449104.000000
449765.000000
450433.000000
451116.000000
451822.000000
452499.000000
453161.000000
453820.000000
454482.000000
455160.000000
455857.000000
456537.000000
457217.000000
457891.000000
458577.000000
459264.000000
459931.000000
460596.000000
461258.000000
461934.000000
462612.000000
463287.000000
463949.000000
464592.000000
465232.000000
465865.000000
466503.000000
467150.000000
467806.000000
468459.000000
469115.000000
469797.000000
470480.000000
471171.000000
471859.000000
472536.000000
473210.000000
473894.000000
474589.000000
475281.000000
475954.000000
476622.000000
477281.000000
477954.000000
478617.000000
479275.000000
479933.000000
480592.000000
481247.000000
481897.000000
482533.000000
483150.000000
483766.000000
484381.000000
484991.000000
485601.000000
486225.000000
486865.000000
487526.000000
488195.000000
488859.000000
489521.000000
490186.000000
490854.000000
491528.000000
492205.000000
492882.000000
493553.000000
494220.000000
494877.000000
495529.000000
496180.000000
496829.000000
497470.000000
498112.000000
498775.000000
499469.000000
500158.000000
500835.000000
501509.000000
502195.000000
502871.000000
503549.000000
504216.000000
504865.000000
505506.000000
506152.000000
506806.000000
507459.000000
508102.000000
508736.000000
509355.000000
509969.000000
510598.000000
511275.000000
511986.000000
512696.000000
513401.000000
514093.000000
514786.000000
515489.000000
516193.000000
516880.000000
517564.000000
518247.000000
518928.000000
519597.000000
520250.000000
520889.000000
521519.000000
522144.000000
522780.000000
523427.000000
524076.000000
524737.000000
525408.000000
526087.000000
526772.000000
527442.000000
528105.000000
528753.000000
529393.000000
530028.000000
530670.000000
531333.000000
532004.000000
532661.000000
533314.000000
533963.000000
534613.000000
535258.000000
535892.000000
536535.000000
537178.000000
537832.000000
538491.000000
539138.000000
539783.000000
540439.000000
541098.000000
541773.000000
542444.000000
543103.000000
543758.000000
544420.000000
545076.000000
545731.000000
546381.000000
547024.000000
547665.000000
548305.000000
548943.000000
549579.000000
550217.000000
550849.000000
551479.000000
552116.000000
552750.000000
553394.000000
554025.000000
554651.000000
555272.000000
555906.000000
556555.000000
557196.000000
557840.000000
558479.000000
559115.000000
559762.000000
560420.000000
561083.000000
561730.000000
562377.000000
563008.000000
563642.000000
564283.000000
564945.000000
565618.000000
566281.000000
566945.000000
567604.000000
568269.000000
568933.000000
569586.000000
570240.000000
570901.000000
571563.000000
572224.000000
572875.000000
573519.000000
574158.000000
574791.000000
575426.000000
576075.000000
576732.000000
577388.000000
578045.000000
578723.000000
579410.000000
580089.000000
580759.000000
581423.000000
582084.000000
582751.000000
583415.000000
584077.000000
584731.000000
585382.000000
586033.000000
586695.000000
587359.000000
588025.000000
588678.000000
589321.000000
589964.000000
590603.000000
591249.000000
591914.000000
592574.000000
593241.000000
593945.000000
594654.000000
595372.000000
596078.000000
596772.000000
597457.000000
598139.000000
598817.000000
599486.000000
600140.000000
600790.000000
601443.000000
602105.000000
602773.000000
603436.000000
604096.000000
604761.000000
605439.000000
606119.000000
606803.000000
607473.000000
608135.000000
608786.000000
609447.000000
610117.000000
610776.000000
611428.000000
612066.000000
612695.000000
613316.000000
613941.000000
614593.000000
615264.000000
615937.000000
616613.000000
617281.000000
617939.000000
618584.000000
619225.000000
619856.000000
620481.000000
621107.000000
621741.000000
622386.000000
623042.000000
623708.000000
624384.000000
625080.000000
625774.000000
626466.000000
627155.000000
627822.000000
628483.000000
629132.000000
629777.000000
630424.000000
631066.000000
631695.000000
632321.000000
632932.000000
633549.000000
634188.000000
634834.000000
635482.000000
636136.000000
636801.000000
637478.000000
638158.000000
638830.000000
639484.000000
640135.000000
640790.000000
641437.000000
642080.000000
642714.000000
643346.000000
643984.000000
644630.000000
645288.000000
645968.000000
646649.000000
647345.000000
648047.000000
648749.000000
649455.000000
650152.000000
650830.000000
651492.000000
652147.000000
652804.000000
653472.000000
654141.000000
654816.000000
655483.000000
656151.000000
656824.000000
657501.000000
658170.000000
658825.000000
659475.000000
660130.000000
660790.000000
661449.000000
662112.000000
662778.000000
663439.000000
664111.000000
664775.000000
665443.000000
666089.000000
666727.000000
667367.000000
668027.000000
668702.000000
669373.000000
670047.000000
670718.000000
671402.000000
672103.000000
672802.000000
673485.000000
674146.000000
674792.000000
675430.000000
676070.000000
676708.000000
677358.000000
678024.000000
678708.000000
679422.000000
680128.000000
680817.000000
681504.000000
682188.000000
682866.000000
683529.000000
684190.000000
684851.000000
685516.000000
686183.000000
686847.000000
687508.000000
688170.000000
688842.000000
689503.000000
690154.000000
690792.000000
691420.000000
692048.000000
692691.000000
693348.000000
694005.000000
694652.000000
695293.000000
695937.000000
696586.000000
697237.000000
697888.000000
698531.000000
699173.000000
699816.000000
700457.000000
701094.000000
701725.000000
702358.000000
702994.000000
703635.000000
704285.000000
704920.000000
705554.000000
706184.000000
706814.000000
707444.000000
708071.000000
708693.000000
709315.000000
709942.000000
710590.000000
711253.000000
711916.000000
712573.000000
713242.000000
713913.000000
714586.000000
715258.000000
715917.000000
716568.000000
717210.000000
717845.000000
718476.000000
719105.000000
719733.000000
720372.000000
721034.000000
721701.000000
722368.000000
723020.000000
723652.000000
724271.000000
724892.000000
725519.000000
726160.000000
726810.000000
727452.000000
728089.000000
728730.000000
729381.000000
730051.000000
730716.000000
731374.000000
732028.000000
732690.000000
733356.000000
734028.000000
734696.000000
735355.000000
736011.000000
736660.000000
737312.000000
737996.000000
738666.000000
739326.000000
739974.000000
740618.000000
741278.000000
741961.000000
742624.000000
743273.000000
743915.000000
744554.000000
745196.000000
745845.000000
746494.000000
747146.000000
747795.000000
748439.000000
749086.000000
749739.000000
750390.000000
751033.000000
751674.000000
752310.000000
752942.000000
753569.000000
754200.000000
754826.000000
755452.000000
756078.000000
756717.000000
757371.000000
758050.000000
758731.000000
759401.000000
760070.000000
760749.000000
761435.000000
762131.000000
762822.000000
763483.000000
764128.000000
764761.000000
765386.000000
766010.000000
766646.000000
767295.000000
767987.000000
768706.000000
769460.000000
770212.000000
770917.000000
771607.000000
772285.000000
772954.000000
773621.000000
774272.000000
774914.000000
775556.000000
776217.000000
776911.000000
777617.000000
778315.000000
778986.000000
779657.000000
780311.000000
780950.000000
781581.000000
782221.000000
782900.000000
783593.000000
784260.000000
784918.000000
785576.000000
786238.000000
786898.000000
787549.000000
788200.000000
788845.000000
789502.000000
790162.000000
790820.000000
791473.000000
792132.000000
792785.000000
793445.000000
794104.000000
794754.000000
795408.000000
796055.000000
796702.000000
797344.000000
797978.000000
798607.000000
799228.000000
799848.000000
800471.000000
801095.000000
801728.000000
802359.000000
802984.000000
803608.000000
804240.000000
804884.000000
805530.000000
806177.000000
806819.000000
807455.000000
808099.000000
808757.000000
809415.000000
810056.000000
810682.000000
811305.000000
811928.000000
812556.000000
813186.000000
813813.000000
814445.000000
815079.000000
815722.000000
816379.000000
817075.000000
817763.000000
818440.000000
819115.000000
819782.000000
820469.000000
821169.000000
821862.000000
822529.000000
823202.000000
823863.000000
824512.000000
825148.000000
825771.000000
826392.000000
827018.000000
827647.000000
828279.000000
828893.000000
829504.000000
830132.000000
830777.000000
831419.000000
832078.000000
832731.000000
833385.000000
834046.000000
834707.000000
835362.000000
836009.000000
836676.000000
837357.000000
838028.000000
838697.000000
839357.000000
840020.000000
840693.000000
841381.000000
842057.000000
842720.000000
843382.000000
844055.000000
844742.000000
845463.000000
846155.000000
846829.000000
847486.000000
848126.000000
848764.000000
849406.000000
850060.000000
850714.000000
851366.000000
852027.000000
852706.000000
853389.000000
854067.000000
854742.000000
855415.000000
856098.000000
856779.000000
857456.000000
858127.000000
858783.000000
859436.000000
860090.000000
860741.000000
861400.000000
862058.000000
862708.000000
863370.000000
864043.000000
864710.000000
865363.000000
866011.000000
866648.000000
867279.000000
867914.000000
868552.000000
869184.000000
869808.000000
870418.000000
871014.000000
871604.000000
872196.000000
872801.000000
873434.000000
874083.000000
874749.000000
875410.000000
876074.000000
876745.000000
877436.000000
878120.000000
878797.000000
879463.000000
880114.000000
880756.000000
881392.000000
882019.000000
882642.000000
883272.000000
883909.000000
884562.000000
885228.000000
885906.000000
886582.000000
887256.000000
887939.000000
888632.000000
889331.000000
890020.000000
890668.000000
891303.000000
891944.000000
892616.000000
893334.000000
894089.000000
894860.000000
895609.000000
896325.000000
897028.000000
897729.000000
898435.000000
899145.000000
899845.000000
900535.000000
901207.000000
901880.000000
902562.000000
903248.000000
903927.000000
904605.000000
905287.000000
905976.000000
906673.000000
907378.000000
908065.000000
908736.000000
909396.000000
910048.000000
910706.000000
911371.000000
912043.000000
912718.000000
913413.000000
914118.000000
914818.000000
915489.000000
916139.000000
916801.000000
917467.000000
918149.000000
918830.000000
919510.000000
920186.000000
920891.000000
921632.000000
922377.000000
