ECG (ms)
429.000000
1110.000000
1820.000000
2524.000000
3260.000000
3959.000000
4631.000000
5276.000000
5954.000000
6680.000000
7436.000000
8164.000000
8857.000000
9531.000000
10204.000000
10877.000000
11552.000000
12241.000000
12932.000000
13660.000000
14381.000000
15103.000000
15790.000000
16463.000000
17126.000000
17784.000000
18461.000000
19156.000000
19828.000000
20466.000000
21091.000000
21706.000000
22332.000000
22964.000000
23612.000000
24292.000000
24955.000000
25636.000000
26280.000000
26923.000000
27580.000000
28245.000000
28915.000000
29605.000000
30285.000000
30954.000000
31620.000000
32288.000000
32959.000000
33641.000000
34321.000000
35006.000000
35694.000000
36418.000000
37168.000000
37933.000000
38671.000000
39400.000000
40102.000000
40803.000000
41484.000000
42169.000000
42841.000000
43529.000000
44259.000000
45021.000000
45812.000000
46548.000000
47253.000000
47936.000000
48634.000000
49356.000000
50117.000000
50886.000000
51608.000000
52333.000000
53092.000000
53904.000000
54702.000000
55485.000000
56250.000000
57033.000000
57895.000000
58721.000000
59524.000000
60311.000000
61090.000000
61890.000000
62735.000000
63549.000000
64312.000000
65055.000000
65841.000000
66658.000000
67481.000000
68277.000000
69047.000000
69843.000000
70619.000000
71370.000000
72106.000000
72885.000000
73679.000000
74519.000000
75377.000000
76233.000000
77038.000000
77782.000000
78498.000000
79242.000000
79997.000000
80795.000000
81601.000000
82353.000000
83082.000000
83828.000000
84583.000000
85337.000000
86089.000000
86845.000000
87629.000000
88392.000000
89147.000000
89874.000000
90564.000000
91261.000000
91953.000000
92747.000000
93565.000000
94413.000000
95243.000000
96040.000000
96827.000000
97610.000000
98408.000000
99183.000000
99930.000000
100700.000000
101467.000000
102236.000000
102983.000000
103729.000000
104504.000000
105308.000000
106113.000000
106892.000000
107638.000000
108369.000000
109123.000000
109867.000000
110637.000000
111400.000000
112194.000000
113040.000000
113870.000000
114698.000000
115514.000000
116364.000000
117165.000000
117946.000000
118701.000000
119483.000000
120298.000000
121142.000000
121946.000000
122741.000000
123546.000000
124324.000000
125103.000000
125865.000000
126575.000000
127321.000000
128097.000000
128874.000000
129630.000000
130375.000000
131109.000000
131852.000000
132617.000000
133401.000000
134128.000000
134856.000000
135601.000000
136346.000000
137089.000000
137791.000000
138461.000000
139153.000000
139881.000000
140646.000000
141449.000000
142252.000000
143026.000000
143770.000000
144533.000000
145298.000000
146062.000000
146812.000000
147547.000000
148308.000000
149109.000000
149946.000000
150782.000000
151600.000000
152386.000000
153164.000000
153938.000000
154685.000000
155437.000000
156179.000000
156928.000000
157688.000000
158435.000000
159196.000000
159966.000000
160773.000000
161542.000000
162306.000000
163072.000000
163844.000000
164613.000000
165367.000000
166104.000000
166835.000000
167593.000000
168387.000000
169193.000000
169967.000000
170728.000000
171493.000000
172320.000000
173173.000000
173996.000000
174775.000000
175528.000000
176272.000000
177049.000000
177843.000000
178639.000000
179413.000000
180172.000000
180947.000000
181735.000000
182521.000000
183330.000000
184100.000000
184816.000000
185533.000000
186266.000000
187035.000000
187838.000000
188651.000000
189457.000000
190234.000000
191007.000000
191782.000000
192561.000000
193319.000000
194068.000000
194831.000000
195586.000000
196368.000000
197149.000000
197892.000000
198632.000000
199417.000000
200226.000000
201051.000000
201856.000000
202665.000000
203489.000000
204318.000000
205133.000000
205919.000000
206694.000000
207483.000000
208307.000000
209145.000000
209974.000000
210772.000000
211551.000000
212348.000000
213158.000000
213947.000000
214711.000000
215468.000000
216257.000000
217061.000000
217876.000000
218676.000000
219431.000000
220162.000000
220903.000000
221666.000000
222458.000000
223274.000000
224051.000000
224817.000000
225589.000000
226345.000000
227094.000000
227828.000000
228563.000000
229323.000000
230072.000000
230828.000000
231550.000000
232260.000000
232955.000000
233683.000000
234457.000000
235239.000000
236017.000000
236771.000000
237554.000000
238356.000000
239133.000000
239882.000000
240612.000000
241347.000000
242092.000000
242831.000000
243569.000000
244296.000000
245021.000000
245766.000000
246543.000000
247340.000000
248110.000000
248861.000000
249609.000000
250367.000000
251126.000000
251883.000000
252627.000000
253389.000000
254197.000000
255055.000000
255872.000000
256657.000000
257433.000000
258215.000000
258996.000000
259806.000000
260583.000000
261386.000000
262223.000000
263088.000000
263932.000000
264727.000000
265475.000000
266194.000000
266925.000000
267659.000000
268466.000000
269281.000000
270100.000000
270952.000000
271793.000000
272598.000000
273384.000000
274152.000000
274905.000000
275638.000000
276378.000000
277107.000000
277843.000000
278601.000000
279382.000000
280180.000000
280960.000000
281707.000000
282452.000000
283207.000000
283963.000000
284718.000000
285452.000000
286167.000000
286879.000000
287632.000000
288386.000000
289147.000000
289878.000000
290596.000000
291327.000000
292081.000000
292853.000000
293640.000000
294407.000000
295167.000000
295928.000000
296730.000000
297508.000000
298255.000000
298944.000000
299595.000000
300239.000000
300896.000000
301607.000000
302445.000000
303286.000000
304113.000000
304887.000000
305649.000000
306403.000000
307178.000000
308012.000000
308914.000000
309785.000000
310647.000000
311474.000000
312320.000000
313177.000000
314038.000000
314875.000000
315695.000000
316512.000000
317359.000000
318201.000000
319049.000000
319913.000000
320729.000000
321541.000000
322447.000000
323328.000000
324178.000000
324984.000000
325770.000000
326562.000000
327384.000000
328228.000000
329053.000000
329873.000000
330684.000000
331480.000000
332265.000000
333013.000000
333739.000000
334483.000000
335306.000000
336173.000000
337034.000000
337849.000000
338628.000000
339425.000000
340209.000000
341019.000000
341834.000000
342630.000000
343446.000000
344254.000000
345075.000000
345874.000000
346654.000000
347437.000000
348243.000000
349079.000000
349902.000000
350726.000000
351524.000000
352341.000000
353162.000000
353963.000000
354760.000000
355528.000000
356321.000000
357113.000000
357915.000000
358690.000000
359439.000000
360187.000000
360965.000000
361748.000000
362533.000000
363304.000000
364070.000000
364843.000000
365677.000000
366547.000000
367429.000000
368293.000000
369114.000000
369952.000000
370757.000000
371576.000000
372366.000000
373162.000000
373988.000000
374857.000000
375700.000000
376532.000000
377324.000000
378086.000000
378860.000000
379628.000000
380428.000000
381235.000000
382020.000000
382817.000000
383624.000000
384415.000000
385224.000000
386049.000000
386853.000000
387660.000000
388494.000000
389320.000000
390139.000000
390983.000000
391801.000000
392625.000000
393455.000000
394305.000000
395133.000000
395905.000000
396676.000000
397447.000000
398218.000000
398996.000000
399780.000000
400561.000000
401375.000000
402212.000000
403036.000000
403850.000000
404649.000000
405448.000000
406248.000000
407037.000000
407815.000000
408574.000000
409374.000000
410267.000000
411157.000000
412035.000000
412900.000000
413725.000000
414585.000000
415418.000000
416234.000000
417047.000000
417803.000000
418573.000000
419385.000000
420245.000000
421107.000000
421934.000000
422749.000000
423594.000000
424443.000000
425270.000000
426055.000000
426801.000000
427523.000000
428264.000000
429029.000000
429829.000000
430607.000000
431365.000000
432166.000000
432981.000000
433777.000000
434536.000000
435285.000000
436030.000000
436804.000000
437569.000000
438316.000000
439027.000000
439738.000000
440466.000000
441217.000000
441980.000000
442757.000000
443507.000000
444265.000000
445080.000000
445876.000000
446665.000000
447416.000000
448147.000000
448896.000000
449664.000000
450503.000000
451335.000000
452167.000000
453003.000000
453821.000000
454629.000000
455427.000000
456191.000000
456928.000000
457696.000000
458490.000000
459330.000000
460151.000000
460935.000000
461691.000000
462466.000000
463240.000000
464039.000000
464814.000000
465565.000000
466319.000000
467100.000000
467880.000000
468673.000000
469456.000000
470219.000000
471009.000000
471815.000000
472646.000000
473454.000000
474233.000000
474989.000000
475770.000000
476548.000000
477333.000000
478118.000000
478879.000000
479653.000000
480452.000000
481263.000000
482074.000000
482861.000000
483670.000000
484489.000000
485290.000000
486102.000000
486900.000000
487718.000000
488510.000000
489331.000000
490186.000000
491056.000000
491876.000000
492652.000000
493431.000000
494229.000000
495029.000000
495829.000000
496630.000000
497467.000000
498323.000000
499172.000000
500006.000000
500798.000000
501554.000000
502324.000000
503106.000000
503952.000000
504835.000000
505670.000000
506457.000000
507266.000000
508068.000000
508877.000000
509696.000000
510474.000000
511265.000000
512082.000000
512895.000000
513697.000000
514481.000000
515242.000000
516034.000000
516873.000000
517723.000000
518560.000000
519396.000000
520290.000000
521159.000000
521996.000000
522794.000000
523582.000000
524357.000000
525119.000000
525883.000000
526676.000000
527510.000000
528364.000000
529208.000000
530039.000000
530833.000000
531621.000000
532425.000000
533219.000000
534006.000000
534767.000000
535521.000000
536286.000000
537105.000000
537954.000000
538786.000000
539608.000000
540417.000000
541246.000000
542071.000000
542891.000000
543683.000000
544453.000000
545237.000000
546031.000000
546874.000000
547732.000000
548551.000000
549323.000000
550081.000000
550897.000000
551715.000000
552560.000000
553438.000000
554284.000000
555116.000000
555952.000000
556757.000000
557537.000000
558291.000000
559039.000000
559804.000000
560630.000000
561478.000000
562302.000000
563102.000000
563879.000000
564693.000000
565489.000000
566293.000000
567062.000000
567823.000000
568611.000000
569395.000000
570214.000000
571036.000000
571847.000000
572653.000000
573459.000000
574272.000000
575070.000000
575837.000000
576598.000000
577374.000000
578167.000000
578977.000000
579787.000000
580563.000000
581326.000000
582083.000000
582853.000000
583639.000000
584446.000000
585244.000000
586028.000000
586809.000000
587585.000000
588379.000000
589199.000000
590032.000000
590842.000000
591632.000000
592417.000000
593218.000000
594033.000000
594884.000000
595694.000000
596491.000000
597282.000000
598077.000000
598909.000000
599739.000000
600525.000000
601258.000000
602007.000000
602770.000000
603559.000000
604378.000000
605201.000000
606055.000000
606949.000000
607815.000000
608643.000000
609436.000000
610184.000000
610958.000000
611774.000000
612627.000000
613496.000000
614348.000000
615247.000000
616129.000000
616991.000000
617821.000000
618622.000000
619397.000000
620152.000000
620866.000000
