ECG (ms)
643.000000
1339.000000
2025.000000
2732.000000
3472.000000
4312.000000
5243.000000
6105.000000
6983.000000
7871.000000
8692.000000
9521.000000
10361.000000
11148.000000
11957.000000
12792.000000
13609.000000
14462.000000
15345.000000
16155.000000
16957.000000
17769.000000
18555.000000
19336.000000
20164.000000
21048.000000
21877.000000
22740.000000
23614.000000
24422.000000
25230.000000
26062.000000
26883.000000
27684.000000
28503.000000
29344.000000
30163.000000
31018.000000
31902.000000
32757.000000
33628.000000
34517.000000
35346.000000
36175.000000
37011.000000
37836.000000
38627.000000
39456.000000
40343.000000
41199.000000
42075.000000
42975.000000
43810.000000
44664.000000
45537.000000
46336.000000
47141.000000
47986.000000
48875.000000
49774.000000
50730.000000
51700.000000
52587.000000
53488.000000
54379.000000
55197.000000
56025.000000
56871.000000
57711.000000
58540.000000
59463.000000
60395.000000
61246.000000
62103.000000
62964.000000
63777.000000
64608.000000
65448.000000
66260.000000
67096.000000
67990.000000
68893.000000
69775.000000
70677.000000
71605.000000
72461.000000
73320.000000
74186.000000
75021.000000
75872.000000
76760.000000
77642.000000
78478.000000
79357.000000
80252.000000
81086.000000
81956.000000
82832.000000
83651.000000
84493.000000
85355.000000
86186.000000
87051.000000
87951.000000
88825.000000
89682.000000
90569.000000
91435.000000
92269.000000
93131.000000
94034.000000
94879.000000
95735.000000
96595.000000
97409.000000
98255.000000
99148.000000
99996.000000
100807.000000
101640.000000
102523.000000
103408.000000
104230.000000
105077.000000
105953.000000
106806.000000
107614.000000
108404.000000
109243.000000
110169.000000
111147.000000
112049.000000
112901.000000
113770.000000
114637.000000
115479.000000
116348.000000
117240.000000
118157.000000
119026.000000
119922.000000
120836.000000
121728.000000
122576.000000
123448.000000
124340.000000
125185.000000
125997.000000
126827.000000
127700.000000
128558.000000
129436.000000
130340.000000
131275.000000
132158.000000
133050.000000
133928.000000
134749.000000
135559.000000
136372.000000
137236.000000
138085.000000
138972.000000
139900.000000
140764.000000
141600.000000
142455.000000
143331.000000
144137.000000
144935.000000
145715.000000
146465.000000
147216.000000
147932.000000
148686.000000
149524.000000
150352.000000
151213.000000
152091.000000
152971.000000
153798.000000
154627.000000
155448.000000
156234.000000
157035.000000
157858.000000
158722.000000
159564.000000
160432.000000
161329.000000
162225.000000
163053.000000
163892.000000
164731.000000
165526.000000
166344.000000
167183.000000
168004.000000
168844.000000
169719.000000
170628.000000
171457.000000
172315.000000
173168.000000
173968.000000
174775.000000
175600.000000
176404.000000
177220.000000
178074.000000
178923.000000
179751.000000
180612.000000
181477.000000
182294.000000
183113.000000
183932.000000
184717.000000
185514.000000
186325.000000
187120.000000
187950.000000
188809.000000
189676.000000
190493.000000
191323.000000
192159.000000
192951.000000
193758.000000
194586.000000
195449.000000
196281.000000
197153.000000
198054.000000
198893.000000
199750.000000
200602.000000
201406.000000
202238.000000
203119.000000
204050.000000
204936.000000
205856.000000
206772.000000
207654.000000
208463.000000
209269.000000
210090.000000
210904.000000
211738.000000
212606.000000
213478.000000
214302.000000
215145.000000
215992.000000
216791.000000
217610.000000
218452.000000
219291.000000
220113.000000
220976.000000
221827.000000
222646.000000
223491.000000
224377.000000
225220.000000
226076.000000
226939.000000
227796.000000
228613.000000
229457.000000
230336.000000
231210.000000
232036.000000
232873.000000
233688.000000
234463.000000
235244.000000
236044.000000
236874.000000
237679.000000
238546.000000
239474.000000
240369.000000
241189.000000
242013.000000
242831.000000
243628.000000
244414.000000
245229.000000
246082.000000
246922.000000
247798.000000
248718.000000
249593.000000
250456.000000
251325.000000
252181.000000
253005.000000
253854.000000
254709.000000
255523.000000
256334.000000
257166.000000
258061.000000
258935.000000
259837.000000
260770.000000
261681.000000
262525.000000
263391.000000
264275.000000
265128.000000
265988.000000
266875.000000
267823.000000
268682.000000
269551.000000
270430.000000
271303.000000
272148.000000
273026.000000
273936.000000
274785.000000
275621.000000
276479.000000
277375.000000
278214.000000
279069.000000
279974.000000
280863.000000
281717.000000
282588.000000
283452.000000
284274.000000
285111.000000
285957.000000
286813.000000
287635.000000
288455.000000
289281.000000
290076.000000
290853.000000
291608.000000
292393.000000
293192.000000
293995.000000
294845.000000
295723.000000
296558.000000
297375.000000
298195.000000
299014.000000
299809.000000
300627.000000
301510.000000
302367.000000
303280.000000
304231.000000
305135.000000
306054.000000
306972.000000
307815.000000
308656.000000
309506.000000
310331.000000
311173.000000
312056.000000
312979.000000
313840.000000
314736.000000
315690.000000
316581.000000
317434.000000
318302.000000
319188.000000
320022.000000
320852.000000
321737.000000
322673.000000
323554.000000
324477.000000
325418.000000
326299.000000
327195.000000
328079.000000
328903.000000
329741.000000
330607.000000
331510.000000
332403.000000
333380.000000
334369.000000
335263.000000
336148.000000
337026.000000
337853.000000
338701.000000
339579.000000
340493.000000
341353.000000
342265.000000
343200.000000
344061.000000
344925.000000
345793.000000
346616.000000
347446.000000
348301.000000
349173.000000
349998.000000
350844.000000
351717.000000
352549.000000
353373.000000
354217.000000
355065.000000
355886.000000
356745.000000
357649.000000
358512.000000
359397.000000
360294.000000
361127.000000
361970.000000
362818.000000
363625.000000
364460.000000
365344.000000
366248.000000
367110.000000
367993.000000
368906.000000
369745.000000
370593.000000
371460.000000
372315.000000
373154.000000
374028.000000
374935.000000
375818.000000
376714.000000
377596.000000
378422.000000
379262.000000
380133.000000
380998.000000
381832.000000
382715.000000
383622.000000
384475.000000
385344.000000
386220.000000
387030.000000
387847.000000
388671.000000
389507.000000
390329.000000
391200.000000
392126.000000
393074.000000
393935.000000
394800.000000
395679.000000
396540.000000
397363.000000
398210.000000
399086.000000
399931.000000
400814.000000
401729.000000
402612.000000
403437.000000
404287.000000
405154.000000
405978.000000
406821.000000
407705.000000
408607.000000
409475.000000
410342.000000
411226.000000
412116.000000
412955.000000
413820.000000
414726.000000
415627.000000
416494.000000
417397.000000
418341.000000
419243.000000
420165.000000
421104.000000
421988.000000
422872.000000
423786.000000
424685.000000
425533.000000
426395.000000
427289.000000
428176.000000
429004.000000
429844.000000
430699.000000
431515.000000
432350.000000
433170.000000
433965.000000
434767.000000
435568.000000
436336.000000
437117.000000
437900.000000
438680.000000
439476.000000
440276.000000
441041.000000
441819.000000
442603.000000
443378.000000
444143.000000
444930.000000
445765.000000
446591.000000
447455.000000
448345.000000
449232.000000
450056.000000
450893.000000
451738.000000
452531.000000
453339.000000
454172.000000
455054.000000
455923.000000
456850.000000
457818.000000
458714.000000
459594.000000
460480.000000
461310.000000
462152.000000
462989.000000
463802.000000
464616.000000
465469.000000
466384.000000
467242.000000
468108.000000
469006.000000
469871.000000
470730.000000
471611.000000
472495.000000
473310.000000
474136.000000
474984.000000
475851.000000
476686.000000
477543.000000
478452.000000
479333.000000
480197.000000
481085.000000
481960.000000
482778.000000
483605.000000
484461.000000
485342.000000
486198.000000
487107.000000
488050.000000
488916.000000
489793.000000
490688.000000
491539.000000
492398.000000
493269.000000
494117.000000
494946.000000
495799.000000
496688.000000
497549.000000
498437.000000
499337.000000
500188.000000
501012.000000
501866.000000
502735.000000
503557.000000
504373.000000
505211.000000
506101.000000
506962.000000
507882.000000
508825.000000
509704.000000
510608.000000
511512.000000
512368.000000
513205.000000
514065.000000
514935.000000
515768.000000
516639.000000
517543.000000
518414.000000
519235.000000
520070.000000
520913.000000
521729.000000
522571.000000
523483.000000
524424.000000
525315.000000
526245.000000
527159.000000
527980.000000
528790.000000
529608.000000
530416.000000
531201.000000
532020.000000
532878.000000
533737.000000
534591.000000
535468.000000
536367.000000
537199.000000
538032.000000
538872.000000
539708.000000
540505.000000
541315.000000
542136.000000
542966.000000
543781.000000
544617.000000
545493.000000
546338.000000
547183.000000
548042.000000
548894.000000
549690.000000
550493.000000
551307.000000
552124.000000
552916.000000
553741.000000
554560.000000
555368.000000
556143.000000
556928.000000
557727.000000
558528.000000
559304.000000
560094.000000
560898.000000
561678.000000
562465.000000
563273.000000
564116.000000
564925.000000
565743.000000
566572.000000
567396.000000
568192.000000
569013.000000
569859.000000
570719.000000
571545.000000
572379.000000
573213.000000
574014.000000
574820.000000
575631.000000
576441.000000
577236.000000
578059.000000
578925.000000
579793.000000
580617.000000
581451.000000
582289.000000
583090.000000
583904.000000
584739.000000
585577.000000
586383.000000
587229.000000
588087.000000
588889.000000
589722.000000
590577.000000
591412.000000
592221.000000
593074.000000
593935.000000
594757.000000
595596.000000
596440.000000
597298.000000
598123.000000
598964.000000
599812.000000
600609.000000
601395.000000
602178.000000
602931.000000
603674.000000
604444.000000
605219.000000
606033.000000
606878.000000
607705.000000
608495.000000
609293.000000
610088.000000
610855.000000
611637.000000
612435.000000
613263.000000
614064.000000
614896.000000
615782.000000
616617.000000
617461.000000
618314.000000
619118.000000
619924.000000
620733.000000
621521.000000
622302.000000
623129.000000
624011.000000
624848.000000
625703.000000
626572.000000
627411.000000
628211.000000
629014.000000
629810.000000
630575.000000
631339.000000
632125.000000
632932.000000
633717.000000
634528.000000
635356.000000
636189.000000
636987.000000
637804.000000
638617.000000
639381.000000
640146.000000
640885.000000
641620.000000
642386.000000
643173.000000
644006.000000
644900.000000
645798.000000
646642.000000
647507.000000
648369.000000
649184.000000
650005.000000
650840.000000
651673.000000
652477.000000
653326.000000
654254.000000
655165.000000
656025.000000
656899.000000
657779.000000
658600.000000
659448.000000
660323.000000
661224.000000
662081.000000
662981.000000
663906.000000
664831.000000
665684.000000
666563.000000
667457.000000
668324.000000
669188.000000
670104.000000
671052.000000
671912.000000
672781.000000
673665.000000
674557.000000
675408.000000
676283.000000
677200.000000
678133.000000
679002.000000
679896.000000
680792.000000
681648.000000
682508.000000
683367.000000
684211.000000
685011.000000
685819.000000
686650.000000
687529.000000
688386.000000
689264.000000
690171.000000
691029.000000
691876.000000
692733.000000
693587.000000
694391.000000
695204.000000
696027.000000
696879.000000
697698.000000
698554.000000
699442.000000
700321.000000
701159.000000
702009.000000
702864.000000
703679.000000
704510.000000
705340.000000
706188.000000
707019.000000
707926.000000
708880.000000
709745.000000
710623.000000
711525.000000
712399.000000
713233.000000
714102.000000
715014.000000
715933.000000
716789.000000
717666.000000
718534.000000
719359.000000
720196.000000
721052.000000
721963.000000
722838.000000
723773.000000
724730.000000
725619.000000
726502.000000
727374.000000
728204.000000
729010.000000
729854.000000
730759.000000
731641.000000
732523.000000
733458.000000
734398.000000
735258.000000
736119.000000
736995.000000
737856.000000
738680.000000
739533.000000
740459.000000
741396.000000
742263.000000
743149.000000
744067.000000
744914.000000
745769.000000
746634.000000
747513.000000
748369.000000
749251.000000
750193.000000
751125.000000
752006.000000
752887.000000
753781.000000
754624.000000
755474.000000
756345.000000
757202.000000
758037.000000
758900.000000
759786.000000
760683.000000
761512.000000
762369.000000
763224.000000
764038.000000
764843.000000
765669.000000
766520.000000
767339.000000
768195.000000
769088.000000
770001.000000
770847.000000
771708.000000
772585.000000
773453.000000
774282.000000
775141.000000
776032.000000
776881.000000
777724.000000
778577.000000
779410.000000
780209.000000
781035.000000
781860.000000
782640.000000
783423.000000
784191.000000
784953.000000
785698.000000
786449.000000
787229.000000
788013.000000
788828.000000
789665.000000
790456.000000
791254.000000
792047.000000
792823.000000
793591.000000
794385.000000
795210.000000
796022.000000
796830.000000
797668.000000
798545.000000
799376.000000
800223.000000
801074.000000
801913.000000
802723.000000
803540.000000
804364.000000
805162.000000
805988.000000
806835.000000
807702.000000
808522.000000
809373.000000
810230.000000
811075.000000
811890.000000
812724.000000
813571.000000
814404.000000
815189.000000
815986.000000
816808.000000
817675.000000
818495.000000
819352.000000
820241.000000
821108.000000
821922.000000
822746.000000
823596.000000
824438.000000
825244.000000
826073.000000
826921.000000
827746.000000
828591.000000
829453.000000
830348.000000
831183.000000
832031.000000
832880.000000
833714.000000
834528.000000
835380.000000
836285.000000
837173.000000
838094.000000
839039.000000
839934.000000
840769.000000
841613.000000
842455.000000
843268.000000
844088.000000
844976.000000
845945.000000
846833.000000
847741.000000
848648.000000
849491.000000
850352.000000
851233.000000
852125.000000
852969.000000
853837.000000
854733.000000
855630.000000
856482.000000
857360.000000
858245.000000
859100.000000
859943.000000
860818.000000
861734.000000
862613.000000
863474.000000
864340.000000
865191.000000
865994.000000
866820.000000
867665.000000
868512.000000
869375.000000
870295.000000
871213.000000
872072.000000
872939.000000
873812.000000
874670.000000
875498.000000
876357.000000
877246.000000
878092.000000
878955.000000
879855.000000
880739.000000
881571.000000
882435.000000
883334.000000
884244.000000
885109.000000
885978.000000
886859.000000
887758.000000
888682.000000
889530.000000
890383.000000
891215.000000
892006.000000
892808.000000
893659.000000
894572.000000
895436.000000
896347.000000
897312.000000
898219.000000
899112.000000
900004.000000
900875.000000
901687.000000
902512.000000
903362.000000
904259.000000
905128.000000
906031.000000
906995.000000
907884.000000
