ECG (ms)
234.000000
967.000000
1672.000000
2408.000000
3148.000000
3889.000000
4598.000000
5365.000000
6137.000000
6924.000000
7648.000000
8350.000000
9077.000000
9843.000000
10624.000000
11347.000000
12052.000000
12797.000000
13562.000000
14367.000000
15111.000000
15832.000000
16570.000000
17307.000000
18039.000000
18745.000000
19469.000000
20218.000000
21025.000000
21834.000000
22571.000000
23302.000000
24066.000000
24850.000000
25648.000000
26397.000000
27171.000000
27959.000000
28774.000000
29553.000000
30265.000000
30982.000000
31739.000000
32533.000000
33317.000000
34053.000000
34807.000000
35605.000000
36423.000000
37166.000000
37900.000000
38694.000000
39474.000000
40212.000000
40909.000000
41619.000000
42384.000000
43179.000000
43928.000000
44664.000000
45418.000000
46226.000000
47058.000000
47831.000000
48539.000000
49249.000000
49981.000000
50745.000000
51454.000000
52171.000000
52935.000000
53743.000000
54567.000000
55299.000000
56033.000000
56789.000000
57561.000000
58276.000000
58973.000000
59693.000000
60433.000000
61198.000000
61910.000000
62619.000000
63381.000000
64171.000000
64962.000000
65676.000000
66398.000000
67148.000000
67923.000000
68635.000000
69340.000000
70079.000000
70840.000000
71573.000000
72270.000000
72994.000000
73729.000000
74475.000000
75173.000000
75864.000000
76570.000000
77291.000000
78018.000000
78711.000000
79423.000000
80161.000000
80924.000000
81642.000000
82341.000000
83070.000000
83836.000000
84571.000000
85275.000000
85968.000000
86683.000000
87432.000000
88138.000000
88832.000000
89556.000000
90318.000000
91114.000000
91841.000000
92576.000000
93322.000000
94085.000000
94799.000000
95504.000000
96231.000000
96985.000000
97725.000000
98430.000000
99171.000000
99943.000000
100711.000000
101415.000000
102114.000000
102831.000000
103571.000000
104296.000000
104994.000000
105719.000000
106486.000000
107271.000000
107989.000000
108716.000000
109468.000000
110219.000000
110935.000000
111637.000000
112373.000000
113133.000000
113879.000000
114587.000000
115304.000000
116057.000000
116830.000000
117560.000000
118263.000000
118996.000000
119748.000000
120517.000000
121232.000000
121934.000000
122672.000000
123456.000000
124218.000000
124923.000000
125640.000000
126384.000000
127155.000000
127901.000000
128603.000000
129305.000000
130034.000000
130787.000000
131507.000000
132196.000000
132920.000000
133688.000000
134481.000000
135213.000000
135924.000000
136669.000000
137433.000000
138162.000000
138849.000000
139554.000000
140267.000000
141002.000000
141691.000000
142381.000000
143107.000000
143853.000000
144579.000000
145275.000000
146005.000000
146754.000000
147504.000000
148204.000000
148935.000000
149689.000000
150474.000000
151190.000000
151903.000000
152639.000000
153391.000000
154120.000000
154817.000000
155531.000000
156270.000000
157034.000000
157743.000000
158452.000000
159196.000000
159951.000000
160658.000000
161348.000000
162068.000000
162811.000000
163570.000000
164268.000000
164985.000000
165747.000000
166557.000000
167364.000000
168087.000000
168793.000000
169531.000000
170284.000000
171040.000000
171755.000000
172477.000000
173243.000000
174059.000000
174815.000000
175528.000000
176258.000000
177030.000000
177798.000000
178512.000000
179235.000000
179991.000000
180777.000000
181497.000000
182188.000000
182912.000000
183670.000000
184452.000000
185175.000000
185880.000000
186601.000000
187349.000000
188072.000000
188749.000000
189437.000000
190150.000000
190960.000000
191743.000000
192461.000000
193182.000000
193943.000000
194720.000000
195447.000000
196153.000000
196867.000000
197600.000000
198335.000000
199026.000000
199724.000000
200433.000000
201189.000000
201908.000000
202599.000000
203309.000000
204061.000000
204855.000000
205577.000000
206291.000000
207024.000000
207772.000000
208485.000000
209179.000000
209904.000000
210651.000000
211415.000000
212121.000000
212829.000000
213580.000000
214344.000000
215075.000000
215770.000000
216488.000000
217222.000000
217969.000000
218668.000000
219364.000000
220106.000000
220844.000000
221544.000000
222230.000000
222945.000000
223687.000000
224450.000000
225165.000000
225863.000000
226605.000000
227370.000000
228098.000000
228799.000000
229522.000000
230254.000000
230977.000000
231660.000000
232358.000000
233085.000000
233844.000000
234545.000000
235239.000000
235962.000000
236693.000000
237395.000000
238085.000000
238803.000000
239538.000000
240263.000000
240955.000000
241660.000000
242399.000000
243159.000000
243864.000000
244552.000000
245258.000000
245970.000000
246675.000000
247353.000000
248056.000000
248802.000000
249574.000000
250304.000000
250991.000000
251702.000000
252423.000000
253143.000000
253829.000000
254504.000000
255204.000000
255893.000000
256586.000000
257255.000000
257936.000000
258622.000000
259292.000000
259944.000000
260603.000000
261255.000000
261913.000000
262620.000000
263354.000000
264072.000000
264740.000000
265408.000000
266095.000000
266812.000000
267522.000000
268202.000000
268890.000000
269629.000000
270421.000000
271184.000000
271894.000000
272631.000000
273387.000000
274142.000000
274832.000000
275518.000000
276229.000000
276980.000000
277710.000000
278399.000000
279104.000000
279839.000000
280595.000000
281303.000000
282000.000000
282731.000000
283472.000000
284191.000000
284906.000000
285640.000000
286379.000000
287119.000000
287810.000000
288502.000000
289231.000000
290003.000000
290766.000000
291479.000000
292200.000000
292941.000000
293702.000000
294406.000000
295099.000000
295825.000000
296583.000000
297345.000000
298035.000000
298728.000000
299449.000000
300204.000000
300931.000000
301622.000000
302339.000000
303074.000000
303851.000000
304579.000000
305282.000000
306017.000000
306779.000000
307548.000000
308255.000000
308947.000000
309666.000000
310423.000000
311125.000000
311813.000000
312546.000000
313320.000000
314144.000000
314871.000000
315591.000000
316338.000000
317113.000000
317835.000000
318521.000000
319208.000000
319926.000000
320694.000000
321457.000000
322167.000000
322906.000000
323683.000000
324488.000000
325213.000000
325936.000000
326688.000000
327430.000000
328126.000000
328821.000000
329518.000000
330222.000000
330897.000000
331564.000000
332254.000000
332968.000000
333706.000000
334409.000000
335139.000000
335891.000000
336659.000000
337359.000000
338055.000000
338759.000000
339482.000000
340161.000000
340839.000000
341551.000000
342272.000000
342989.000000
343661.000000
344361.000000
345078.000000
345830.000000
346540.000000
347222.000000
347923.000000
348666.000000
349424.000000
350107.000000
350783.000000
351474.000000
352177.000000
352858.000000
353527.000000
354221.000000
354938.000000
355666.000000
356341.000000
357006.000000
357694.000000
358413.000000
359161.000000
359846.000000
360527.000000
361258.000000
362025.000000
362768.000000
363459.000000
364161.000000
364899.000000
365653.000000
366376.000000
367067.000000
367786.000000
368539.000000
369246.000000
369920.000000
370588.000000
371267.000000
371975.000000
372674.000000
373355.000000
374057.000000
374813.000000
375632.000000
376365.000000
377087.000000
377853.000000
378625.000000
379341.000000
380039.000000
380758.000000
381504.000000
382247.000000
382927.000000
383610.000000
384318.000000
385039.000000
385721.000000
386409.000000
387139.000000
387913.000000
388696.000000
389413.000000
390143.000000
390913.000000
391680.000000
392392.000000
393070.000000
393752.000000
394451.000000
395184.000000
395873.000000
396551.000000
397280.000000
398031.000000
398787.000000
399477.000000
400178.000000
400898.000000
401624.000000
402299.000000
402970.000000
403624.000000
404262.000000
404890.000000
405539.000000
406197.000000
406879.000000
407545.000000
408195.000000
408861.000000
409564.000000
410276.000000
410942.000000
411600.000000
412289.000000
413003.000000
413718.000000
414396.000000
415067.000000
415768.000000
416499.000000
417205.000000
417871.000000
418546.000000
419259.000000
420008.000000
420757.000000
421439.000000
422120.000000
422814.000000
423541.000000
424279.000000
424970.000000
425665.000000
426396.000000
427168.000000
427907.000000
428598.000000
429304.000000
430053.000000
430831.000000
431567.000000
432259.000000
432948.000000
433652.000000
434375.000000
435095.000000
435773.000000
436448.000000
437146.000000
437881.000000
438636.000000
439332.000000
440048.000000
440799.000000
441559.000000
442278.000000
442972.000000
443692.000000
444421.000000
445173.000000
445870.000000
446559.000000
447285.000000
448060.000000
448793.000000
449483.000000
450188.000000
450933.000000
451730.000000
452497.000000
453200.000000
453925.000000
454673.000000
455433.000000
456141.000000
456842.000000
457589.000000
458359.000000
459106.000000
459814.000000
460529.000000
461272.000000
462032.000000
462781.000000
463490.000000
464209.000000
464957.000000
465721.000000
466441.000000
467130.000000
467833.000000
468578.000000
469353.000000
470112.000000
470824.000000
471559.000000
472382.000000
473206.000000
473944.000000
474673.000000
475443.000000
476236.000000
477001.000000
477709.000000
478425.000000
479192.000000
479971.000000
480706.000000
481419.000000
482174.000000
482967.000000
483753.000000
484481.000000
485191.000000
485952.000000
486735.000000
487495.000000
488207.000000
488916.000000
489666.000000
490445.000000
491194.000000
491898.000000
492591.000000
493335.000000
494117.000000
494891.000000
495589.000000
496285.000000
496995.000000
497736.000000
498449.000000
499130.000000
499814.000000
500535.000000
501310.000000
502043.000000
502744.000000
503479.000000
504208.000000
504948.000000
505635.000000
506321.000000
507022.000000
507745.000000
508475.000000
509158.000000
509837.000000
510538.000000
511272.000000
512043.000000
512739.000000
513427.000000
514148.000000
514892.000000
515643.000000
516331.000000
517010.000000
517722.000000
518446.000000
519214.000000
519923.000000
520611.000000
521334.000000
522088.000000
522842.000000
523531.000000
524213.000000
524904.000000
525616.000000
526319.000000
526984.000000
527657.000000
528348.000000
529094.000000
529797.000000
530481.000000
531191.000000
531959.000000
532692.000000
533370.000000
534051.000000
534737.000000
535433.000000
536103.000000
536764.000000
537456.000000
538201.000000
538963.000000
539653.000000
540322.000000
541007.000000
541686.000000
542365.000000
543019.000000
543675.000000
544363.000000
545103.000000
545818.000000
546487.000000
547161.000000
547867.000000
548581.000000
549247.000000
549902.000000
550568.000000
551258.000000
551945.000000
552596.000000
553244.000000
553909.000000
554568.000000
555238.000000
555894.000000
556548.000000
557234.000000
557954.000000
558645.000000
559306.000000
559982.000000
560665.000000
561367.000000
562030.000000
562681.000000
563351.000000
564041.000000
564747.000000
565405.000000
566063.000000
566741.000000
567444.000000
568135.000000
568794.000000
569462.000000
570148.000000
570862.000000
571564.000000
572221.000000
572889.000000
573564.000000
574250.000000
574908.000000
575556.000000
576222.000000
576922.000000
577674.000000
578379.000000
579056.000000
579771.000000
580506.000000
581234.000000
581900.000000
582555.000000
583211.000000
583869.000000
584541.000000
585204.000000
585872.000000
586590.000000
587359.000000
588074.000000
588761.000000
589485.000000
590228.000000
590936.000000
591617.000000
592321.000000
593020.000000
593699.000000
594346.000000
594992.000000
595654.000000
596338.000000
597022.000000
597690.000000
598361.000000
599064.000000
599756.000000
600410.000000
601056.000000
601713.000000
602383.000000
603059.000000
603699.000000
604336.000000
604985.000000
605668.000000
606373.000000
607022.000000
607672.000000
608348.000000
609029.000000
609719.000000
610363.000000
610999.000000
611638.000000
612272.000000
612907.000000
613534.000000
614160.000000
614813.000000
615504.000000
616201.000000
616856.000000
617490.000000
618125.000000
618773.000000
619439.000000
620077.000000
620679.000000
621281.000000
621883.000000
622485.000000
623072.000000
623672.000000
624281.000000
624896.000000
625520.000000
626127.000000
626735.000000
627370.000000
628015.000000
628659.000000
629281.000000
629892.000000
630512.000000
631147.000000
631804.000000
632458.000000
633089.000000
633720.000000
634378.000000
635067.000000
635812.000000
636466.000000
637110.000000
637770.000000
638437.000000
639124.000000
639775.000000
640414.000000
641080.000000
641752.000000
642478.000000
643149.000000
643806.000000
644506.000000
645235.000000
645988.000000
646674.000000
647340.000000
648033.000000
648759.000000
649475.000000
650141.000000
650806.000000
651508.000000
652253.000000
652968.000000
653636.000000
654320.000000
655044.000000
655803.000000
656510.000000
657193.000000
657918.000000
658673.000000
659444.000000
660131.000000
660803.000000
661505.000000
662244.000000
663006.000000
663708.000000
664436.000000
665231.000000
666077.000000
666821.000000
667564.000000
668334.000000
669105.000000
669822.000000
670530.000000
671290.000000
672085.000000
672855.000000
673560.000000
674281.000000
675038.000000
675818.000000
676538.000000
677246.000000
677983.000000
678733.000000
679461.000000
680159.000000
680856.000000
681590.000000
682353.000000
683101.000000
683826.000000
684528.000000
685256.000000
686011.000000
686767.000000
687465.000000
688199.000000
688963.000000
689780.000000
690533.000000
691233.000000
691955.000000
692683.000000
693461.000000
694180.000000
694896.000000
695660.000000
696440.000000
697164.000000
697865.000000
698622.000000
699453.000000
700288.000000
701042.000000
701739.000000
702459.000000
703188.000000
703942.000000
704655.000000
705353.000000
706095.000000
706896.000000
707702.000000
708429.000000
709157.000000
709921.000000
710717.000000
711476.000000
712196.000000
712924.000000
713696.000000
714508.000000
715240.000000
715940.000000
716670.000000
717437.000000
718238.000000
718964.000000
719676.000000
720437.000000
721223.000000
722015.000000
722731.000000
723448.000000
724209.000000
724980.000000
725735.000000
726427.000000
727104.000000
727779.000000
728518.000000
729395.000000
730273.000000
731126.000000
731948.000000
732720.000000
733474.000000
734278.000000
735107.000000
735939.000000
736722.000000
737444.000000
738184.000000
738954.000000
739752.000000
740548.000000
741293.000000
742032.000000
742847.000000
743709.000000
744543.000000
745353.000000
746096.000000
746836.000000
747610.000000
748427.000000
749203.000000
749935.000000
750687.000000
751482.000000
752307.000000
753115.000000
753852.000000
754561.000000
755324.000000
756131.000000
756969.000000
757732.000000
758481.000000
759289.000000
760120.000000
760945.000000
761686.000000
762423.000000
763215.000000
764051.000000
764860.000000
765614.000000
766368.000000
767182.000000
768024.000000
768830.000000
769580.000000
770320.000000
771098.000000
771918.000000
772688.000000
773409.000000
774138.000000
774900.000000
775719.000000
776534.000000
777266.000000
778015.000000
778811.000000
779632.000000
780435.000000
781166.000000
781898.000000
782704.000000
783562.000000
784394.000000
785163.000000
785911.000000
786711.000000
787529.000000
788331.000000
789065.000000
789810.000000
790604.000000
791456.000000
792286.000000
793035.000000
793776.000000
794578.000000
795427.000000
796289.000000
797084.000000
797828.000000
798636.000000
799492.000000
800360.000000
801215.000000
802014.000000
802757.000000
803543.000000
804375.000000
805222.000000
806003.000000
806731.000000
807505.000000
808309.000000
809128.000000
809883.000000
810600.000000
811351.000000
812173.000000
813009.000000
813821.000000
814549.000000
815274.000000
816040.000000
816868.000000
817679.000000
818419.000000
819125.000000
819854.000000
820607.000000
821340.000000
822030.000000
822734.000000
823514.000000
824347.000000
825200.000000
826008.000000
826741.000000
827468.000000
828234.000000
829051.000000
829881.000000
830633.000000
831374.000000
832199.000000
833054.000000
833886.000000
834639.000000
835354.000000
836135.000000
836976.000000
837834.000000
838660.000000
839415.000000
840183.000000
841002.000000
841846.000000
842683.000000
843436.000000
844153.000000
844905.000000
845721.000000
846533.000000
847278.000000
848009.000000
848744.000000
849466.000000
850170.000000
850862.000000
851541.000000
852212.000000
852908.000000
853648.000000
854428.000000
855122.000000
855811.000000
856541.000000
857326.000000
858078.000000
858773.000000
859466.000000
860182.000000
860929.000000
861674.000000
862381.000000
863099.000000
863856.000000
864627.000000
865377.000000
866084.000000
866800.000000
867564.000000
868364.000000
869152.000000
869873.000000
870584.000000
871327.000000
872136.000000
872981.000000
873727.000000
874460.000000
875248.000000
876058.000000
876852.000000
877593.000000
878347.000000
879171.000000
880035.000000
880832.000000
881563.000000
882324.000000
883128.000000
883925.000000
884692.000000
885411.000000
886158.000000
886957.000000
887767.000000
888533.000000
889251.000000
889999.000000
890794.000000
891584.000000
892307.000000
893011.000000
893758.000000
894555.000000
895371.000000
896135.000000
896844.000000
897576.000000
898358.000000
899204.000000
900059.000000
900791.000000
901493.000000
