ECG (ms)
505.000000
1239.000000
1959.000000
2700.000000
3408.000000
4056.000000
4676.000000
5311.000000
5996.000000
6762.000000
7524.000000
8303.000000
9084.000000
9780.000000
10446.000000
11101.000000
11763.000000
12454.000000
13139.000000
13851.000000
14628.000000
15444.000000
16234.000000
17064.000000
17911.000000
18699.000000
19469.000000
20280.000000
21107.000000
21893.000000
22693.000000
23490.000000
24311.000000
25076.000000
25856.000000
26666.000000
27456.000000
28251.000000
29086.000000
29925.000000
30717.000000
31518.000000
32298.000000
33027.000000
33765.000000
34529.000000
35303.000000
36072.000000
36888.000000
37739.000000
38530.000000
39304.000000
40111.000000
40915.000000
41682.000000
42447.000000
43229.000000
43965.000000
44684.000000
45438.000000
46274.000000
47068.000000
47860.000000
48687.000000
49541.000000
50323.000000
51050.000000
51779.000000
52550.000000
53359.000000
54123.000000
54875.000000
55658.000000
56448.000000
57189.000000
57931.000000
58686.000000
59406.000000
60140.000000
60925.000000
61721.000000
62474.000000
63231.000000
63991.000000
64748.000000
65480.000000
66213.000000
66983.000000
67742.000000
68459.000000
69181.000000
69933.000000
70724.000000
71473.000000
72228.000000
73014.000000
73854.000000
74640.000000
75401.000000
76177.000000
76971.000000
77772.000000
78541.000000
79359.000000
80226.000000
81109.000000
81946.000000
82705.000000
83437.000000
84190.000000
85006.000000
85838.000000
86627.000000
87445.000000
88304.000000
89181.000000
90005.000000
90824.000000
91649.000000
92480.000000
93290.000000
94108.000000
94978.000000
95858.000000
96681.000000
97453.000000
98255.000000
99108.000000
99961.000000
100765.000000
101582.000000
102444.000000
103317.000000
104148.000000
104914.000000
105665.000000
106477.000000
107387.000000
108299.000000
109126.000000
109896.000000
110687.000000
111549.000000
112440.000000
113327.000000
114158.000000
114958.000000
115767.000000
116630.000000
117524.000000
118371.000000
119203.000000
120077.000000
120936.000000
121740.000000
122507.000000
123342.000000
124215.000000
125079.000000
125919.000000
126760.000000
127657.000000
128568.000000
129436.000000
130232.000000
131034.000000
131882.000000
132759.000000
133602.000000
134485.000000
135413.000000
136329.000000
137207.000000
138107.000000
139031.000000
139899.000000
140753.000000
141636.000000
142521.000000
143372.000000
144229.000000
145112.000000
145987.000000
146798.000000
147575.000000
148373.000000
149278.000000
150235.000000
151152.000000
152023.000000
152903.000000
153778.000000
154600.000000
155393.000000
156282.000000
157220.000000
158131.000000
158996.000000
159903.000000
160821.000000
161694.000000
162567.000000
163445.000000
164288.000000
165096.000000
165940.000000
166845.000000
167723.000000
168558.000000
169396.000000
170271.000000
171141.000000
171943.000000
172731.000000
173512.000000
174357.000000
175272.000000
176182.000000
177035.000000
177896.000000
178782.000000
179668.000000
180513.000000
181325.000000
182187.000000
183071.000000
183945.000000
184786.000000
185678.000000
186593.000000
187506.000000
188373.000000
189219.000000
190112.000000
191014.000000
191874.000000
192693.000000
193556.000000
194439.000000
195304.000000
196115.000000
196940.000000
197820.000000
198726.000000
199569.000000
200419.000000
201289.000000
202153.000000
202967.000000
203784.000000
204636.000000
205507.000000
206321.000000
207115.000000
207969.000000
208872.000000
209719.000000
210504.000000
211325.000000
212217.000000
213110.000000
213957.000000
214844.000000
215738.000000
216585.000000
217378.000000
218193.000000
219043.000000
219856.000000
220643.000000
221434.000000
222302.000000
223191.000000
224024.000000
224816.000000
225645.000000
226510.000000
227354.000000
228138.000000
228940.000000
229808.000000
230688.000000
231503.000000
232304.000000
233131.000000
233932.000000
234690.000000
235462.000000
236284.000000
237176.000000
238023.000000
238857.000000
239713.000000
240543.000000
241322.000000
242074.000000
242864.000000
243672.000000
244444.000000
245191.000000
245960.000000
246788.000000
247587.000000
248352.000000
249109.000000
249896.000000
250714.000000
251518.000000
252290.000000
253075.000000
253884.000000
254672.000000
255422.000000
256179.000000
257036.000000
257932.000000
258770.000000
259552.000000
260352.000000
261262.000000
262198.000000
263130.000000
263981.000000
264784.000000
265614.000000
266466.000000
267290.000000
268068.000000
268872.000000
269737.000000
270638.000000
271480.000000
272314.000000
273194.000000
274084.000000
274932.000000
275787.000000
276684.000000
277623.000000
278535.000000
279364.000000
280185.000000
281054.000000
281935.000000
282708.000000
283488.000000
284314.000000
285211.000000
286096.000000
286915.000000
287748.000000
288618.000000
289460.000000
290231.000000
291003.000000
291821.000000
292697.000000
293522.000000
294352.000000
295202.000000
296033.000000
296837.000000
297648.000000
298490.000000
299330.000000
300116.000000
300908.000000
301752.000000
302570.000000
303350.000000
304134.000000
304972.000000
305830.000000
306613.000000
307360.000000
308130.000000
308953.000000
309758.000000
310569.000000
311465.000000
312399.000000
313276.000000
314069.000000
314836.000000
315630.000000
316421.000000
317170.000000
317888.000000
318624.000000
319414.000000
320276.000000
321146.000000
322041.000000
322924.000000
323728.000000
324512.000000
325295.000000
326105.000000
326895.000000
327672.000000
328512.000000
329438.000000
330384.000000
331263.000000
332125.000000
332980.000000
333779.000000
334553.000000
335370.000000
336263.000000
337161.000000
338002.000000
338818.000000
339682.000000
340581.000000
341441.000000
342244.000000
343063.000000
343935.000000
344785.000000
345597.000000
346406.000000
347286.000000
348134.000000
348991.000000
349899.000000
350765.000000
351548.000000
352328.000000
353140.000000
353940.000000
354680.000000
355389.000000
356145.000000
356999.000000
357853.000000
358668.000000
359501.000000
360360.000000
361203.000000
361983.000000
362732.000000
363493.000000
364293.000000
365096.000000
365872.000000
366662.000000
367437.000000
368142.000000
368809.000000
369497.000000
370202.000000
370919.000000
371673.000000
372484.000000
373321.000000
374108.000000
374915.000000
375709.000000
376524.000000
377287.000000
378032.000000
378785.000000
379587.000000
380389.000000
381205.000000
382061.000000
382933.000000
383754.000000
384554.000000
385386.000000
386221.000000
387010.000000
387809.000000
388653.000000
389546.000000
390398.000000
391227.000000
392123.000000
393034.000000
393876.000000
394749.000000
395650.000000
396547.000000
397387.000000
398266.000000
399164.000000
400007.000000
400819.000000
401658.000000
402519.000000
403343.000000
404190.000000
405066.000000
405946.000000
406777.000000
407640.000000
408504.000000
409325.000000
410108.000000
410907.000000
411735.000000
412543.000000
413331.000000
414155.000000
415019.000000
415823.000000
416620.000000
417473.000000
418298.000000
419085.000000
419874.000000
420701.000000
421524.000000
422327.000000
423109.000000
423914.000000
424738.000000
425538.000000
426341.000000
427220.000000
428140.000000
428986.000000
429827.000000
430702.000000
431589.000000
432408.000000
433196.000000
434010.000000
434861.000000
435687.000000
436464.000000
437293.000000
438151.000000
438999.000000
439788.000000
440558.000000
441380.000000
442288.000000
443153.000000
443956.000000
444789.000000
445633.000000
446460.000000
447234.000000
448067.000000
448934.000000
449788.000000
450606.000000
451489.000000
452386.000000
453242.000000
454055.000000
454896.000000
455697.000000
456464.000000
457228.000000
458044.000000
458917.000000
459747.000000
460656.000000
461590.000000
462495.000000
463292.000000
464124.000000
464985.000000
465827.000000
466614.000000
467462.000000
468338.000000
469169.000000
469963.000000
470815.000000
471703.000000
472526.000000
473314.000000
474147.000000
475017.000000
475857.000000
476642.000000
477450.000000
478297.000000
479170.000000
479985.000000
480855.000000
481774.000000
482704.000000
483571.000000
484408.000000
485246.000000
486044.000000
486812.000000
487622.000000
488497.000000
489352.000000
490162.000000
490989.000000
491833.000000
492668.000000
493474.000000
494309.000000
495157.000000
495971.000000
496732.000000
497528.000000
498367.000000
499217.000000
500034.000000
500849.000000
501713.000000
502578.000000
503406.000000
504175.000000
505008.000000
505895.000000
506820.000000
507693.000000
508568.000000
509461.000000
510329.000000
511175.000000
512034.000000
512932.000000
513822.000000
514680.000000
515607.000000
516546.000000
517428.000000
518262.000000
519109.000000
519970.000000
520838.000000
521670.000000
522466.000000
523387.000000
524390.000000
525352.000000
526252.000000
527135.000000
528079.000000
529051.000000
529968.000000
530853.000000
531787.000000
532738.000000
533616.000000
534474.000000
535387.000000
536345.000000
537245.000000
538128.000000
539065.000000
540017.000000
540921.000000
541770.000000
542646.000000
543510.000000
544364.000000
545192.000000
546029.000000
546882.000000
547702.000000
548504.000000
549338.000000
550211.000000
551025.000000
551787.000000
552565.000000
553364.000000
554163.000000
554932.000000
555742.000000
556609.000000
557426.000000
558194.000000
558970.000000
559803.000000
560649.000000
561439.000000
562203.000000
562995.000000
563810.000000
564585.000000
565306.000000
565981.000000
566672.000000
567507.000000
568467.000000
569386.000000
570238.000000
571099.000000
571980.000000
572865.000000
573701.000000
574476.000000
575274.000000
576109.000000
576936.000000
577797.000000
578687.000000
579602.000000
580446.000000
581292.000000
582153.000000
582973.000000
583752.000000
584597.000000
585502.000000
586364.000000
587205.000000
588086.000000
588980.000000
589800.000000
590615.000000
591436.000000
592235.000000
592988.000000
593777.000000
594622.000000
595475.000000
596284.000000
597096.000000
597963.000000
598822.000000
599677.000000
600575.000000
601505.000000
602389.000000
603194.000000
604005.000000
604823.000000
605644.000000
606455.000000
607344.000000
608299.000000
609210.000000
610065.000000
610886.000000
611728.000000
612637.000000
613467.000000
614274.000000
615109.000000
615912.000000
616701.000000
617605.000000
618551.000000
619481.000000
620315.000000
621153.000000
622022.000000
622861.000000
623687.000000
624593.000000
625528.000000
626414.000000
627315.000000
628218.000000
629126.000000
629986.000000
630827.000000
631714.000000
632602.000000
633420.000000
634212.000000
635090.000000
636034.000000
636900.000000
637698.000000
638583.000000
639541.000000
640493.000000
641421.000000
642359.000000
643274.000000
644096.000000
644936.000000
645826.000000
646699.000000
647537.000000
648462.000000
649438.000000
650376.000000
651255.000000
652080.000000
652890.000000
653722.000000
654643.000000
655584.000000
656491.000000
657327.000000
658128.000000
658983.000000
659937.000000
660895.000000
661797.000000
662658.000000
663551.000000
664484.000000
665380.000000
666282.000000
667250.000000
668241.000000
669160.000000
670030.000000
670928.000000
671854.000000
672766.000000
673618.000000
674438.000000
675320.000000
676240.000000
677141.000000
677988.000000
678870.000000
679725.000000
680549.000000
681361.000000
682209.000000
683068.000000
683900.000000
684758.000000
685654.000000
686525.000000
687336.000000
688163.000000
689010.000000
689861.000000
690667.000000
691494.000000
692364.000000
693228.000000
694053.000000
694893.000000
695720.000000
696515.000000
697231.000000
697918.000000
698635.000000
699372.000000
700200.000000
701159.000000
702106.000000
702932.000000
703757.000000
704645.000000
705529.000000
706366.000000
707225.000000
708146.000000
709060.000000
709898.000000
710783.000000
711701.000000
712598.000000
713439.000000
714367.000000
715344.000000
716275.000000
717180.000000
718105.000000
719008.000000
719875.000000
720753.000000
721680.000000
722581.000000
723445.000000
724354.000000
725309.000000
726263.000000
727160.000000
728077.000000
729000.000000
729907.000000
730700.000000
731521.000000
732488.000000
733456.000000
734388.000000
735245.000000
736117.000000
737020.000000
737901.000000
738749.000000
739557.000000
740395.000000
741328.000000
742286.000000
743241.000000
744149.000000
745001.000000
745840.000000
746740.000000
747668.000000
748566.000000
749405.000000
750292.000000
751253.000000
752225.000000
753164.000000
753993.000000
754785.000000
755582.000000
756424.000000
757248.000000
758094.000000
758984.000000
759900.000000
760763.000000
761594.000000
762472.000000
763381.000000
764237.000000
765091.000000
766000.000000
766933.000000
767819.000000
768734.000000
769692.000000
770619.000000
771471.000000
772344.000000
773249.000000
774134.000000
774952.000000
775769.000000
776670.000000
777630.000000
778550.000000
779426.000000
780318.000000
781242.000000
782110.000000
782932.000000
783773.000000
784643.000000
785498.000000
786322.000000
787187.000000
788086.000000
788944.000000
789766.000000
790606.000000
791485.000000
792294.000000
793049.000000
793816.000000
794638.000000
795461.000000
796237.000000
797033.000000
797875.000000
798736.000000
799542.000000
800342.000000
801148.000000
801921.000000
802675.000000
803454.000000
804331.000000
805246.000000
806115.000000
806952.000000
807821.000000
808651.000000
809409.000000
810164.000000
810919.000000
811676.000000
812426.000000
813231.000000
814192.000000
815133.000000
815973.000000
816821.000000
817696.000000
818517.000000
819278.000000
820009.000000
820769.000000
821633.000000
822540.000000
823369.000000
824241.000000
825180.000000
826118.000000
826988.000000
827831.000000
828682.000000
829514.000000
830311.000000
831147.000000
831966.000000
832755.000000
833593.000000
834467.000000
835313.000000
836104.000000
836898.000000
837718.000000
838530.000000
839298.000000
840082.000000
840898.000000
841702.000000
842458.000000
843228.000000
844034.000000
844872.000000
845663.000000
846393.000000
847132.000000
847882.000000
848664.000000
849399.000000
850128.000000
850878.000000
851726.000000
852584.000000
853413.000000
854284.000000
855158.000000
855975.000000
856746.000000
857526.000000
858306.000000
859057.000000
859777.000000
860514.000000
861329.000000
862270.000000
863153.000000
863986.000000
864851.000000
865738.000000
866583.000000
867381.000000
868211.000000
869074.000000
869926.000000
870718.000000
871545.000000
872451.000000
873339.000000
874174.000000
875013.000000
875900.000000
876747.000000
877542.000000
878373.000000
879262.000000
880152.000000
880997.000000
881887.000000
882765.000000
883565.000000
884296.000000
885018.000000
885776.000000
886616.000000
887482.000000
888383.000000
889306.000000
890257.000000
891124.000000
891962.000000
892847.000000
893724.000000
894543.000000
895372.000000
896244.000000
897115.000000
897924.000000
898757.000000
899643.000000
900482.000000
901301.000000
902169.000000
903050.000000
903904.000000
904777.000000
905663.000000
906523.000000
907347.000000
908186.000000
909049.000000
909893.000000
910732.000000
911602.000000
912486.000000
913347.000000
914190.000000
915075.000000
915957.000000
916775.000000
917599.000000
918477.000000
919356.000000
920217.000000
921040.000000
921894.000000
922800.000000
923697.000000
924564.000000
925466.000000
926366.000000
927203.000000
928040.000000
928923.000000
929788.000000
930613.000000
931371.000000
932174.000000
933127.000000
934080.000000
934956.000000
935846.000000
936727.000000
937521.000000
938275.000000
939068.000000
939927.000000
940821.000000
941685.000000
942555.000000
943428.000000
944268.000000
945078.000000
945927.000000
946837.000000
947702.000000
948505.000000
949302.000000
950110.000000
950892.000000
951688.000000
952580.000000
953500.000000
954386.000000
955278.000000
956186.000000
957025.000000
957866.000000
958713.000000
959521.000000
