ECG (ms)
468.000000
1386.000000
2326.000000
3558.000000
4626.000000
5632.000000
6681.000000
7724.000000
8685.000000
9492.000000
10474.000000
11513.000000
12495.000000
13427.000000
14345.000000
15245.000000
16185.000000
17123.000000
18013.000000
19010.000000
19938.000000
20812.000000
21717.000000
22932.000000
23930.000000
24926.000000
25934.000000
26960.000000
27942.000000
28970.000000
30035.000000
31086.000000
32153.000000
33233.000000
34259.000000
35302.000000
36357.000000
37345.000000
38349.000000
39378.000000
40391.000000
41370.000000
42386.000000
43422.000000
44448.000000
45418.000000
46416.000000
47445.000000
48469.000000
49425.000000
50219.000000
50963.000000
51852.000000
53018.000000
53980.000000
54952.000000
55912.000000
56864.000000
57871.000000
58898.000000
59908.000000
60954.000000
61978.000000
63004.000000
64057.000000
65069.000000
66080.000000
67095.000000
68070.000000
69060.000000
70041.000000
70968.000000
71918.000000
72866.000000
73863.000000
74838.000000
75872.000000
76918.000000
77911.000000
78905.000000
79825.000000
80725.000000
81565.000000
82472.000000
83354.000000
84273.000000
85229.000000
86476.000000
87537.000000
88557.000000
89513.000000
90517.000000
91510.000000
92463.000000
93366.000000
94312.000000
95303.000000
96289.000000
97305.000000
98374.000000
99407.000000
100464.000000
101527.000000
102549.000000
103595.000000
104639.000000
105670.000000
106624.000000
107598.000000
108593.000000
109535.000000
110518.000000
111557.000000
112553.000000
113578.000000
114632.000000
115636.000000
116674.000000
117721.000000
118717.000000
119749.000000
120813.000000
121865.000000
122837.000000
123794.000000
124798.000000
125770.000000
126790.000000
127805.000000
128811.000000
129870.000000
130913.000000
131955.000000
132998.000000
133988.000000
134945.000000
135940.000000
136951.000000
137919.000000
138933.000000
139981.000000
141027.000000
142067.000000
143073.000000
144002.000000
144842.000000
145946.000000
146909.000000
147855.000000
148871.000000
149915.000000
150969.000000
151963.000000
152920.000000
153926.000000
154933.000000
155906.000000
156946.000000
158020.000000
159097.000000
160142.000000
161119.000000
162104.000000
163028.000000
163973.000000
164974.000000
165973.000000
167009.000000
168105.000000
169185.000000
170276.000000
171388.000000
172446.000000
173518.000000
174578.000000
175565.000000
176511.000000
177490.000000
178434.000000
179332.000000
180288.000000
181276.000000
182233.000000
183239.000000
184271.000000
185254.000000
186273.000000
187307.000000
188280.000000
189292.000000
190326.000000
191324.000000
192362.000000
193422.000000
194490.000000
195488.000000
196490.000000
197518.000000
198543.000000
199510.000000
200509.000000
201539.000000
202547.000000
203551.000000
204590.000000
205628.000000
206639.000000
207581.000000
208512.000000
209472.000000
210437.000000
211365.000000
212279.000000
213258.000000
214245.000000
215193.000000
216122.000000
217102.000000
218119.000000
219152.000000
220153.000000
221117.000000
222114.000000
223120.000000
224143.000000
225131.000000
226110.000000
227149.000000
228220.000000
229263.000000
230272.000000
231304.000000
232269.000000
233026.000000
233738.000000
234427.000000
235177.000000
236340.000000
237260.000000
238205.000000
239153.000000
240058.000000
240994.000000
241976.000000
242974.000000
243928.000000
244892.000000
245740.000000
246465.000000
247207.000000
248085.000000
248987.000000
250217.000000
251253.000000
252257.000000
253302.000000
254363.000000
255394.000000
256395.000000
257375.000000
258294.000000
259266.000000
260258.000000
261217.000000
262240.000000
263253.000000
264234.000000
265274.000000
266320.000000
267317.000000
268348.000000
269397.000000
270397.000000
271422.000000
272473.000000
273530.000000
274599.000000
275619.000000
276651.000000
277616.000000
278593.000000
279539.000000
280476.000000
281460.000000
282429.000000
283401.000000
284435.000000
285472.000000
286501.000000
287559.000000
288582.000000
289617.000000
290643.000000
291572.000000
292502.000000
293468.000000
294409.000000
295362.000000
296391.000000
297433.000000
298470.000000
299566.000000
300665.000000
301755.000000
302775.000000
303814.000000
304805.000000
305787.000000
306813.000000
307824.000000
308826.000000
309875.000000
310935.000000
311939.000000
312955.000000
313989.000000
314982.000000
315960.000000
316978.000000
318012.000000
319029.000000
319996.000000
320993.000000
322018.000000
323037.000000
324009.000000
324912.000000
325817.000000
326758.000000
327725.000000
328648.000000
329561.000000
330534.000000
331536.000000
332561.000000
333553.000000
334525.000000
335547.000000
336597.000000
337642.000000
338629.000000
339619.000000
340645.000000
341698.000000
342754.000000
343753.000000
344728.000000
345752.000000
346802.000000
347803.000000
348808.000000
349847.000000
350898.000000
351890.000000
352871.000000
353889.000000
354901.000000
355898.000000
356816.000000
357749.000000
358695.000000
359641.000000
360526.000000
361424.000000
362359.000000
363307.000000
364240.000000
365089.000000
365946.000000
366749.000000
367561.000000
368478.000000
369375.000000
370569.000000
371558.000000
372405.000000
373266.000000
374285.000000
375165.000000
376064.000000
377305.000000
378378.000000
379380.000000
380410.000000
381465.000000
382493.000000
383559.000000
384671.000000
385785.000000
386897.000000
388024.000000
389113.000000
390193.000000
391285.000000
392368.000000
393426.000000
394520.000000
395608.000000
396652.000000
397726.000000
398785.000000
399803.000000
400850.000000
401869.000000
402864.000000
403902.000000
404956.000000
405967.000000
407003.000000
408066.000000
409093.000000
410141.000000
411212.000000
412242.000000
413293.000000
414362.000000
415382.000000
416429.000000
417496.000000
418517.000000
419546.000000
420604.000000
421622.000000
422673.000000
423760.000000
424793.000000
425842.000000
426897.000000
427883.000000
428905.000000
429908.000000
430895.000000
431933.000000
432960.000000
434016.000000
435031.000000
436030.000000
437046.000000
438020.000000
439013.000000
440030.000000
441029.000000
442030.000000
442997.000000
443911.000000
444714.000000
445566.000000
446522.000000
447456.000000
448656.000000
449654.000000
450609.000000
451605.000000
452589.000000
453566.000000
454603.000000
455643.000000
456658.000000
457721.000000
458758.000000
459776.000000
460828.000000
461856.000000
462877.000000
463911.000000
464904.000000
465857.000000
466793.000000
467773.000000
468754.000000
469710.000000
470714.000000
471727.000000
472693.000000
473708.000000
474739.000000
475723.000000
476720.000000
477746.000000
478738.000000
479721.000000
480748.000000
481793.000000
482772.000000
483764.000000
484792.000000
485836.000000
486830.000000
487855.000000
488923.000000
489967.000000
490983.000000
492038.000000
493095.000000
494095.000000
495113.000000
496157.000000
497166.000000
498114.000000
498871.000000
499582.000000
500273.000000
501063.000000
502046.000000
502958.000000
503847.000000
505046.000000
506085.000000
507017.000000
507993.000000
508975.000000
509938.000000
510857.000000
511848.000000
512868.000000
513852.000000
514874.000000
515930.000000
516922.000000
517952.000000
518996.000000
519985.000000
520794.000000
521656.000000
522600.000000
523774.000000
524691.000000
525593.000000
526498.000000
527396.000000
528445.000000
529629.000000
530587.000000
531575.000000
532604.000000
533593.000000
534601.000000
535659.000000
536734.000000
537743.000000
538781.000000
539806.000000
540838.000000
541829.000000
542819.000000
543839.000000
544836.000000
545888.000000
546943.000000
547960.000000
549032.000000
550085.000000
551099.000000
552037.000000
553007.000000
554003.000000
554978.000000
555949.000000
556985.000000
558008.000000
559052.000000
560105.000000
561073.000000
562069.000000
563078.000000
564031.000000
565015.000000
566040.000000
567045.000000
568024.000000
569058.000000
570105.000000
571105.000000
572146.000000
573206.000000
574219.000000
575191.000000
576205.000000
577251.000000
578247.000000
579275.000000
580324.000000
581325.000000
582355.000000
583383.000000
584385.000000
585305.000000
586197.000000
587127.000000
588049.000000
588983.000000
589964.000000
590986.000000
592020.000000
593049.000000
594035.000000
594924.000000
595746.000000
596585.000000
597748.000000
598675.000000
599615.000000
600606.000000
601626.000000
602659.000000
603651.000000
604591.000000
605580.000000
606600.000000
607613.000000
608571.000000
609489.000000
610457.000000
611472.000000
612472.000000
613463.000000
614412.000000
615402.000000
616424.000000
617428.000000
618426.000000
619466.000000
620473.000000
621494.000000
622536.000000
623568.000000
624547.000000
625528.000000
626542.000000
627512.000000
628540.000000
629545.000000
630571.000000
631527.000000
632534.000000
633515.000000
634467.000000
635398.000000
636363.000000
637339.000000
638308.000000
639236.000000
640204.000000
641237.000000
642262.000000
643289.000000
644302.000000
645248.000000
646216.000000
647220.000000
648222.000000
649191.000000
650227.000000
651286.000000
652305.000000
653331.000000
654298.000000
655129.000000
655991.000000
656871.000000
658106.000000
659090.000000
660076.000000
661081.000000
662045.000000
663041.000000
664048.000000
665092.000000
666143.000000
667125.000000
668154.000000
669163.000000
670180.000000
671240.000000
672256.000000
673304.000000
674334.000000
675339.000000
676302.000000
677205.000000
678158.000000
679115.000000
680056.000000
680996.000000
681998.000000
683017.000000
683985.000000
684985.000000
686001.000000
687024.000000
687967.000000
688958.000000
689958.000000
690935.000000
691937.000000
692914.000000
693882.000000
694910.000000
695922.000000
696983.000000
698049.000000
699054.000000
700042.000000
700970.000000
701783.000000
702889.000000
703886.000000
704859.000000
705804.000000
706771.000000
707749.000000
708676.000000
709625.000000
710616.000000
711599.000000
712563.000000
713567.000000
714586.000000
715553.000000
716543.000000
717543.000000
718508.000000
719507.000000
720492.000000
721420.000000
722369.000000
723341.000000
724276.000000
725240.000000
726237.000000
727205.000000
728200.000000
729195.000000
730175.000000
731094.000000
731985.000000
732927.000000
733868.000000
734794.000000
735782.000000
736800.000000
737796.000000
738793.000000
739814.000000
740829.000000
741788.000000
742756.000000
743773.000000
744796.000000
745754.000000
746719.000000
747711.000000
748688.000000
749653.000000
750603.000000
751549.000000
752480.000000
753459.000000
754455.000000
755417.000000
756404.000000
757413.000000
758388.000000
759381.000000
760387.000000
761368.000000
762370.000000
763345.000000
764329.000000
765347.000000
766337.000000
767326.000000
768342.000000
769333.000000
770318.000000
771340.000000
772369.000000
773340.000000
774301.000000
775304.000000
776302.000000
777274.000000
778266.000000
779281.000000
780284.000000
781290.000000
782296.000000
783250.000000
784233.000000
785180.000000
786100.000000
787084.000000
788060.000000
789066.000000
790076.000000
791038.000000
792055.000000
793059.000000
794061.000000
795112.000000
796173.000000
797191.000000
798240.000000
799283.000000
800303.000000
801235.000000
802170.000000
803133.000000
804121.000000
805054.000000
806028.000000
807016.000000
808019.000000
809011.000000
809977.000000
810856.000000
811798.000000
812705.000000
813650.000000
814634.000000
815616.000000
816595.000000
817603.000000
818582.000000
819560.000000
820580.000000
821565.000000
822570.000000
823613.000000
824630.000000
825643.000000
826687.000000
827733.000000
828740.000000
829786.000000
830843.000000
831867.000000
832934.000000
834024.000000
835073.000000
836140.000000
837196.000000
838184.000000
839137.000000
840135.000000
841119.000000
842099.000000
843138.000000
844178.000000
845211.000000
846281.000000
847322.000000
848347.000000
849393.000000
850423.000000
851435.000000
852486.000000
853534.000000
854562.000000
855636.000000
856716.000000
857762.000000
858840.000000
859920.000000
860945.000000
861996.000000
863010.000000
864012.000000
865023.000000
866010.000000
866935.000000
867896.000000
868831.000000
869778.000000
870585.000000
871340.000000
872126.000000
872911.000000
873718.000000
874581.000000
875464.000000
876299.000000
877193.000000
878142.000000
879078.000000
879943.000000
880903.000000
882066.000000
882997.000000
883945.000000
884889.000000
885865.000000
886828.000000
887761.000000
888755.000000
889745.000000
890734.000000
891770.000000
892767.000000
893728.000000
894727.000000
895736.000000
896693.000000
897643.000000
898642.000000
899624.000000
900590.000000
901592.000000
902580.000000
903563.000000
904527.000000
905405.000000
906317.000000
907128.000000
907857.000000
908640.000000
909489.000000
910438.000000
911359.000000
912499.000000
913510.000000
914439.000000
915384.000000
916305.000000
917260.000000
918171.000000
919078.000000
919983.000000
920920.000000
921852.000000
922733.000000
923523.000000
924288.000000
925161.000000
926010.000000
926960.000000
928164.000000
929136.000000
930092.000000
931089.000000
932106.000000
933097.000000
934150.000000
935235.000000
936286.000000
937381.000000
938478.000000
939505.000000
940560.000000
941614.000000
942594.000000
943605.000000
944629.000000
945638.000000
946672.000000
947753.000000
948820.000000
949891.000000
950982.000000
952040.000000
953043.000000
954079.000000
955120.000000
956103.000000
957092.000000
958098.000000
959062.000000
960059.000000
961024.000000
962028.000000
963008.000000
964029.000000
965019.000000
966019.000000
966993.000000
967899.000000
968841.000000
969697.000000
970509.000000
971412.000000
972314.000000
973210.000000
974455.000000
975487.000000
976460.000000
977468.000000
978439.000000
979449.000000
980486.000000
981463.000000
982476.000000
983455.000000
984422.000000
985437.000000
986398.000000
987394.000000
988409.000000
989365.000000
990370.000000
991384.000000
992399.000000
993410.000000
994402.000000
995307.000000
996239.000000
997199.000000
998127.000000
999104.000000
1000125.000000
1001109.000000
1002122.000000
1003109.000000
1004036.000000
1005011.000000
1005980.000000
1006943.000000
1007888.000000
1008780.000000
1009699.000000
1010579.000000
1011501.000000
1012424.000000
1013348.000000
1014233.000000
1015135.000000
1016083.000000
1017050.000000
1017988.000000
1018977.000000
1019975.000000
1020945.000000
1021956.000000
1022973.000000
1023969.000000
1024920.000000
1025868.000000
1026809.000000
1027726.000000
1028592.000000
1029489.000000
1030439.000000
1031416.000000
1032360.000000
1033311.000000
1034302.000000
1035312.000000
1036320.000000
1037329.000000
1038319.000000
1039219.000000
1040152.000000
1041088.000000
1041976.000000
1042913.000000
1043887.000000
1044868.000000
1045845.000000
1046763.000000
1047734.000000
1048718.000000
1049686.000000
1050622.000000
1051623.000000
1052643.000000
1053632.000000
1054584.000000
1055602.000000
1056635.000000
1057618.000000
1058653.000000
1059694.000000
1060678.000000
1061695.000000
1062740.000000
1063757.000000
1064759.000000
1065822.000000
1066872.000000
1067948.000000
1069038.000000
1070115.000000
1071123.000000
1072130.000000
1073130.000000
1074134.000000
1075121.000000
1076090.000000
1077080.000000
1078094.000000
1079113.000000
1080086.000000
1081054.000000
1082064.000000
1083056.000000
1084069.000000
1085125.000000
1086148.000000
1087221.000000
1088273.000000
1089341.000000
1090396.000000
1091373.000000
1092349.000000
1093335.000000
1094345.000000
1095364.000000
1096310.000000
1097308.000000
1098333.000000
1099362.000000
1100351.000000
1101368.000000
1102392.000000
1103382.000000
1104388.000000
1105388.000000
1106341.000000
1107353.000000
1108383.000000
1109386.000000
1110382.000000
1111430.000000
1112496.000000
1113521.000000
1114593.000000
1115684.000000
1116743.000000
1117775.000000
1118817.000000
1119903.000000
1120993.000000
1122067.000000
1123175.000000
1124266.000000
1125332.000000
1126441.000000
1127555.000000
1128638.000000
1129766.000000
1130901.000000
1131997.000000
1133132.000000
1134249.000000
1135328.000000
1136435.000000
1137528.000000
1138592.000000
1139689.000000
1140764.000000
1141823.000000
1142924.000000
1144033.000000
1145086.000000
1146176.000000
1147276.000000
1148333.000000
1149394.000000
1150486.000000
1151556.000000
1152604.000000
1153676.000000
1154692.000000
1155732.000000
1156746.000000
1157729.000000
1158699.000000
1159572.000000
1160509.000000
1161570.000000
1162548.000000
1163477.000000
1164470.000000
1165452.000000
1166440.000000
1167454.000000
1168450.000000
1169451.000000
1170444.000000
1171381.000000
1172293.000000
1173253.000000
1174191.000000
1175197.000000
1176215.000000
1177199.000000
1178195.000000
1179239.000000
1180256.000000
1181283.000000
1182345.000000
1183407.000000
1184428.000000
1185470.000000
1186541.000000
1187562.000000
1188607.000000
1189664.000000
1190662.000000
1191691.000000
1192762.000000
1193832.000000
1194877.000000
1195921.000000
1196899.000000
1197929.000000
1198970.000000
1199962.000000
1200997.000000
1202012.000000
1203036.000000
1204098.000000
1205123.000000
1206172.000000
1207202.000000
1208207.000000
1209249.000000
1210307.000000
1211320.000000
1212354.000000
1213419.000000
1214459.000000
1215433.000000
1216450.000000
1217434.000000
1218451.000000
1219472.000000
1220489.000000
1221496.000000
1222413.000000
1223382.000000
1224368.000000
1225371.000000
1226383.000000
1227314.000000
1228277.000000
1229257.000000
1230200.000000
1231193.000000
1232210.000000
1233237.000000
1234257.000000
1235180.000000
1236151.000000
1237129.000000
1238107.000000
1239074.000000
1239993.000000
1240965.000000
1241963.000000
1242957.000000
1243970.000000
1245017.000000
1246070.000000
1247077.000000
1248101.000000
1249135.000000
1250163.000000
1251195.000000
1252174.000000
1253218.000000
1254306.000000
1255432.000000
1256529.000000
1257670.000000
1258783.000000
1259895.000000
1260954.000000
1262035.000000
1263151.000000
1264248.000000
1265351.000000
1266468.000000
1267561.000000
1268623.000000
1269736.000000
1270864.000000
1271995.000000
1273140.000000
1274268.000000
1275394.000000
1276504.000000
1277519.000000
1278556.000000
1279602.000000
1280664.000000
1281700.000000
1282731.000000
1283748.000000
1284759.000000
1285786.000000
1286821.000000
1287858.000000
1288878.000000
1289923.000000
1290928.000000
1291979.000000
1293037.000000
1294064.000000
1295137.000000
1296181.000000
1297240.000000
1298266.000000
1299320.000000
1300403.000000
1301476.000000
1302500.000000
1303531.000000
1304557.000000
1305537.000000
1306542.000000
1307604.000000
1308706.000000
1309794.000000
1310930.000000
1312083.000000
1313220.000000
1314328.000000
1315364.000000
1316406.000000
1317467.000000
1318511.000000
1319566.000000
1320586.000000
1321621.000000
1322703.000000
1323786.000000
1324835.000000
1325924.000000
1327013.000000
1328047.000000
1329058.000000
1330022.000000
1331003.000000
1331979.000000
1332955.000000
1333886.000000
1334792.000000
1335744.000000
1336721.000000
1337715.000000
1338704.000000
1339635.000000
1340606.000000
1341589.000000
1342539.000000
1343535.000000
1344581.000000
1345604.000000
1346653.000000
1347692.000000
1348758.000000
1349834.000000
1350877.000000
1351960.000000
1353041.000000
1354111.000000
1355119.000000
1356168.000000
1357247.000000
1358278.000000
1359353.000000
1360445.000000
1361531.000000
1362578.000000
1363650.000000
1364744.000000
1365831.000000
1366875.000000
1367961.000000
1369038.000000
1370087.000000
1371157.000000
1372216.000000
1373218.000000
1374246.000000
1375286.000000
1376304.000000
1377277.000000
1378307.000000
1379375.000000
1380415.000000
1381434.000000
1382502.000000
1383582.000000
1384624.000000
1385634.000000
1386678.000000
1387742.000000
1388785.000000
1389804.000000
1390852.000000
1391938.000000
1393038.000000
1394140.000000
1395178.000000
1396238.000000
1397301.000000
1398311.000000
1399352.000000
1400409.000000
1401419.000000
1402460.000000
1403477.000000
1404393.000000
1405207.000000
1406108.000000
1407000.000000
1407947.000000
1409061.000000
1410072.000000
1411062.000000
1412114.000000
1413108.000000
1414137.000000
1415186.000000
1416159.000000
1417146.000000
1418180.000000
1419199.000000
