ECG (ms)
22.000000
923.000000
1792.000000
2702.000000
3643.000000
4566.000000
5460.000000
6374.000000
7295.000000
8184.000000
9030.000000
9878.000000
10742.000000
11610.000000
12473.000000
13352.000000
14261.000000
15179.000000
16073.000000
16952.000000
17843.000000
18740.000000
19636.000000
20507.000000
21351.000000
22191.000000
23048.000000
23933.000000
24819.000000
25689.000000
26547.000000
27447.000000
28362.000000
29238.000000
30081.000000
30940.000000
31810.000000
32668.000000
33512.000000
34377.000000
35271.000000
36118.000000
36942.000000
37788.000000
38678.000000
39612.000000
40549.000000
41428.000000
42256.000000
43103.000000
43994.000000
44916.000000
45816.000000
46661.000000
47431.000000
48186.000000
48908.000000
49557.000000
50229.000000
50944.000000
51674.000000
52520.000000
53524.000000
54506.000000
55416.000000
56288.000000
57143.000000
58006.000000
58887.000000
59798.000000
60728.000000
61638.000000
62531.000000
63431.000000
64366.000000
65309.000000
66244.000000
67145.000000
68001.000000
68847.000000
69727.000000
70615.000000
71477.000000
72270.000000
73047.000000
73886.000000
74767.000000
75668.000000
76530.000000
77356.000000
78196.000000
79052.000000
79916.000000
80788.000000
81645.000000
82481.000000
83311.000000
84161.000000
85049.000000
85967.000000
86859.000000
87706.000000
88536.000000
89405.000000
90300.000000
91164.000000
91986.000000
92813.000000
93669.000000
94553.000000
95425.000000
96327.000000
97224.000000
98099.000000
98932.000000
99758.000000
100518.000000
101235.000000
101959.000000
102748.000000
103664.000000
104567.000000
105443.000000
106292.000000
107162.000000
108037.000000
108899.000000
109723.000000
110501.000000
111303.000000
112137.000000
113001.000000
113887.000000
114763.000000
115582.000000
116416.000000
117299.000000
118207.000000
119106.000000
119969.000000
120802.000000
121655.000000
122536.000000
123435.000000
124360.000000
125285.000000
126192.000000
127049.000000
127870.000000
128740.000000
129678.000000
130638.000000
131582.000000
132487.000000
133353.000000
134220.000000
135143.000000
136076.000000
137001.000000
137874.000000
138693.000000
139527.000000
140417.000000
141352.000000
142251.000000
143102.000000
143969.000000
144876.000000
145796.000000
146683.000000
147533.000000
148335.000000
149156.000000
150007.000000
150891.000000
151761.000000
152557.000000
153306.000000
154092.000000
154900.000000
155708.000000
156545.000000
157418.000000
158304.000000
159166.000000
159994.000000
160778.000000
161561.000000
162372.000000
163250.000000
164147.000000
165033.000000
165894.000000
166722.000000
167561.000000
168442.000000
169347.000000
170208.000000
171019.000000
171812.000000
172632.000000
173489.000000
174361.000000
175210.000000
176046.000000
176919.000000
177753.000000
178525.000000
179253.000000
179979.000000
180650.000000
181326.000000
182067.000000
182979.000000
183972.000000
184859.000000
185698.000000
186531.000000
187376.000000
188245.000000
189104.000000
189955.000000
190863.000000
191822.000000
192810.000000
193806.000000
194774.000000
195715.000000
196659.000000
197615.000000
198557.000000
199459.000000
200312.000000
201166.000000
202044.000000
202954.000000
203847.000000
204666.000000
205488.000000
206362.000000
207269.000000
208191.000000
209076.000000
209907.000000
210730.000000
211591.000000
212479.000000
213368.000000
214235.000000
215056.000000
215891.000000
216729.000000
217505.000000
218246.000000
219008.000000
219789.000000
220593.000000
221422.000000
222275.000000
223127.000000
223942.000000
224743.000000
225565.000000
226424.000000
227297.000000
228157.000000
228966.000000
229771.000000
230586.000000
231434.000000
232290.000000
233140.000000
233955.000000
234765.000000
235598.000000
236477.000000
237375.000000
238282.000000
239151.000000
239965.000000
240744.000000
241587.000000
242525.000000
243511.000000
244464.000000
245345.000000
246170.000000
247025.000000
247944.000000
248847.000000
249695.000000
250515.000000
251391.000000
252303.000000
253217.000000
254105.000000
254961.000000
255803.000000
256673.000000
257534.000000
258365.000000
259171.000000
260037.000000
260954.000000
261885.000000
262758.000000
263617.000000
264488.000000
265364.000000
266201.000000
266999.000000
267769.000000
268509.000000
269238.000000
270008.000000
270859.000000
271804.000000
272767.000000
273675.000000
274569.000000
275498.000000
276422.000000
277301.000000
278131.000000
278964.000000
279829.000000
280716.000000
281605.000000
282459.000000
283313.000000
284207.000000
285112.000000
286014.000000
286886.000000
287723.000000
288546.000000
289388.000000
290243.000000
291099.000000
291930.000000
292776.000000
293670.000000
294580.000000
295478.000000
296351.000000
297177.000000
297999.000000
298842.000000
299707.000000
300589.000000
301450.000000
302281.000000
303140.000000
304060.000000
304994.000000
305897.000000
306742.000000
307614.000000
308510.000000
309408.000000
310280.000000
311116.000000
311955.000000
312831.000000
313758.000000
314708.000000
315640.000000
316542.000000
317398.000000
318253.000000
319139.000000
320030.000000
320918.000000
321749.000000
322553.000000
323380.000000
324227.000000
325047.000000
325841.000000
326585.000000
327338.000000
328097.000000
328870.000000
329679.000000
330542.000000
331405.000000
332217.000000
333001.000000
333811.000000
334647.000000
335502.000000
336334.000000
337140.000000
337966.000000
338818.000000
339695.000000
340573.000000
341410.000000
342233.000000
343041.000000
343847.000000
344591.000000
345350.000000
346141.000000
346932.000000
347701.000000
348470.000000
349276.000000
350146.000000
351038.000000
351915.000000
352718.000000
353488.000000
354278.000000
355088.000000
355923.000000
356741.000000
357567.000000
358463.000000
359382.000000
360312.000000
361221.000000
362071.000000
362912.000000
363788.000000
364686.000000
365580.000000
366451.000000
367332.000000
368241.000000
369150.000000
370016.000000
370842.000000
371668.000000
372532.000000
373446.000000
374392.000000
375304.000000
376185.000000
377134.000000
378124.000000
379100.000000
380024.000000
380894.000000
381782.000000
382684.000000
383616.000000
384538.000000
385435.000000
386360.000000
387297.000000
388199.000000
389059.000000
389953.000000
390868.000000
391782.000000
392668.000000
393518.000000
394418.000000
395376.000000
396331.000000
397254.000000
398202.000000
399169.000000
400114.000000
401021.000000
401942.000000
402875.000000
403784.000000
404649.000000
405515.000000
406437.000000
407401.000000
408381.000000
409350.000000
410277.000000
411206.000000
412160.000000
413119.000000
414075.000000
414994.000000
415868.000000
416726.000000
417621.000000
418563.000000
419519.000000
420447.000000
421319.000000
422192.000000
423121.000000
424023.000000
424848.000000
425631.000000
426442.000000
427226.000000
427970.000000
428743.000000
429525.000000
430342.000000
431277.000000
432195.000000
433087.000000
433957.000000
434850.000000
435747.000000
436632.000000
437495.000000
438357.000000
439258.000000
440201.000000
441150.000000
442097.000000
443023.000000
443912.000000
444843.000000
445821.000000
446801.000000
447764.000000
448702.000000
449610.000000
450529.000000
451475.000000
452421.000000
453322.000000
454212.000000
455116.000000
456022.000000
456941.000000
457827.000000
458638.000000
459455.000000
460323.000000
461247.000000
462156.000000
463016.000000
463845.000000
464705.000000
465592.000000
466504.000000
467408.000000
468255.000000
469066.000000
469916.000000
470807.000000
471713.000000
472572.000000
473406.000000
474284.000000
475155.000000
475951.000000
476711.000000
477479.000000
478287.000000
479137.000000
480002.000000
480850.000000
481688.000000
482546.000000
483406.000000
484252.000000
485065.000000
485881.000000
486722.000000
487589.000000
488480.000000
489341.000000
490162.000000
491023.000000
491926.000000
492849.000000
493767.000000
494657.000000
495488.000000
496304.000000
497143.000000
497987.000000
498814.000000
499678.000000
500565.000000
501390.000000
502178.000000
503020.000000
503877.000000
504716.000000
505556.000000
506435.000000
507329.000000
508198.000000
509036.000000
509831.000000
510635.000000
511514.000000
512488.000000
513436.000000
514326.000000
515161.000000
515991.000000
516870.000000
517736.000000
518545.000000
519359.000000
520178.000000
520951.000000
521761.000000
522566.000000
523350.000000
524144.000000
524905.000000
525641.000000
526400.000000
527174.000000
527970.000000
528771.000000
529622.000000
530472.000000
531334.000000
532192.000000
533013.000000
533825.000000
534667.000000
535537.000000
536421.000000
537292.000000
538197.000000
539078.000000
539935.000000
540759.000000
541618.000000
542518.000000
543428.000000
544299.000000
545117.000000
545951.000000
546833.000000
547749.000000
548641.000000
549491.000000
550302.000000
551119.000000
551976.000000
552902.000000
553839.000000
554755.000000
555683.000000
556614.000000
557537.000000
558467.000000
559373.000000
560234.000000
561074.000000
561991.000000
562901.000000
563734.000000
564538.000000
565341.000000
566170.000000
567059.000000
567967.000000
568845.000000
569662.000000
570466.000000
571304.000000
572171.000000
573067.000000
573974.000000
574864.000000
575665.000000
576438.000000
577255.000000
578125.000000
579033.000000
579932.000000
580797.000000
581687.000000
582619.000000
583553.000000
584517.000000
585472.000000
586383.000000
587283.000000
588202.000000
589129.000000
590057.000000
590926.000000
591773.000000
592659.000000
593600.000000
594536.000000
595424.000000
596262.000000
597097.000000
597970.000000
598894.000000
599838.000000
600777.000000
601675.000000
602495.000000
603265.000000
604041.000000
604856.000000
605755.000000
606728.000000
607720.000000
608709.000000
609614.000000
610425.000000
611248.000000
612120.000000
612994.000000
613865.000000
614759.000000
615663.000000
616565.000000
617433.000000
618254.000000
619112.000000
619997.000000
620892.000000
621776.000000
622633.000000
623458.000000
624304.000000
625185.000000
626069.000000
626904.000000
627696.000000
628511.000000
629365.000000
630241.000000
631117.000000
631978.000000
632815.000000
633623.000000
634444.000000
635292.000000
636154.000000
637020.000000
637852.000000
638635.000000
639417.000000
640225.000000
641054.000000
641831.000000
642571.000000
643328.000000
644114.000000
644885.000000
645663.000000
646469.000000
647312.000000
648165.000000
649008.000000
649826.000000
650602.000000
651353.000000
652115.000000
652935.000000
653842.000000
654783.000000
655676.000000
656522.000000
657352.000000
658228.000000
659162.000000
660108.000000
661013.000000
661855.000000
662692.000000
663574.000000
664480.000000
665371.000000
666230.000000
667063.000000
667926.000000
668820.000000
669733.000000
670637.000000
671519.000000
672363.000000
673209.000000
674083.000000
674967.000000
675851.000000
676699.000000
677524.000000
678381.000000
679291.000000
680210.000000
681122.000000
681991.000000
682854.000000
683734.000000
684662.000000
685592.000000
686486.000000
687327.000000
688207.000000
689140.000000
690087.000000
690996.000000
691836.000000
692636.000000
693459.000000
694343.000000
695269.000000
696241.000000
697210.000000
698132.000000
699058.000000
700012.000000
700938.000000
701814.000000
702657.000000
703496.000000
704396.000000
705341.000000
706318.000000
707305.000000
708268.000000
709179.000000
710009.000000
710822.000000
711638.000000
712526.000000
713493.000000
714492.000000
715501.000000
716476.000000
717364.000000
718193.000000
719033.000000
719927.000000
720863.000000
721766.000000
722606.000000
723443.000000
724326.000000
725199.000000
726020.000000
726876.000000
727757.000000
728658.000000
729553.000000
730412.000000
731217.000000
732019.000000
732833.000000
733618.000000
734368.000000
735166.000000
736023.000000
736861.000000
737685.000000
738552.000000
739453.000000
740391.000000
741333.000000
742240.000000
743095.000000
743919.000000
744764.000000
745655.000000
746590.000000
747531.000000
748447.000000
749326.000000
750230.000000
751152.000000
752063.000000
752936.000000
753749.000000
754584.000000
755455.000000
756391.000000
757294.000000
758172.000000
759132.000000
760130.000000
761116.000000
762046.000000
762923.000000
763812.000000
764712.000000
765612.000000
766469.000000
767318.000000
768194.000000
769085.000000
769963.000000
770813.000000
771681.000000
772557.000000
773430.000000
774314.000000
775196.000000
776043.000000
776867.000000
777734.000000
778675.000000
779642.000000
780584.000000
781469.000000
782362.000000
783308.000000
784254.000000
785164.000000
786021.000000
786841.000000
787689.000000
788594.000000
789531.000000
790454.000000
791325.000000
792175.000000
793067.000000
794011.000000
794969.000000
795941.000000
796884.000000
797759.000000
798623.000000
799526.000000
800496.000000
801480.000000
802446.000000
803355.000000
804233.000000
805134.000000
806045.000000
806897.000000
807716.000000
808584.000000
809516.000000
810455.000000
811359.000000
812225.000000
813128.000000
814056.000000
814973.000000
815847.000000
816685.000000
817541.000000
818449.000000
819388.000000
820329.000000
821240.000000
822093.000000
822946.000000
823842.000000
824765.000000
825702.000000
826651.000000
827590.000000
828493.000000
829413.000000
830375.000000
831357.000000
832344.000000
833359.000000
834363.000000
835332.000000
836278.000000
837239.000000
838227.000000
839227.000000
840181.000000
841087.000000
841962.000000
842890.000000
843936.000000
844988.000000
845980.000000
846902.000000
847853.000000
848843.000000
849788.000000
850665.000000
851515.000000
852435.000000
853391.000000
854334.000000
855223.000000
856089.000000
857012.000000
857956.000000
858830.000000
859634.000000
860453.000000
861318.000000
862194.000000
863042.000000
863852.000000
864639.000000
865422.000000
866271.000000
867111.000000
867939.000000
868806.000000
869713.000000
870625.000000
871511.000000
872351.000000
873187.000000
874039.000000
874920.000000
875792.000000
876639.000000
877526.000000
878455.000000
879380.000000
880264.000000
881090.000000
881940.000000
882830.000000
883727.000000
884577.000000
885410.000000
886277.000000
887179.000000
888097.000000
889025.000000
889925.000000
890767.000000
891604.000000
892487.000000
893379.000000
894202.000000
895013.000000
895852.000000
896724.000000
897628.000000
898543.000000
899419.000000
