ECG (ms)
493.000000
1297.000000
2195.000000
3177.000000
4106.000000
5054.000000
6081.000000
7087.000000
8012.000000
9017.000000
10052.000000
10918.000000
11777.000000
12821.000000
13834.000000
14727.000000
15618.000000
16546.000000
17405.000000
18284.000000
19338.000000
20373.000000
21277.000000
22208.000000
23173.000000
24050.000000
24885.000000
25762.000000
26855.000000
27867.000000
28913.000000
29960.000000
30878.000000
31817.000000
32779.000000
33751.000000
34645.000000
35577.000000
36694.000000
37746.000000
38646.000000
39475.000000
40362.000000
41486.000000
42518.000000
43461.000000
44397.000000
45363.000000
46439.000000
47427.000000
48341.000000
49231.000000
50170.000000
51139.000000
52012.000000
52905.000000
53943.000000
54976.000000
55933.000000
57015.000000
58054.000000
58950.000000
59789.000000
60789.000000
61878.000000
62907.000000
63786.000000
64640.000000
65536.000000
66626.000000
67557.000000
68405.000000
69416.000000
70557.000000
71653.000000
72627.000000
73597.000000
74677.000000
75709.000000
76665.000000
77610.000000
78578.000000
79562.000000
80498.000000
81354.000000
82258.000000
83379.000000
84417.000000
85428.000000
86443.000000
87480.000000
88465.000000
89437.000000
90415.000000
91398.000000
92312.000000
93148.000000
94036.000000
95108.000000
96089.000000
97099.000000
98120.000000
99026.000000
99913.000000
100916.000000
101914.000000
102821.000000
103815.000000
104900.000000
105863.000000
106767.000000
107704.000000
108691.000000
109606.000000
110517.000000
111550.000000
112575.000000
113499.000000
114500.000000
115605.000000
116676.000000
117608.000000
118555.000000
119560.000000
120496.000000
121394.000000
122399.000000
123468.000000
124403.000000
125237.000000
126075.000000
127136.000000
128191.000000
129096.000000
129958.000000
130946.000000
132033.000000
132987.000000
133826.000000
134741.000000
135859.000000
136856.000000
137724.000000
138566.000000
139525.000000
140537.000000
141408.000000
142263.000000
143281.000000
144262.000000
145135.000000
146027.000000
147063.000000
148061.000000
148949.000000
149864.000000
150918.000000
151925.000000
152835.000000
153785.000000
154783.000000
155802.000000
156821.000000
157846.000000
158837.000000
159784.000000
160704.000000
161604.000000
162501.000000
163446.000000
164403.000000
165305.000000
166176.000000
167076.000000
167992.000000
168898.000000
169845.000000
170870.000000
171872.000000
172815.000000
173772.000000
174735.000000
175665.000000
176550.000000
177459.000000
178337.000000
179142.000000
179952.000000
180896.000000
181923.000000
182878.000000
183881.000000
184959.000000
185988.000000
186878.000000
187776.000000
188690.000000
189535.000000
190354.000000
191204.000000
192128.000000
193048.000000
194003.000000
195065.000000
196092.000000
197022.000000
197992.000000
198982.000000
199898.000000
200805.000000
201793.000000
202752.000000
203643.000000
204536.000000
205508.000000
206420.000000
207288.000000
208278.000000
209258.000000
210145.000000
211051.000000
212011.000000
212953.000000
213824.000000
214739.000000
215659.000000
216517.000000
217470.000000
218583.000000
219649.000000
220558.000000
221563.000000
222663.000000
223674.000000
224596.000000
225522.000000
226465.000000
227395.000000
228281.000000
229251.000000
230321.000000
231274.000000
232173.000000
233209.000000
234307.000000
235378.000000
236300.000000
237198.000000
238138.000000
239071.000000
239928.000000
240802.000000
241770.000000
242728.000000
243600.000000
244491.000000
245492.000000
246456.000000
247345.000000
248268.000000
249202.000000
250071.000000
250909.000000
251813.000000
252750.000000
253599.000000
254468.000000
255455.000000
256392.000000
257250.000000
258215.000000
259302.000000
260342.000000
261293.000000
262275.000000
263276.000000
264239.000000
265101.000000
265939.000000
266838.000000
267824.000000
268720.000000
269580.000000
270536.000000
271449.000000
272320.000000
273272.000000
274278.000000
275168.000000
276039.000000
276962.000000
277918.000000
278797.000000
279710.000000
280697.000000
281670.000000
282552.000000
283433.000000
284362.000000
285307.000000
286178.000000
287041.000000
287931.000000
288824.000000
289671.000000
290561.000000
291622.000000
292672.000000
293606.000000
294532.000000
295511.000000
296427.000000
297265.000000
298140.000000
299097.000000
300044.000000
300896.000000
301747.000000
302649.000000
303527.000000
304366.000000
305339.000000
306474.000000
307505.000000
308500.000000
309545.000000
310559.000000
311529.000000
312556.000000
313577.000000
314510.000000
315483.000000
316451.000000
317359.000000
318288.000000
319253.000000
320187.000000
321127.000000
322141.000000
323172.000000
324140.000000
325169.000000
326210.000000
327177.000000
328106.000000
329037.000000
329981.000000
330848.000000
331716.000000
332700.000000
333689.000000
334575.000000
335470.000000
336571.000000
337613.000000
338507.000000
339395.000000
340295.000000
341247.000000
342182.000000
343060.000000
344005.000000
345001.000000
345929.000000
346878.000000
347842.000000
348755.000000
349618.000000
350482.000000
351383.000000
352292.000000
353114.000000
353949.000000
354720.000000
355453.000000
356203.000000
357018.000000
357838.000000
358759.000000
359817.000000
360818.000000
361719.000000
362659.000000
363622.000000
364523.000000
365349.000000
366185.000000
367050.000000
367882.000000
368694.000000
369549.000000
370493.000000
371414.000000
372266.000000
373139.000000
374034.000000
374887.000000
375718.000000
376661.000000
377735.000000
378681.000000
379664.000000
380703.000000
381721.000000
382607.000000
383496.000000
384430.000000
385360.000000
386195.000000
387056.000000
388084.000000
389151.000000
390050.000000
390924.000000
391808.000000
392736.000000
393598.000000
394462.000000
395470.000000
396488.000000
397440.000000
398350.000000
399284.000000
400173.000000
400984.000000
401792.000000
402599.000000
403398.000000
404154.000000
404878.000000
405633.000000
406802.000000
407864.000000
408896.000000
409868.000000
410872.000000
411894.000000
412878.000000
413830.000000
414815.000000
415804.000000
416790.000000
417712.000000
418661.000000
419627.000000
420604.000000
421513.000000
422437.000000
423352.000000
424202.000000
424959.000000
425687.000000
426410.000000
427148.000000
427991.000000
429075.000000
430027.000000
430985.000000
431993.000000
432961.000000
433890.000000
434843.000000
435754.000000
436594.000000
437430.000000
438308.000000
439284.000000
440249.000000
441125.000000
442026.000000
442974.000000
443972.000000
444930.000000
445807.000000
446722.000000
447711.000000
448723.000000
449631.000000
450538.000000
451541.000000
452481.000000
453349.000000
454331.000000
455349.000000
456258.000000
457141.000000
458103.000000
459045.000000
459885.000000
460793.000000
461803.000000
462746.000000
463660.000000
464757.000000
465843.000000
466844.000000
467821.000000
468791.000000
469796.000000
470679.000000
471534.000000
472428.000000
473357.000000
474240.000000
475185.000000
476231.000000
477193.000000
478113.000000
479116.000000
480084.000000
480938.000000
481903.000000
482950.000000
483891.000000
484801.000000
485732.000000
486661.000000
487518.000000
488451.000000
489498.000000
490418.000000
491380.000000
492360.000000
493292.000000
494166.000000
495088.000000
495983.000000
496784.000000
497639.000000
498650.000000
499675.000000
500618.000000
501597.000000
502608.000000
503563.000000
504504.000000
505465.000000
506392.000000
507269.000000
508165.000000
509097.000000
510028.000000
510908.000000
511830.000000
512768.000000
513676.000000
514573.000000
515502.000000
516443.000000
517328.000000
518229.000000
519125.000000
519998.000000
520832.000000
521721.000000
522639.000000
523522.000000
524387.000000
525330.000000
526307.000000
527234.000000
528209.000000
529200.000000
530130.000000
531048.000000
531985.000000
532928.000000
533815.000000
534714.000000
535630.000000
536510.000000
537376.000000
538273.000000
539173.000000
539996.000000
540795.000000
541673.000000
542682.000000
543690.000000
544611.000000
545540.000000
546441.000000
547301.000000
548134.000000
549019.000000
549927.000000
550834.000000
551692.000000
552565.000000
553511.000000
554441.000000
555287.000000
556156.000000
557047.000000
557934.000000
558797.000000
559646.000000
560528.000000
561438.000000
562273.000000
563106.000000
564003.000000
564938.000000
565850.000000
566681.000000
567539.000000
568409.000000
569230.000000
570020.000000
570854.000000
571751.000000
572603.000000
573517.000000
574483.000000
575400.000000
576251.000000
577165.000000
578095.000000
578937.000000
579856.000000
580804.000000
581662.000000
582503.000000
583374.000000
584264.000000
585106.000000
585944.000000
586900.000000
587916.000000
588848.000000
589873.000000
590909.000000
591934.000000
592878.000000
593840.000000
594832.000000
595733.000000
596621.000000
597657.000000
598734.000000
599766.000000
600703.000000
601700.000000
602753.000000
603784.000000
604737.000000
605716.000000
606748.000000
607725.000000
608640.000000
609591.000000
610574.000000
611549.000000
612463.000000
613397.000000
614345.000000
615260.000000
616150.000000
617082.000000
618042.000000
618965.000000
619903.000000
620882.000000
621852.000000
622768.000000
623712.000000
624667.000000
625596.000000
626486.000000
627422.000000
628414.000000
629447.000000
630408.000000
631392.000000
632408.000000
633380.000000
634302.000000
635244.000000
636177.000000
637069.000000
637919.000000
638846.000000
639822.000000
640749.000000
641679.000000
642766.000000
643859.000000
644891.000000
645855.000000
646779.000000
647730.000000
648650.000000
649518.000000
650427.000000
651451.000000
652533.000000
653537.000000
654553.000000
655566.000000
656513.000000
657384.000000
658281.000000
659267.000000
660189.000000
661085.000000
662118.000000
663163.000000
664091.000000
665003.000000
665927.000000
666839.000000
667678.000000
668581.000000
669513.000000
670409.000000
671301.000000
672281.000000
673294.000000
674212.000000
675180.000000
676233.000000
677220.000000
678194.000000
679248.000000
680258.000000
681168.000000
682085.000000
683006.000000
683889.000000
684727.000000
685709.000000
686801.000000
687779.000000
688764.000000
689779.000000
690733.000000
691633.000000
692454.000000
693208.000000
693925.000000
694647.000000
695430.000000
696537.000000
697573.000000
698525.000000
699439.000000
700329.000000
701202.000000
702041.000000
702930.000000
703851.000000
704747.000000
705593.000000
706478.000000
707377.000000
708257.000000
709078.000000
709894.000000
710647.000000
711372.000000
712078.000000
712798.000000
713631.000000
714778.000000
715843.000000
716911.000000
717960.000000
718990.000000
719995.000000
720968.000000
721912.000000
722796.000000
723627.000000
724436.000000
725221.000000
726008.000000
726791.000000
727546.000000
728327.000000
729208.000000
730045.000000
730817.000000
731579.000000
732359.000000
733138.000000
733915.000000
734709.000000
735653.000000
736682.000000
737608.000000
738519.000000
739466.000000
740405.000000
741263.000000
742175.000000
743141.000000
744148.000000
745088.000000
745926.000000
746801.000000
747687.000000
748632.000000
749498.000000
750316.000000
751179.000000
752091.000000
753032.000000
753934.000000
754877.000000
755937.000000
756973.000000
757880.000000
758790.000000
759743.000000
760700.000000
761588.000000
762453.000000
763353.000000
764282.000000
765178.000000
766100.000000
767089.000000
768036.000000
768881.000000
769733.000000
770622.000000
771576.000000
772446.000000
773377.000000
774320.000000
775175.000000
776012.000000
776903.000000
777780.000000
778600.000000
779503.000000
780500.000000
781406.000000
782311.000000
783297.000000
784261.000000
785131.000000
785991.000000
786840.000000
787652.000000
788465.000000
789330.000000
790216.000000
791069.000000
791957.000000
792871.000000
793824.000000
794698.000000
795559.000000
796458.000000
797358.000000
798223.000000
799065.000000
799963.000000
800931.000000
801905.000000
802802.000000
803699.000000
804613.000000
805536.000000
806408.000000
807310.000000
808302.000000
809281.000000
810152.000000
811032.000000
811966.000000
812903.000000
813779.000000
814738.000000
815750.000000
816760.000000
817682.000000
818626.000000
819631.000000
820620.000000
821506.000000
822403.000000
823306.000000
824145.000000
824942.000000
825832.000000
826843.000000
827668.000000
828503.000000
829280.000000
830019.000000
830816.000000
831692.000000
832503.000000
833452.000000
834571.000000
835600.000000
836590.000000
837621.000000
838662.000000
839674.000000
840613.000000
841532.000000
842428.000000
843299.000000
844157.000000
845095.000000
846099.000000
847130.000000
848019.000000
848897.000000
849829.000000
850850.000000
851840.000000
852740.000000
853708.000000
854688.000000
855606.000000
856518.000000
857475.000000
858446.000000
859362.000000
860273.000000
861196.000000
862107.000000
862971.000000
863891.000000
864836.000000
865724.000000
866646.000000
867605.000000
868562.000000
869465.000000
870408.000000
871390.000000
872361.000000
873281.000000
874239.000000
875230.000000
876237.000000
877171.000000
878129.000000
879084.000000
879994.000000
880857.000000
881735.000000
882631.000000
883505.000000
884341.000000
885227.000000
886164.000000
887095.000000
887982.000000
888919.000000
889848.000000
890724.000000
891614.000000
892529.000000
893463.000000
894367.000000
895250.000000
896126.000000
896963.000000
897827.000000
898723.000000
899633.000000
900497.000000
901413.000000
902394.000000
903379.000000
904314.000000
905304.000000
906293.000000
907267.000000
908192.000000
909141.000000
910093.000000
911045.000000
911962.000000
912903.000000
913857.000000
914830.000000
915743.000000
916676.000000
917627.000000
918580.000000
919482.000000
920413.000000
921356.000000
922309.000000
923234.000000
924203.000000
925157.000000
926044.000000
926940.000000
927841.000000
928762.000000
929655.000000
930593.000000
931564.000000
932547.000000
933534.000000
934444.000000
935378.000000
936361.000000
937357.000000
938303.000000
939270.000000
940256.000000
941257.000000
942203.000000
943153.000000
944104.000000
945067.000000
946018.000000
946923.000000
947839.000000
948785.000000
949776.000000
950706.000000
951685.000000
952666.000000
953578.000000
954460.000000
955378.000000
956288.000000
957134.000000
957969.000000
958839.000000
959732.000000
960604.000000
961517.000000
962471.000000
963424.000000
964340.000000
965313.000000
966326.000000
967320.000000
968283.000000
969284.000000
970282.000000
971249.000000
972165.000000
973135.000000
974139.000000
975134.000000
976093.000000
977086.000000
978097.000000
979077.000000
979985.000000
980908.000000
981856.000000
982791.000000
983699.000000
984662.000000
985676.000000
986652.000000
987565.000000
988511.000000
989449.000000
990385.000000
991270.000000
992196.000000
993151.000000
994067.000000
994952.000000
995884.000000
996825.000000
997699.000000
998597.000000
999534.000000
1000440.000000
1001321.000000
1002228.000000
1003165.000000
1004094.000000
1005035.000000
1006017.000000
1006984.000000
1007907.000000
1008873.000000
1009834.000000
1010724.000000
1011613.000000
1012487.000000
1013332.000000
1014127.000000
1014988.000000
1015949.000000
1016902.000000
1017780.000000
1018718.000000
1019699.000000
1020583.000000
1021438.000000
1022343.000000
1023336.000000
1024243.000000
1025155.000000
1026103.000000
1027110.000000
1028039.000000
1028985.000000
1029973.000000
1030982.000000
1031920.000000
1032810.000000
1033723.000000
1034720.000000
1035726.000000
1036629.000000
1037492.000000
1038467.000000
1039446.000000
1040303.000000
1041284.000000
1042345.000000
1043266.000000
1044226.000000
1045194.000000
1046104.000000
1047075.000000
1048104.000000
1049111.000000
1050053.000000
1051023.000000
1052004.000000
1052925.000000
1053828.000000
1054754.000000
1055691.000000
1056594.000000
1057518.000000
1058448.000000
1059357.000000
1060207.000000
1061075.000000
1061941.000000
1062796.000000
1063628.000000
1064511.000000
1065440.000000
1066325.000000
1067194.000000
1068159.000000
1069141.000000
1070056.000000
1070983.000000
1071943.000000
1072903.000000
1073816.000000
1074754.000000
1075701.000000
1076603.000000
1077510.000000
1078436.000000
1079360.000000
1080217.000000
1081066.000000
1081936.000000
1082839.000000
1083699.000000
1084564.000000
1085454.000000
1086343.000000
1087199.000000
1088078.000000
1088970.000000
1089834.000000
1090689.000000
1091594.000000
1092504.000000
1093410.000000
1094286.000000
1095226.000000
1096182.000000
1097123.000000
1098012.000000
1098929.000000
1099851.000000
1100759.000000
1101633.000000
1102497.000000
1103380.000000
1104305.000000
1105184.000000
1106046.000000
1106912.000000
1107789.000000
1108661.000000
1109513.000000
1110395.000000
1111278.000000
1112143.000000
1112989.000000
1113849.000000
1114684.000000
1115438.000000
1116158.000000
1116850.000000
1117530.000000
1118200.000000
1118895.000000
1119668.000000
1120422.000000
1121154.000000
1122103.000000
1123175.000000
1124141.000000
1125172.000000
1126220.000000
1127277.000000
1128251.000000
1129203.000000
1130194.000000
1131153.000000
1132050.000000
1132876.000000
1133642.000000
1134381.000000
1135087.000000
1135781.000000
1136465.000000
1137137.000000
1137802.000000
1138512.000000
1139688.000000
1140814.000000
1141904.000000
1142984.000000
1144061.000000
1145103.000000
1146170.000000
1147225.000000
1148283.000000
1149314.000000
1150280.000000
1151192.000000
1152055.000000
1152893.000000
1153728.000000
1154539.000000
1155333.000000
1156337.000000
1157430.000000
1158414.000000
1159299.000000
1160225.000000
1161214.000000
1162128.000000
1162982.000000
1163860.000000
1164771.000000
1165653.000000
1166498.000000
1167363.000000
1168292.000000
1169211.000000
1170088.000000
1170994.000000
1171943.000000
1172879.000000
1173761.000000
1174647.000000
1175549.000000
1176459.000000
1177334.000000
1178243.000000
1179160.000000
1180070.000000
1180934.000000
1181830.000000
1182739.000000
1183659.000000
1184544.000000
1185477.000000
1186418.000000
1187371.000000
1188283.000000
1189224.000000
1190187.000000
1191180.000000
1192145.000000
1193092.000000
1194056.000000
1195016.000000
1195935.000000
1196808.000000
1197735.000000
1198741.000000
1199744.000000
1200690.000000
1201744.000000
