ECG (ms)
257.000000
1136.000000
1992.000000
2793.000000
3619.000000
4502.000000
5336.000000
6169.000000
7040.000000
7888.000000
8705.000000
9531.000000
10366.000000
11168.000000
11995.000000
12874.000000
13662.000000
14440.000000
15248.000000
16032.000000
16838.000000
17740.000000
18630.000000
19578.000000
20529.000000
21393.000000
22283.000000
23173.000000
24033.000000
24813.000000
25587.000000
26402.000000
27270.000000
28102.000000
28903.000000
29690.000000
30456.000000
31257.000000
32097.000000
32944.000000
33718.000000
34453.000000
35198.000000
35927.000000
36825.000000
37794.000000
38724.000000
39553.000000
40387.000000
41232.000000
42058.000000
42849.000000
43662.000000
44553.000000
45449.000000
46301.000000
47176.000000
48084.000000
48983.000000
49811.000000
50648.000000
51509.000000
52405.000000
53252.000000
54131.000000
55045.000000
55962.000000
56791.000000
57628.000000
58474.000000
59261.000000
60051.000000
60917.000000
61909.000000
62834.000000
63837.000000
64831.000000
65699.000000
66585.000000
67492.000000
68402.000000
69205.000000
70005.000000
70858.000000
71790.000000
72650.000000
73580.000000
74538.000000
75412.000000
76310.000000
77257.000000
78120.000000
78954.000000
79849.000000
80794.000000
81665.000000
82532.000000
83416.000000
84232.000000
85071.000000
85992.000000
86918.000000
87797.000000
88745.000000
89677.000000
90542.000000
91454.000000
92359.000000
93158.000000
93962.000000
94772.000000
95557.000000
96327.000000
97123.000000
98030.000000
98895.000000
99748.000000
100634.000000
101494.000000
102269.000000
103043.000000
103827.000000
104663.000000
105464.000000
106287.000000
107144.000000
107974.000000
108747.000000
109444.000000
110121.000000
110807.000000
111543.000000
112358.000000
113175.000000
113959.000000
114813.000000
115742.000000
116637.000000
117451.000000
118308.000000
119199.000000
120109.000000
120961.000000
121865.000000
122822.000000
123781.000000
124647.000000
125536.000000
126436.000000
127321.000000
128134.000000
128944.000000
129785.000000
130698.000000
131582.000000
132435.000000
133348.000000
134309.000000
135217.000000
136072.000000
136964.000000
137868.000000
138745.000000
139669.000000
140636.000000
141555.000000
142376.000000
143212.000000
144110.000000
145028.000000
145858.000000
146669.000000
147510.000000
148384.000000
149219.000000
150002.000000
150795.000000
151677.000000
152637.000000
153509.000000
154385.000000
155318.000000
156264.000000
157123.000000
157970.000000
158842.000000
159749.000000
160634.000000
161446.000000
162258.000000
163095.000000
163956.000000
164739.000000
165512.000000
166346.000000
167225.000000
168026.000000
168808.000000
169641.000000
170519.000000
171391.000000
172183.000000
172941.000000
173740.000000
174582.000000
175420.000000
176205.000000
177013.000000
177867.000000
178723.000000
179495.000000
180252.000000
181036.000000
181833.000000
182630.000000
183381.000000
184137.000000
184940.000000
185814.000000
186627.000000
187409.000000
188207.000000
189022.000000
189782.000000
190526.000000
191290.000000
192109.000000
192961.000000
193743.000000
194524.000000
195337.000000
196174.000000
196945.000000
197726.000000
198521.000000
199335.000000
200106.000000
200890.000000
201726.000000
202581.000000
203372.000000
204153.000000
204949.000000
205782.000000
206613.000000
207376.000000
208104.000000
208857.000000
209664.000000
210522.000000
211351.000000
212270.000000
213248.000000
214116.000000
214966.000000
215860.000000
216757.000000
217576.000000
218405.000000
219282.000000
220178.000000
221008.000000
221870.000000
222794.000000
223733.000000
224582.000000
225434.000000
226323.000000
227225.000000
228061.000000
228941.000000
229863.000000
230792.000000
231664.000000
232590.000000
233543.000000
234464.000000
235303.000000
236155.000000
237040.000000
237944.000000
238782.000000
239601.000000
240479.000000
241434.000000
242351.000000
243223.000000
244124.000000
245053.000000
245891.000000
246705.000000
247527.000000
248402.000000
249247.000000
250073.000000
250995.000000
251964.000000
252918.000000
253765.000000
254578.000000
255390.000000
256228.000000
257035.000000
257810.000000
258624.000000
259530.000000
260433.000000
261238.000000
262003.000000
262775.000000
263566.000000
264326.000000
265107.000000
266001.000000
266922.000000
267760.000000
268576.000000
269393.000000
270164.000000
270929.000000
271757.000000
272548.000000
273308.000000
274030.000000
274740.000000
275520.000000
276279.000000
277054.000000
277860.000000
278666.000000
279433.000000
280195.000000
280967.000000
281749.000000
282491.000000
283236.000000
284010.000000
284828.000000
285659.000000
286439.000000
287237.000000
288079.000000
288923.000000
289697.000000
290472.000000
291265.000000
292118.000000
292998.000000
293822.000000
294657.000000
295578.000000
296558.000000
297515.000000
298351.000000
299141.000000
299941.000000
300820.000000
301711.000000
302607.000000
303612.000000
304592.000000
305470.000000
306418.000000
307369.000000
308248.000000
309092.000000
309951.000000
310830.000000
311703.000000
312511.000000
313278.000000
314065.000000
314961.000000
315863.000000
316688.000000
317496.000000
318346.000000
319230.000000
320044.000000
320819.000000
321619.000000
322440.000000
323221.000000
323983.000000
324789.000000
325628.000000
326411.000000
327163.000000
327928.000000
328709.000000
329451.000000
330179.000000
330946.000000
331794.000000
332666.000000
333432.000000
334142.000000
334857.000000
335553.000000
336287.000000
337107.000000
337994.000000
338819.000000
339634.000000
340483.000000
341358.000000
342189.000000
342967.000000
343741.000000
344560.000000
345423.000000
346280.000000
347102.000000
347987.000000
348943.000000
349857.000000
350706.000000
351594.000000
352499.000000
353331.000000
354182.000000
355090.000000
355961.000000
356837.000000
357707.000000
358544.000000
359420.000000
360362.000000
361209.000000
362074.000000
362950.000000
363757.000000
364557.000000
365408.000000
366262.000000
367164.000000
368108.000000
368994.000000
369912.000000
370843.000000
371670.000000
372493.000000
373343.000000
374190.000000
374984.000000
375790.000000
376622.000000
377500.000000
378300.000000
379112.000000
379983.000000
380838.000000
381636.000000
382451.000000
383295.000000
384077.000000
384837.000000
385624.000000
386460.000000
387266.000000
388060.000000
388900.000000
389799.000000
390653.000000
391534.000000
392446.000000
393312.000000
394137.000000
394968.000000
395826.000000
396645.000000
397535.000000
398579.000000
399544.000000
400545.000000
401560.000000
402457.000000
403384.000000
404345.000000
405224.000000
406051.000000
406936.000000
407863.000000
408722.000000
409531.000000
410349.000000
411148.000000
411863.000000
412600.000000
413350.000000
414107.000000
414919.000000
415788.000000
416619.000000
417428.000000
418268.000000
419130.000000
419926.000000
420717.000000
421526.000000
422374.000000
423190.000000
423991.000000
424886.000000
425822.000000
426769.000000
427612.000000
428400.000000
429214.000000
430071.000000
430967.000000
431784.000000
432668.000000
433653.000000
434603.000000
435430.000000
436261.000000
437111.000000
437949.000000
438761.000000
439646.000000
440630.000000
441542.000000
442480.000000
443436.000000
444360.000000
445221.000000
446020.000000
446840.000000
447701.000000
448592.000000
449432.000000
450298.000000
451187.000000
452048.000000
452856.000000
453690.000000
454567.000000
455388.000000
456219.000000
457107.000000
457988.000000
458781.000000
459572.000000
460383.000000
461182.000000
461927.000000
462694.000000
463495.000000
464348.000000
465141.000000
465942.000000
466776.000000
467652.000000
468438.000000
469230.000000
470035.000000
470830.000000
471573.000000
472351.000000
473181.000000
474014.000000
474803.000000
475680.000000
476628.000000
477569.000000
478406.000000
479230.000000
480064.000000
480898.000000
481696.000000
482494.000000
483374.000000
484333.000000
485190.000000
486088.000000
486999.000000
487841.000000
488685.000000
489570.000000
490436.000000
491223.000000
492018.000000
492846.000000
493668.000000
494443.000000
495293.000000
496272.000000
497206.000000
498072.000000
498978.000000
499885.000000
500690.000000
501483.000000
502287.000000
503110.000000
503888.000000
504739.000000
505769.000000
506712.000000
507632.000000
508587.000000
509495.000000
510308.000000
511132.000000
511982.000000
512805.000000
513620.000000
514482.000000
515398.000000
516223.000000
517038.000000
517853.000000
518640.000000
519381.000000
520136.000000
520956.000000
521826.000000
522647.000000
523485.000000
524388.000000
525281.000000
526080.000000
526857.000000
527649.000000
528492.000000
529358.000000
530166.000000
530918.000000
531680.000000
532534.000000
533500.000000
534384.000000
535290.000000
536278.000000
537242.000000
538081.000000
538905.000000
539747.000000
540628.000000
541453.000000
542295.000000
543241.000000
544202.000000
545093.000000
546043.000000
546996.000000
547843.000000
548709.000000
549610.000000
550489.000000
551290.000000
552113.000000
552979.000000
553881.000000
554726.000000
555608.000000
556523.000000
557367.000000
558185.000000
559023.000000
559900.000000
560726.000000
561529.000000
562354.000000
563212.000000
564027.000000
564869.000000
565785.000000
566749.000000
567641.000000
568576.000000
569512.000000
570354.000000
571161.000000
571977.000000
572803.000000
573594.000000
574391.000000
575247.000000
576192.000000
577053.000000
577933.000000
578848.000000
579739.000000
580534.000000
581346.000000
582189.000000
583049.000000
583849.000000
584613.000000
585402.000000
586288.000000
587205.000000
588049.000000
588948.000000
589890.000000
590813.000000
591631.000000
592460.000000
593297.000000
594084.000000
594882.000000
595794.000000
596809.000000
597713.000000
598667.000000
599640.000000
600557.000000
601407.000000
602291.000000
603173.000000
603970.000000
604748.000000
605540.000000
606360.000000
607182.000000
608039.000000
609056.000000
610050.000000
610919.000000
611842.000000
612754.000000
613562.000000
614359.000000
615190.000000
616010.000000
616796.000000
617617.000000
618537.000000
619432.000000
620318.000000
621226.000000
622130.000000
622928.000000
623703.000000
624509.000000
625376.000000
626219.000000
627109.000000
628081.000000
629040.000000
629884.000000
630735.000000
631609.000000
632437.000000
633215.000000
633994.000000
634789.000000
635572.000000
636347.000000
637211.000000
638157.000000
639021.000000
639907.000000
640831.000000
641753.000000
642582.000000
643417.000000
644292.000000
645191.000000
646010.000000
646829.000000
647653.000000
648427.000000
649129.000000
649814.000000
650523.000000
651297.000000
652158.000000
653067.000000
653888.000000
654704.000000
655520.000000
656332.000000
657084.000000
657845.000000
658642.000000
659471.000000
660321.000000
661120.000000
662040.000000
662974.000000
663849.000000
664649.000000
665443.000000
666234.000000
666979.000000
667724.000000
668530.000000
669414.000000
670256.000000
671178.000000
672117.000000
672957.000000
673781.000000
674618.000000
675435.000000
676223.000000
677039.000000
677885.000000
678690.000000
679510.000000
680397.000000
681325.000000
682166.000000
683003.000000
683870.000000
684754.000000
685572.000000
686399.000000
687228.000000
688061.000000
688819.000000
689546.000000
690314.000000
691170.000000
692019.000000
692908.000000
693876.000000
694786.000000
695614.000000
696443.000000
697249.000000
698001.000000
698731.000000
699511.000000
700348.000000
701203.000000
702038.000000
702902.000000
703773.000000
704578.000000
705366.000000
706150.000000
706920.000000
707651.000000
708375.000000
709124.000000
709926.000000
710690.000000
711449.000000
712242.000000
713063.000000
713833.000000
714590.000000
715354.000000
716149.000000
716903.000000
717640.000000
718421.000000
719247.000000
720041.000000
720812.000000
721622.000000
722463.000000
723268.000000
724049.000000
724841.000000
725638.000000
726395.000000
727170.000000
728001.000000
728848.000000
729635.000000
730445.000000
731267.000000
732072.000000
732827.000000
733608.000000
734432.000000
735217.000000
735964.000000
736762.000000
737652.000000
738540.000000
739398.000000
740278.000000
741166.000000
741955.000000
742738.000000
743534.000000
744343.000000
745148.000000
746082.000000
747105.000000
748054.000000
748951.000000
749881.000000
750804.000000
751617.000000
752409.000000
753222.000000
754043.000000
754820.000000
755628.000000
756497.000000
757398.000000
758211.000000
759007.000000
759832.000000
760675.000000
761475.000000
762246.000000
763065.000000
763939.000000
764753.000000
765533.000000
766332.000000
767153.000000
767963.000000
768762.000000
769503.000000
770236.000000
771006.000000
771848.000000
772707.000000
773498.000000
774316.000000
775175.000000
775976.000000
776758.000000
777576.000000
778419.000000
779193.000000
779963.000000
780759.000000
781571.000000
782341.000000
783122.000000
783959.000000
784850.000000
785655.000000
786443.000000
787255.000000
788062.000000
788817.000000
789599.000000
790394.000000
791174.000000
791957.000000
792802.000000
793686.000000
794487.000000
795287.000000
796076.000000
796811.000000
797530.000000
798224.000000
798890.000000
799587.000000
800327.000000
801066.000000
801823.000000
802627.000000
803493.000000
804281.000000
805070.000000
805875.000000
806683.000000
807460.000000
808250.000000
809067.000000
809916.000000
810744.000000
811514.000000
812308.000000
813126.000000
813954.000000
814728.000000
815541.000000
816395.000000
817266.000000
818053.000000
818855.000000
819681.000000
820493.000000
821271.000000
822123.000000
823110.000000
824022.000000
824947.000000
825902.000000
826798.000000
827613.000000
828458.000000
829355.000000
830189.000000
831021.000000
831886.000000
832740.000000
833609.000000
834494.000000
835315.000000
836179.000000
837086.000000
837960.000000
838778.000000
839629.000000
840525.000000
841367.000000
842193.000000
843051.000000
843916.000000
844745.000000
845637.000000
846575.000000
847501.000000
848353.000000
849209.000000
850100.000000
850996.000000
851814.000000
852650.000000
853536.000000
854456.000000
855289.000000
856142.000000
857060.000000
857995.000000
858844.000000
859719.000000
860626.000000
861504.000000
862352.000000
863269.000000
864203.000000
865035.000000
865854.000000
866704.000000
867619.000000
868494.000000
869424.000000
870429.000000
871409.000000
872322.000000
873295.000000
874286.000000
875168.000000
876047.000000
876942.000000
877833.000000
878654.000000
879507.000000
880416.000000
881335.000000
882248.000000
883220.000000
884182.000000
885036.000000
885913.000000
886800.000000
887661.000000
888466.000000
889276.000000
890113.000000
890979.000000
891825.000000
892762.000000
893704.000000
894560.000000
895430.000000
896319.000000
897156.000000
897960.000000
898770.000000
899585.000000
900356.000000
901128.000000
902019.000000
902998.000000
903869.000000
904771.000000
905683.000000
906586.000000
907421.000000
908226.000000
909026.000000
909819.000000
910589.000000
911406.000000
912357.000000
913256.000000
914150.000000
915116.000000
916049.000000
916862.000000
917666.000000
918485.000000
919258.000000
920012.000000
920802.000000
921690.000000
922577.000000
923490.000000
924417.000000
925329.000000
926133.000000
926917.000000
927685.000000
928463.000000
929238.000000
930107.000000
931097.000000
932082.000000
932985.000000
933932.000000
934840.000000
935654.000000
936493.000000
937376.000000
938205.000000
939034.000000
939899.000000
940753.000000
941555.000000
942373.000000
943211.000000
944008.000000
944820.000000
945676.000000
946542.000000
947324.000000
948085.000000
948796.000000
949487.000000
950205.000000
950919.000000
951656.000000
952423.000000
953254.000000
954118.000000
954940.000000
955795.000000
956657.000000
957497.000000
958260.000000
959027.000000
959830.000000
960694.000000
961511.000000
962346.000000
963240.000000
964138.000000
964975.000000
965820.000000
966703.000000
967588.000000
968417.000000
969292.000000
970227.000000
971126.000000
971971.000000
972856.000000
973748.000000
974542.000000
975334.000000
976155.000000
977031.000000
977862.000000
978758.000000
979749.000000
980742.000000
981626.000000
982549.000000
983492.000000
984406.000000
985241.000000
986075.000000
986927.000000
987754.000000
988582.000000
989476.000000
990408.000000
991285.000000
992175.000000
993079.000000
993924.000000
994727.000000
995567.000000
996442.000000
997319.000000
998181.000000
998973.000000
999758.000000
1000572.000000
1001426.000000
1002238.000000
1003060.000000
1003954.000000
1004874.000000
1005697.000000
1006498.000000
1007322.000000
1008143.000000
1008897.000000
1009595.000000
1010301.000000
1011139.000000
1012071.000000
1012999.000000
1013875.000000
1014701.000000
1015559.000000
1016454.000000
1017354.000000
1018167.000000
1018972.000000
1019793.000000
1020646.000000
1021496.000000
1022298.000000
1023124.000000
1023965.000000
1024827.000000
1025681.000000
1026478.000000
1027289.000000
1028098.000000
1028917.000000
1029688.000000
1030457.000000
1031266.000000
1032165.000000
1032990.000000
1033807.000000
1034555.000000
1035248.000000
1035939.000000
1036657.000000
1037444.000000
1038285.000000
1039088.000000
1039914.000000
1040757.000000
1041615.000000
1042405.000000
1043188.000000
1043968.000000
1044735.000000
1045468.000000
1046239.000000
1047071.000000
1047969.000000
1048790.000000
1049615.000000
1050473.000000
1051355.000000
1052186.000000
1053003.000000
1053831.000000
1054706.000000
1055523.000000
1056369.000000
1057274.000000
1058185.000000
1059007.000000
1059857.000000
1060741.000000
1061557.000000
1062326.000000
1063085.000000
1063841.000000
1064587.000000
1065327.000000
1066020.000000
1066795.000000
1067671.000000
1068468.000000
1069296.000000
1070159.000000
1071023.000000
1071797.000000
1072559.000000
1073310.000000
1074071.000000
1074806.000000
1075541.000000
1076301.000000
1077092.000000
1077907.000000
1078671.000000
1079441.000000
1080236.000000
1081092.000000
1081924.000000
1082699.000000
1083514.000000
1084361.000000
1085225.000000
1086006.000000
1086770.000000
1087564.000000
1088380.000000
1089235.000000
1090027.000000
1090827.000000
1091691.000000
1092611.000000
1093469.000000
1094268.000000
1095107.000000
1095978.000000
1096801.000000
1097579.000000
1098381.000000
1099204.000000
1099989.000000
1100762.000000
1101553.000000
1102370.000000
1103177.000000
1103968.000000
1104783.000000
1105609.000000
1106377.000000
1107134.000000
1107923.000000
1108759.000000
1109547.000000
1110333.000000
1111141.000000
1111962.000000
1112719.000000
1113496.000000
1114306.000000
1115130.000000
1115897.000000
1116683.000000
1117491.000000
1118284.000000
1119037.000000
1119812.000000
1120630.000000
1121428.000000
1122178.000000
1122925.000000
1123684.000000
1124419.000000
1125175.000000
1125991.000000
1126874.000000
1127678.000000
1128481.000000
1129305.000000
1130106.000000
1130854.000000
1131612.000000
1132373.000000
1133112.000000
1133851.000000
1134609.000000
1135399.000000
1136152.000000
1136920.000000
1137728.000000
1138542.000000
1139306.000000
1140088.000000
1140884.000000
1141673.000000
1142412.000000
1143145.000000
1143893.000000
1144644.000000
1145382.000000
1146066.000000
1146725.000000
1147392.000000
1148104.000000
1148907.000000
1149781.000000
1150629.000000
1151441.000000
1152256.000000
1153090.000000
1153916.000000
1154677.000000
1155426.000000
1156156.000000
1156842.000000
1157560.000000
1158329.000000
1159105.000000
1159928.000000
1160828.000000
1161764.000000
1162624.000000
1163424.000000
1164198.000000
1164981.000000
1165784.000000
1166585.000000
1167387.000000
1168214.000000
1169007.000000
1169734.000000
1170481.000000
1171248.000000
1172002.000000
1172752.000000
1173602.000000
1174669.000000
1175639.000000
1176481.000000
1177346.000000
1178228.000000
1179028.000000
1179812.000000
1180625.000000
1181571.000000
1182454.000000
1183391.000000
1184403.000000
1185400.000000
1186263.000000
1187131.000000
1188016.000000
1188871.000000
1189668.000000
1190490.000000
1191410.000000
1192321.000000
1193117.000000
1193909.000000
1194702.000000
1195482.000000
1196291.000000
1197193.000000
1198122.000000
1198976.000000
1199821.000000
1200718.000000
1201589.000000
1202410.000000
1203257.000000
1204135.000000
1204967.000000
1205759.000000
1206527.000000
1207314.000000
1208056.000000
1208791.000000
1209541.000000
1210304.000000
1211035.000000
1211768.000000
1212529.000000
1213324.000000
