ECG (ms)
461.000000
1252.000000
2069.000000
2945.000000
3816.000000
4631.000000
5466.000000
6350.000000
7284.000000
8157.000000
8979.000000
9844.000000
10742.000000
11670.000000
12603.000000
13464.000000
14359.000000
15263.000000
16124.000000
16983.000000
17878.000000
18751.000000
19616.000000
20537.000000
21425.000000
22287.000000
23116.000000
23984.000000
24868.000000
25749.000000
26622.000000
27521.000000
28433.000000
29313.000000
30156.000000
31010.000000
31891.000000
32762.000000
33629.000000
34497.000000
35327.000000
36139.000000
36992.000000
37845.000000
38690.000000
39518.000000
40381.000000
41248.000000
42078.000000
42926.000000
43819.000000
44742.000000
45584.000000
46411.000000
47314.000000
48243.000000
49120.000000
49956.000000
50817.000000
51703.000000
52569.000000
53419.000000
54310.000000
55246.000000
56118.000000
56956.000000
57788.000000
58602.000000
59408.000000
60180.000000
60989.000000
61856.000000
62754.000000
63617.000000
64439.000000
65321.000000
66224.000000
67001.000000
67805.000000
68676.000000
69509.000000
70378.000000
71210.000000
72071.000000
72957.000000
73786.000000
74633.000000
75496.000000
76311.000000
77146.000000
78053.000000
78964.000000
79877.000000
80748.000000
81593.000000
82437.000000
83258.000000
84033.000000
84789.000000
85582.000000
86428.000000
87262.000000
88096.000000
88870.000000
89593.000000
90364.000000
91194.000000
92025.000000
92887.000000
93789.000000
94621.000000
95459.000000
96280.000000
97104.000000
97915.000000
98757.000000
99605.000000
100423.000000
101229.000000
102079.000000
102949.000000
103782.000000
104636.000000
105506.000000
106337.000000
107193.000000
108064.000000
108942.000000
109773.000000
110601.000000
111474.000000
112371.000000
113188.000000
114031.000000
114897.000000
115750.000000
116574.000000
117439.000000
118316.000000
119137.000000
119989.000000
120857.000000
121713.000000
122542.000000
123387.000000
124273.000000
125152.000000
126005.000000
126883.000000
127766.000000
128606.000000
129441.000000
130328.000000
131171.000000
131991.000000
132856.000000
133723.000000
134541.000000
135420.000000
136318.000000
137151.000000
137990.000000
138890.000000
139778.000000
140619.000000
141490.000000
142377.000000
143232.000000
144080.000000
144941.000000
145815.000000
146638.000000
147487.000000
148361.000000
149245.000000
150074.000000
150949.000000
151816.000000
152685.000000
153510.000000
154381.000000
155282.000000
156183.000000
157031.000000
157896.000000
158777.000000
159609.000000
160464.000000
161355.000000
162182.000000
163012.000000
163875.000000
164739.000000
165558.000000
166421.000000
167311.000000
168128.000000
168972.000000
169838.000000
170693.000000
171503.000000
172342.000000
173175.000000
173996.000000
174815.000000
175661.000000
176462.000000
177310.000000
178140.000000
178931.000000
179765.000000
180626.000000
181458.000000
182286.000000
183133.000000
183977.000000
184759.000000
185560.000000
186356.000000
187128.000000
187850.000000
188525.000000
189222.000000
189997.000000
190866.000000
191740.000000
192538.000000
193380.000000
194275.000000
195075.000000
195872.000000
196721.000000
197559.000000
198359.000000
199182.000000
200035.000000
200880.000000
201693.000000
202559.000000
203462.000000
204331.000000
205183.000000
206067.000000
206941.000000
207792.000000
208649.000000
209528.000000
210423.000000
211263.000000
212080.000000
212940.000000
213829.000000
214651.000000
215464.000000
216298.000000
217147.000000
217967.000000
218828.000000
219694.000000
220545.000000
221357.000000
222200.000000
223050.000000
223870.000000
224717.000000
225577.000000
226455.000000
227287.000000
228155.000000
229031.000000
229887.000000
230713.000000
231487.000000
232300.000000
233157.000000
234035.000000
234863.000000
235690.000000
236549.000000
237380.000000
238204.000000
239068.000000
239932.000000
240743.000000
241592.000000
242466.000000
243333.000000
244139.000000
244970.000000
245837.000000
246700.000000
247504.000000
248341.000000
249202.000000
250077.000000
250900.000000
251731.000000
252592.000000
253470.000000
254299.000000
255137.000000
255998.000000
256845.000000
257655.000000
258501.000000
259361.000000
260212.000000
261023.000000
261797.000000
262601.000000
263435.000000
264264.000000
265058.000000
265918.000000
266798.000000
267635.000000
268436.000000
269282.000000
270130.000000
270956.000000
271750.000000
272578.000000
273410.000000
274206.000000
275029.000000
275872.000000
276677.000000
277472.000000
278291.000000
279079.000000
279911.000000
280714.000000
281460.000000
282137.000000
282830.000000
283543.000000
284311.000000
285178.000000
285985.000000
286806.000000
287613.000000
288411.000000
289165.000000
289924.000000
290708.000000
291513.000000
292263.000000
293076.000000
293941.000000
294742.000000
295502.000000
296364.000000
297235.000000
298117.000000
298942.000000
299743.000000
300478.000000
301183.000000
301923.000000
302772.000000
303648.000000
304513.000000
305264.000000
306019.000000
306771.000000
307473.000000
308133.000000
308837.000000
309560.000000
310325.000000
311233.000000
312093.000000
312918.000000
313802.000000
314674.000000
315495.000000
316333.000000
317171.000000
317990.000000
318766.000000
319593.000000
320423.000000
321250.000000
322031.000000
322839.000000
323687.000000
324509.000000
325343.000000
326121.000000
326933.000000
327799.000000
328611.000000
329457.000000
330305.000000
331180.000000
332029.000000
332816.000000
333619.000000
334425.000000
335248.000000
336028.000000
336836.000000
337674.000000
338471.000000
339287.000000
340121.000000
340969.000000
341781.000000
342549.000000
343292.000000
343997.000000
344649.000000
345419.000000
346222.000000
346994.000000
347863.000000
348785.000000
349695.000000
350516.000000
351347.000000
352173.000000
352969.000000
353771.000000
354605.000000
355454.000000
356257.000000
357103.000000
357955.000000
358778.000000
359626.000000
360477.000000
361344.000000
362151.000000
362952.000000
363790.000000
364648.000000
365454.000000
366275.000000
367106.000000
367923.000000
368716.000000
369545.000000
370401.000000
371237.000000
372044.000000
372816.000000
373627.000000
374465.000000
375329.000000
376174.000000
377005.000000
377809.000000
378622.000000
379418.000000
380194.000000
380927.000000
381627.000000
382311.000000
383042.000000
383760.000000
384461.000000
385201.000000
385974.000000
386802.000000
387618.000000
388458.000000
389259.000000
390061.000000
390739.000000
391405.000000
392097.000000
392811.000000
393595.000000
394475.000000
395296.000000
396066.000000
396886.000000
397727.000000
398517.000000
399322.000000
400153.000000
400975.000000
401768.000000
402518.000000
403296.000000
404112.000000
404966.000000
405747.000000
406542.000000
407293.000000
408010.000000
408825.000000
409675.000000
410521.000000
411392.000000
412186.000000
412945.000000
413729.000000
414548.000000
415378.000000
416179.000000
417013.000000
417869.000000
418738.000000
419579.000000
420472.000000
421382.000000
422241.000000
423049.000000
423908.000000
424797.000000
425631.000000
426483.000000
427361.000000
428233.000000
429069.000000
429960.000000
430847.000000
431729.000000
432581.000000
433381.000000
434197.000000
435075.000000
435973.000000
436820.000000
437705.000000
438622.000000
439507.000000
440346.000000
441219.000000
442119.000000
443010.000000
443847.000000
444712.000000
445620.000000
446551.000000
447408.000000
448255.000000
449132.000000
450026.000000
450869.000000
451699.000000
452563.000000
453424.000000
454233.000000
455073.000000
455934.000000
456767.000000
457571.000000
458415.000000
459255.000000
460100.000000
460888.000000
461697.000000
462533.000000
463362.000000
464172.000000
465029.000000
465893.000000
466723.000000
467548.000000
468408.000000
469277.000000
470122.000000
470962.000000
471844.000000
472752.000000
473546.000000
474324.000000
475077.000000
475916.000000
476898.000000
477733.000000
478588.000000
479455.000000
480344.000000
481222.000000
482026.000000
482854.000000
483711.000000
484568.000000
485379.000000
486231.000000
487101.000000
487985.000000
488821.000000
489677.000000
490529.000000
491402.000000
492222.000000
493056.000000
493914.000000
494790.000000
495664.000000
496488.000000
497344.000000
498214.000000
499044.000000
499849.000000
500686.000000
501548.000000
502415.000000
503242.000000
504117.000000
505007.000000
505875.000000
506708.000000
507562.000000
508420.000000
509255.000000
510101.000000
510970.000000
511828.000000
512657.000000
513535.000000
514359.000000
515219.000000
516109.000000
516970.000000
517799.000000
518607.000000
519404.000000
520172.000000
520963.000000
521715.000000
522409.000000
523120.000000
523892.000000
524648.000000
525510.000000
526459.000000
527289.000000
528064.000000
528874.000000
529697.000000
530520.000000
531303.000000
532077.000000
532903.000000
533771.000000
534603.000000
535439.000000
536266.000000
537082.000000
537894.000000
538734.000000
539588.000000
540444.000000
541254.000000
542100.000000
542974.000000
543821.000000
544647.000000
545439.000000
546260.000000
547097.000000
547938.000000
548794.000000
549635.000000
550459.000000
551260.000000
552095.000000
552949.000000
553771.000000
554562.000000
555392.000000
556224.000000
557047.000000
557853.000000
558594.000000
559368.000000
560148.000000
560975.000000
561782.000000
562588.000000
563433.000000
564271.000000
565068.000000
565866.000000
566683.000000
567480.000000
568274.000000
569082.000000
569860.000000
570653.000000
571447.000000
572252.000000
573020.000000
573846.000000
574623.000000
575362.000000
576081.000000
576754.000000
577387.000000
578068.000000
578976.000000
579788.000000
580657.000000
581572.000000
582446.000000
583304.000000
584148.000000
584983.000000
585768.000000
586580.000000
587400.000000
588248.000000
589125.000000
589995.000000
590813.000000
591604.000000
592452.000000
593355.000000
594247.000000
595072.000000
595962.000000
596871.000000
597750.000000
598535.000000
599358.000000
600192.000000
600964.000000
601802.000000
602668.000000
603495.000000
604314.000000
605174.000000
606080.000000
606956.000000
607789.000000
608677.000000
609602.000000
610538.000000
611409.000000
612250.000000
613141.000000
614092.000000
615016.000000
615882.000000
616750.000000
617682.000000
618646.000000
619565.000000
620432.000000
621299.000000
622203.000000
623136.000000
624024.000000
624891.000000
625798.000000
626719.000000
627586.000000
628448.000000
629356.000000
630255.000000
631093.000000
631961.000000
632910.000000
633839.000000
634731.000000
635593.000000
636492.000000
637435.000000
638330.000000
639159.000000
640025.000000
640904.000000
641767.000000
642589.000000
643444.000000
644353.000000
645256.000000
646113.000000
646980.000000
647897.000000
648822.000000
649676.000000
650493.000000
651349.000000
652232.000000
653109.000000
653952.000000
654796.000000
655674.000000
656577.000000
657452.000000
658280.000000
659148.000000
660043.000000
660972.000000
661895.000000
662762.000000
663670.000000
664612.000000
665546.000000
666446.000000
667269.000000
668107.000000
669006.000000
669927.000000
670794.000000
671644.000000
672573.000000
673506.000000
674398.000000
675243.000000
676125.000000
677072.000000
678035.000000
678909.000000
679786.000000
680707.000000
681611.000000
682458.000000
683316.000000
684223.000000
685124.000000
685951.000000
686791.000000
687679.000000
688572.000000
689457.000000
690291.000000
691158.000000
692057.000000
692934.000000
693775.000000
694654.000000
695555.000000
696443.000000
697265.000000
698118.000000
698972.000000
699807.000000
700600.000000
701429.000000
702323.000000
703243.000000
704100.000000
704940.000000
705808.000000
706693.000000
707554.000000
708385.000000
709263.000000
710174.000000
711039.000000
711861.000000
712717.000000
713633.000000
714550.000000
715406.000000
716262.000000
717210.000000
718171.000000
719141.000000
720057.000000
720932.000000
721864.000000
722806.000000
723735.000000
724598.000000
725490.000000
726426.000000
727357.000000
728258.000000
729109.000000
729959.000000
730872.000000
731801.000000
732758.000000
733640.000000
734510.000000
735412.000000
736337.000000
737254.000000
738122.000000
738983.000000
739892.000000
740804.000000
741720.000000
742580.000000
743465.000000
744380.000000
745311.000000
746227.000000
747083.000000
747919.000000
748779.000000
749691.000000
750612.000000
751528.000000
752415.000000
753254.000000
754083.000000
754949.000000
755884.000000
756785.000000
757633.000000
758457.000000
759328.000000
760231.000000
761120.000000
761951.000000
762799.000000
763719.000000
764652.000000
765593.000000
766468.000000
767307.000000
768175.000000
769117.000000
770042.000000
770928.000000
771757.000000
772587.000000
773470.000000
774410.000000
775328.000000
776258.000000
777114.000000
777942.000000
778783.000000
779689.000000
780648.000000
781597.000000
782532.000000
783417.000000
784271.000000
785166.000000
786097.000000
787036.000000
787957.000000
788811.000000
789634.000000
790498.000000
791401.000000
792299.000000
793150.000000
793951.000000
794782.000000
795682.000000
796594.000000
797483.000000
798314.000000
799117.000000
799956.000000
800855.000000
801738.000000
802575.000000
803379.000000
804192.000000
805049.000000
805936.000000
806821.000000
807665.000000
808456.000000
809250.000000
810107.000000
810983.000000
811822.000000
812637.000000
813469.000000
814377.000000
815268.000000
816119.000000
816931.000000
817769.000000
818650.000000
819538.000000
820401.000000
821221.000000
822048.000000
822892.000000
823769.000000
824684.000000
825558.000000
826393.000000
827256.000000
828161.000000
829030.000000
829841.000000
830673.000000
831574.000000
832497.000000
833397.000000
834257.000000
835124.000000
836015.000000
836895.000000
837721.000000
838535.000000
839385.000000
840256.000000
841039.000000
841724.000000
842440.000000
843220.000000
843979.000000
844809.000000
845719.000000
846667.000000
847562.000000
848338.000000
849129.000000
849961.000000
850826.000000
851636.000000
852421.000000
853290.000000
854272.000000
855243.000000
856128.000000
856935.000000
857755.000000
858596.000000
859482.000000
860357.000000
861184.000000
862001.000000
862876.000000
863791.000000
864724.000000
865657.000000
866512.000000
867352.000000
868261.000000
869191.000000
870101.000000
871005.000000
871852.000000
872670.000000
873518.000000
874436.000000
875353.000000
876252.000000
877098.000000
877927.000000
878807.000000
879735.000000
880657.000000
881510.000000
882370.000000
883285.000000
884215.000000
885123.000000
885958.000000
886816.000000
887709.000000
888605.000000
889474.000000
890294.000000
891161.000000
892052.000000
892959.000000
893829.000000
894669.000000
895568.000000
896485.000000
897378.000000
898227.000000
899065.000000
899939.000000
900832.000000
