ECG (ms)
515.000000
1411.000000
2288.000000
3184.000000
4092.000000
4995.000000
5883.000000
6763.000000
7662.000000
8570.000000
9490.000000
10379.000000
11252.000000
12135.000000
13027.000000
13923.000000
14805.000000
15670.000000
16532.000000
17404.000000
18305.000000
19213.000000
20110.000000
20984.000000
21851.000000
22687.000000
23495.000000
24284.000000
25119.000000
25979.000000
26858.000000
27725.000000
28584.000000
29465.000000
30360.000000
31258.000000
32136.000000
33009.000000
33895.000000
34788.000000
35677.000000
36575.000000
37489.000000
38417.000000
39347.000000
40251.000000
41166.000000
42077.000000
43001.000000
43896.000000
44804.000000
45720.000000
46628.000000
47502.000000
48386.000000
49286.000000
50167.000000
51023.000000
51893.000000
52782.000000
53667.000000
54537.000000
55432.000000
56352.000000
57259.000000
58078.000000
58900.000000
59777.000000
60611.000000
61432.000000
62288.000000
63163.000000
64026.000000
64908.000000
65810.000000
66707.000000
67581.000000
68443.000000
69322.000000
70221.000000
71116.000000
71993.000000
72854.000000
73722.000000
74611.000000
75517.000000
76415.000000
77284.000000
78161.000000
79052.000000
79954.000000
80822.000000
81684.000000
82583.000000
83485.000000
84379.000000
85241.000000
86092.000000
86969.000000
87867.000000
88765.000000
89630.000000
90478.000000
91338.000000
92227.000000
93129.000000
94039.000000
94943.000000
95816.000000
96699.000000
97610.000000
98532.000000
99422.000000
100319.000000
101224.000000
102141.000000
103043.000000
103961.000000
104860.000000
105680.000000
106515.000000
107379.000000
108215.000000
109048.000000
109884.000000
110751.000000
111649.000000
112560.000000
113477.000000
114361.000000
115216.000000
116078.000000
116955.000000
117875.000000
118799.000000
119700.000000
120612.000000
121542.000000
122463.000000
123346.000000
124231.000000
125146.000000
126075.000000
126996.000000
127890.000000
128748.000000
129613.000000
130520.000000
131450.000000
132380.000000
133290.000000
134169.000000
135053.000000
135936.000000
136838.000000
137719.000000
138594.000000
139495.000000
140414.000000
141368.000000
142320.000000
143246.000000
144176.000000
145109.000000
146013.000000
146884.000000
147728.000000
148565.000000
149420.000000
150296.000000
151171.000000
152029.000000
152910.000000
153820.000000
154713.000000
155527.000000
156342.000000
157164.000000
157983.000000
158812.000000
159685.000000
160579.000000
161502.000000
162414.000000
163298.000000
164139.000000
164980.000000
165847.000000
166738.000000
167641.000000
168549.000000
169439.000000
170334.000000
171231.000000
172129.000000
173024.000000
173899.000000
174793.000000
175703.000000
176608.000000
177508.000000
178389.000000
179254.000000
180136.000000
181019.000000
181898.000000
182754.000000
183605.000000
184470.000000
185368.000000
186275.000000
187173.000000
188064.000000
188975.000000
189887.000000
190799.000000
191692.000000
192559.000000
193434.000000
194324.000000
195221.000000
196098.000000
196928.000000
197709.000000
198511.000000
199350.000000
200213.000000
201087.000000
201989.000000
202921.000000
203844.000000
204735.000000
205609.000000
206497.000000
207389.000000
208262.000000
209100.000000
209920.000000
210775.000000
211654.000000
212556.000000
213448.000000
214309.000000
215148.000000
216011.000000
216893.000000
217786.000000
218666.000000
219521.000000
220389.000000
221272.000000
222168.000000
223053.000000
223915.000000
224760.000000
225616.000000
226487.000000
227379.000000
228272.000000
229146.000000
230004.000000
230862.000000
231723.000000
232577.000000
233427.000000
234290.000000
235170.000000
236058.000000
236919.000000
237751.000000
238541.000000
239325.000000
240165.000000
241038.000000
241948.000000
242857.000000
243745.000000
244614.000000
245502.000000
246416.000000
247321.000000
248160.000000
248981.000000
249813.000000
250670.000000
251563.000000
252467.000000
253354.000000
254217.000000
255079.000000
255952.000000
256828.000000
257709.000000
258581.000000
259436.000000
260312.000000
261203.000000
262109.000000
263027.000000
263918.000000
264788.000000
265671.000000
266573.000000
267500.000000
268425.000000
269332.000000
270211.000000
271101.000000
272003.000000
272910.000000
273801.000000
274674.000000
275543.000000
276432.000000
277331.000000
278227.000000
279104.000000
279970.000000
280860.000000
281759.000000
282658.000000
283532.000000
284344.000000
285143.000000
285933.000000
286734.000000
287553.000000
288381.000000
289220.000000
290085.000000
290976.000000
291883.000000
292796.000000
293700.000000
294581.000000
295443.000000
296316.000000
297214.000000
298122.000000
299038.000000
299945.000000
300824.000000
301694.000000
302595.000000
303520.000000
304449.000000
305360.000000
306265.000000
307194.000000
308127.000000
309037.000000
309912.000000
310785.000000
311690.000000
312588.000000
313469.000000
314345.000000
315245.000000
316152.000000
317046.000000
317915.000000
318776.000000
319662.000000
320554.000000
321438.000000
322302.000000
323162.000000
324041.000000
324940.000000
325844.000000
326730.000000
327587.000000
328442.000000
329319.000000
330204.000000
331037.000000
331837.000000
332665.000000
333510.000000
334387.000000
335266.000000
336156.000000
337052.000000
337958.000000
338862.000000
339767.000000
340667.000000
341567.000000
342465.000000
343363.000000
344266.000000
345161.000000
346055.000000
346920.000000
347768.000000
348632.000000
349523.000000
350430.000000
351329.000000
352199.000000
353051.000000
353929.000000
354815.000000
355698.000000
356593.000000
357438.000000
358237.000000
359060.000000
359900.000000
360733.000000
361573.000000
362426.000000
363295.000000
364170.000000
365026.000000
365873.000000
366723.000000
367585.000000
368456.000000
369315.000000
370165.000000
371028.000000
371903.000000
372794.000000
373673.000000
374533.000000
375390.000000
376271.000000
377162.000000
378061.000000
378956.000000
379816.000000
380662.000000
381509.000000
382380.000000
383265.000000
384139.000000
384994.000000
385878.000000
386780.000000
387670.000000
388537.000000
389393.000000
390265.000000
391159.000000
392053.000000
392911.000000
393755.000000
394594.000000
395465.000000
396354.000000
397216.000000
398071.000000
398904.000000
399758.000000
400639.000000
401539.000000
402423.000000
403269.000000
404103.000000
404956.000000
405829.000000
406673.000000
407467.000000
408249.000000
409060.000000
409906.000000
410771.000000
411647.000000
412514.000000
413399.000000
414286.000000
415157.000000
416017.000000
416890.000000
417780.000000
418664.000000
419525.000000
420388.000000
421276.000000
422177.000000
423046.000000
423928.000000
424830.000000
425739.000000
426640.000000
427531.000000
428402.000000
429279.000000
430148.000000
430993.000000
431823.000000
432660.000000
433534.000000
434444.000000
435359.000000
436245.000000
437114.000000
437986.000000
438881.000000
439782.000000
440670.000000
441543.000000
442444.000000
443345.000000
444224.000000
445072.000000
445919.000000
446788.000000
447682.000000
448587.000000
449438.000000
450243.000000
451050.000000
451862.000000
452670.000000
453513.000000
454385.000000
455249.000000
456106.000000
456954.000000
457826.000000
458720.000000
459613.000000
460505.000000
461362.000000
462217.000000
463098.000000
463998.000000
464899.000000
465757.000000
466613.000000
467497.000000
468381.000000
469267.000000
470136.000000
470985.000000
471854.000000
472730.000000
473607.000000
474463.000000
475296.000000
476116.000000
476960.000000
477825.000000
478699.000000
479590.000000
480446.000000
481290.000000
482146.000000
483034.000000
483941.000000
484848.000000
485723.000000
486576.000000
487460.000000
488357.000000
489249.000000
490118.000000
490960.000000
491797.000000
492669.000000
493558.000000
494430.000000
495280.000000
496132.000000
497000.000000
497883.000000
498766.000000
499635.000000
500472.000000
501309.000000
502166.000000
503033.000000
503870.000000
504688.000000
505513.000000
506369.000000
507245.000000
508095.000000
508929.000000
509761.000000
510634.000000
511525.000000
512421.000000
513311.000000
514170.000000
515027.000000
515913.000000
516809.000000
517698.000000
518581.000000
519435.000000
520329.000000
521213.000000
522036.000000
522822.000000
523618.000000
524441.000000
525304.000000
526178.000000
527056.000000
527920.000000
528759.000000
529593.000000
530453.000000
531322.000000
532194.000000
533051.000000
533885.000000
534723.000000
535581.000000
536466.000000
537328.000000
538171.000000
539032.000000
539899.000000
540769.000000
541610.000000
542445.000000
543312.000000
544192.000000
545044.000000
545881.000000
546714.000000
547563.000000
548440.000000
549313.000000
550198.000000
551085.000000
551967.000000
552826.000000
553664.000000
554495.000000
555347.000000
556220.000000
557104.000000
557979.000000
558792.000000
559603.000000
560418.000000
561264.000000
562138.000000
563027.000000
563913.000000
564807.000000
565690.000000
566561.000000
567442.000000
568321.000000
569199.000000
570070.000000
570941.000000
571804.000000
572663.000000
573505.000000
574335.000000
575182.000000
576052.000000
576941.000000
577844.000000
578753.000000
579659.000000
580547.000000
581433.000000
582316.000000
583174.000000
584003.000000
584821.000000
585675.000000
586557.000000
587445.000000
588304.000000
589130.000000
589971.000000
590823.000000
591696.000000
592560.000000
593400.000000
594262.000000
595139.000000
596024.000000
596864.000000
597697.000000
598550.000000
599418.000000
600311.000000
601175.000000
602029.000000
602894.000000
603781.000000
604635.000000
605509.000000
606386.000000
607244.000000
608089.000000
608962.000000
609852.000000
610748.000000
611603.000000
612438.000000
613285.000000
614150.000000
615031.000000
615885.000000
616728.000000
617570.000000
618407.000000
619253.000000
620118.000000
620943.000000
621740.000000
622535.000000
623359.000000
624189.000000
624957.000000
625742.000000
626568.000000
627415.000000
628264.000000
629112.000000
629975.000000
630866.000000
631772.000000
632673.000000
633563.000000
634441.000000
635305.000000
636143.000000
636976.000000
637835.000000
638711.000000
639616.000000
640496.000000
641376.000000
642259.000000
643136.000000
643982.000000
644819.000000
645679.000000
646555.000000
647435.000000
648314.000000
649185.000000
650051.000000
650914.000000
651780.000000
652668.000000
653547.000000
654374.000000
655185.000000
656004.000000
656827.000000
657669.000000
658526.000000
659393.000000
660266.000000
661103.000000
661915.000000
662728.000000
663570.000000
664427.000000
665299.000000
666186.000000
667042.000000
667872.000000
668704.000000
669557.000000
670441.000000
671344.000000
672249.000000
673148.000000
674012.000000
674865.000000
675722.000000
676575.000000
677407.000000
678209.000000
679025.000000
679875.000000
680749.000000
681620.000000
682475.000000
683329.000000
684202.000000
685086.000000
685972.000000
686866.000000
687748.000000
688622.000000
689468.000000
690318.000000
691175.000000
692012.000000
692834.000000
693665.000000
694511.000000
695378.000000
696272.000000
697173.000000
698076.000000
698973.000000
699838.000000
700710.000000
701580.000000
702446.000000
703308.000000
704202.000000
705112.000000
706034.000000
706910.000000
707740.000000
708564.000000
709404.000000
710268.000000
711135.000000
711976.000000
712767.000000
713520.000000
714255.000000
715015.000000
715798.000000
716579.000000
717416.000000
718288.000000
719180.000000
720051.000000
720934.000000
721820.000000
722698.000000
723564.000000
724422.000000
725245.000000
726041.000000
726848.000000
727694.000000
728580.000000
729503.000000
730430.000000
731354.000000
732273.000000
733178.000000
734084.000000
734986.000000
735861.000000
736695.000000
737528.000000
738370.000000
739218.000000
740062.000000
740874.000000
741684.000000
742514.000000
743359.000000
744206.000000
745029.000000
745879.000000
746734.000000
747568.000000
748377.000000
749205.000000
750055.000000
750886.000000
751676.000000
752465.000000
753289.000000
754151.000000
755034.000000
755904.000000
756763.000000
757625.000000
758484.000000
759324.000000
760177.000000
761040.000000
761898.000000
762752.000000
763614.000000
764456.000000
765285.000000
766139.000000
767005.000000
767847.000000
768690.000000
769554.000000
770376.000000
771161.000000
771936.000000
772737.000000
773560.000000
774388.000000
775150.000000
775937.000000
776716.000000
777488.000000
778272.000000
779098.000000
779951.000000
780800.000000
781630.000000
782457.000000
783310.000000
784170.000000
785023.000000
785859.000000
786670.000000
787473.000000
788303.000000
789160.000000
790049.000000
790933.000000
791828.000000
792702.000000
793562.000000
794416.000000
795275.000000
796122.000000
796984.000000
797874.000000
798778.000000
799681.000000
800585.000000
801479.000000
802360.000000
803229.000000
804064.000000
804874.000000
805705.000000
806564.000000
807426.000000
808260.000000
809120.000000
809994.000000
810847.000000
811731.000000
812636.000000
813530.000000
814422.000000
815315.000000
816190.000000
817064.000000
817945.000000
818835.000000
819688.000000
820500.000000
821284.000000
822088.000000
822924.000000
823795.000000
824665.000000
825506.000000
826356.000000
827206.000000
828070.000000
828919.000000
829779.000000
830669.000000
831565.000000
832433.000000
833256.000000
834064.000000
834890.000000
835726.000000
836510.000000
837259.000000
838012.000000
838792.000000
839623.000000
840497.000000
841385.000000
842277.000000
843146.000000
844008.000000
844871.000000
845744.000000
846603.000000
847473.000000
848349.000000
849230.000000
850098.000000
850989.000000
851893.000000
852780.000000
853652.000000
854541.000000
855419.000000
856262.000000
857063.000000
857882.000000
858729.000000
859562.000000
860376.000000
861209.000000
862072.000000
862918.000000
863751.000000
864630.000000
865510.000000
866346.000000
867190.000000
868045.000000
868884.000000
869702.000000
870500.000000
871314.000000
872148.000000
873000.000000
873833.000000
874666.000000
875521.000000
876381.000000
877231.000000
878089.000000
878941.000000
879754.000000
880510.000000
881261.000000
882063.000000
882903.000000
883774.000000
884661.000000
885534.000000
886417.000000
887316.000000
888212.000000
889111.000000
889988.000000
890834.000000
891689.000000
892565.000000
893467.000000
894368.000000
895232.000000
896025.000000
896808.000000
897613.000000
898428.000000
899269.000000
900110.000000
