ECG (ms)
279.000000
1139.000000
2027.000000
2896.000000
3747.000000
4605.000000
5438.000000
6269.000000
7118.000000
7972.000000
8837.000000
9762.000000
10615.000000
11458.000000
12369.000000
13367.000000
14271.000000
15212.000000
16187.000000
17081.000000
17948.000000
18865.000000
19816.000000
20714.000000
21616.000000
22556.000000
23502.000000
24364.000000
25270.000000
26266.000000
27299.000000
28237.000000
29206.000000
30186.000000
31104.000000
31983.000000
32905.000000
33905.000000
34837.000000
35757.000000
36723.000000
37785.000000
38755.000000
39633.000000
40478.000000
41456.000000
42590.000000
43603.000000
44503.000000
45408.000000
46407.000000
47434.000000
48393.000000
49271.000000
50129.000000
51048.000000
52100.000000
53170.000000
54119.000000
54964.000000
55804.000000
56717.000000
57795.000000
58902.000000
59864.000000
60755.000000
61667.000000
62665.000000
63701.000000
64627.000000
65537.000000
66527.000000
67640.000000
68702.000000
69651.000000
70622.000000
71637.000000
72628.000000
73546.000000
74496.000000
75500.000000
76444.000000
77397.000000
78433.000000
79526.000000
80586.000000
81520.000000
82387.000000
83246.000000
84225.000000
85403.000000
86543.000000
87503.000000
88423.000000
89364.000000
90481.000000
91585.000000
92584.000000
93529.000000
94495.000000
95469.000000
96373.000000
97224.000000
98133.000000
99171.000000
100167.000000
101072.000000
102002.000000
102948.000000
103919.000000
104875.000000
105791.000000
106686.000000
107656.000000
108743.000000
109828.000000
110803.000000
111696.000000
112557.000000
113463.000000
114468.000000
115485.000000
116414.000000
117291.000000
118183.000000
119155.000000
120185.000000
121192.000000
122100.000000
122966.000000
123868.000000
124837.000000
125876.000000
126829.000000
127727.000000
128603.000000
129547.000000
130573.000000
131568.000000
132484.000000
133348.000000
134187.000000
135080.000000
136096.000000
137119.000000
138072.000000
138947.000000
139791.000000
140683.000000
141636.000000
142616.000000
143540.000000
144425.000000
145294.000000
146216.000000
147205.000000
148199.000000
149158.000000
150084.000000
151001.000000
151980.000000
153005.000000
154033.000000
154974.000000
155874.000000
156780.000000
157775.000000
158847.000000
159896.000000
160839.000000
161747.000000
162652.000000
163614.000000
164613.000000
165615.000000
166543.000000
167436.000000
168348.000000
169328.000000
170325.000000
171338.000000
172265.000000
173123.000000
173986.000000
174933.000000
176078.000000
177147.000000
178064.000000
178948.000000
179881.000000
180879.000000
181902.000000
182942.000000
183917.000000
184806.000000
185675.000000
186616.000000
187669.000000
188737.000000
189709.000000
190588.000000
191436.000000
192335.000000
193375.000000
194470.000000
195461.000000
196368.000000
197269.000000
198237.000000
199327.000000
200409.000000
201372.000000
202274.000000
203134.000000
204032.000000
205089.000000
206188.000000
207195.000000
208166.000000
209129.000000
210153.000000
211197.000000
212207.000000
213122.000000
214008.000000
214884.000000
215809.000000
216798.000000
217796.000000
218716.000000
219599.000000
220475.000000
221411.000000
222418.000000
223462.000000
224455.000000
225374.000000
226269.000000
227205.000000
228173.000000
229147.000000
230058.000000
230911.000000
231750.000000
232645.000000
233708.000000
234780.000000
235806.000000
236757.000000
237628.000000
238467.000000
239349.000000
240367.000000
241450.000000
242410.000000
243325.000000
244279.000000
245296.000000
246351.000000
247344.000000
248238.000000
249117.000000
250083.000000
251177.000000
252222.000000
253242.000000
254176.000000
255047.000000
255917.000000
256856.000000
257951.000000
259036.000000
260003.000000
260883.000000
261753.000000
262693.000000
263706.000000
264733.000000
265690.000000
266634.000000
267618.000000
268586.000000
269483.000000
270406.000000
271360.000000
272353.000000
273310.000000
274202.000000
275088.000000
276014.000000
277008.000000
278053.000000
279092.000000
280032.000000
280930.000000
281844.000000
282820.000000
283812.000000
284737.000000
285636.000000
286588.000000
287636.000000
288767.000000
289818.000000
290727.000000
291584.000000
292446.000000
293416.000000
294683.000000
295832.000000
296797.000000
297709.000000
298621.000000
299616.000000
300664.000000
301639.000000
302535.000000
303412.000000
304314.000000
305284.000000
306288.000000
307201.000000
308078.000000
308957.000000
309899.000000
310931.000000
312003.000000
312982.000000
313875.000000
314769.000000
315746.000000
316791.000000
317832.000000
318739.000000
319591.000000
320449.000000
321393.000000
322595.000000
323721.000000
324816.000000
325770.000000
326665.000000
327574.000000
328590.000000
329692.000000
330746.000000
331764.000000
332780.000000
333786.000000
334688.000000
335539.000000
336394.000000
337409.000000
338646.000000
339773.000000
340766.000000
341673.000000
342570.000000
343516.000000
344561.000000
345617.000000
346546.000000
347421.000000
348310.000000
349291.000000
350350.000000
351380.000000
352312.000000
353180.000000
354057.000000
355016.000000
356027.000000
357011.000000
357912.000000
358772.000000
359680.000000
360675.000000
361675.000000
362598.000000
363539.000000
364547.000000
365587.000000
366630.000000
367655.000000
368547.000000
369438.000000
370386.000000
371354.000000
372330.000000
373262.000000
374135.000000
374987.000000
375889.000000
376950.000000
377997.000000
378919.000000
379825.000000
380736.000000
381724.000000
382780.000000
383874.000000
384880.000000
385811.000000
386714.000000
387672.000000
388756.000000
389858.000000
390839.000000
391763.000000
392670.000000
393649.000000
394683.000000
395727.000000
396734.000000
397653.000000
398551.000000
399466.000000
400449.000000
401442.000000
402423.000000
403331.000000
404199.000000
405058.000000
405963.000000
406994.000000
408091.000000
409047.000000
409942.000000
410830.000000
411766.000000
412738.000000
413783.000000
414763.000000
415663.000000
416541.000000
417434.000000
418391.000000
419389.000000
420350.000000
421224.000000
422078.000000
422989.000000
424028.000000
425075.000000
426006.000000
426873.000000
427738.000000
428661.000000
429653.000000
430703.000000
431698.000000
432598.000000
433482.000000
434406.000000
435418.000000
436458.000000
437482.000000
438464.000000
439494.000000
440580.000000
441597.000000
442548.000000
443507.000000
444494.000000
445543.000000
446557.000000
447631.000000
448716.000000
449713.000000
450718.000000
451744.000000
452703.000000
453632.000000
454615.000000
455705.000000
456771.000000
457719.000000
458657.000000
459657.000000
460761.000000
461855.000000
462844.000000
463750.000000
464641.000000
465630.000000
466717.000000
467836.000000
468829.000000
469757.000000
470721.000000
471768.000000
472839.000000
473820.000000
474831.000000
475873.000000
476904.000000
477853.000000
478822.000000
479833.000000
480775.000000
481653.000000
482557.000000
483578.000000
484682.000000
485688.000000
486751.000000
487841.000000
488795.000000
489743.000000
490701.000000
491654.000000
492537.000000
493402.000000
494364.000000
495667.000000
496829.000000
497824.000000
498740.000000
499660.000000
500667.000000
501752.000000
502838.000000
503835.000000
504755.000000
505661.000000
506660.000000
507744.000000
508884.000000
510007.000000
511026.000000
511948.000000
512836.000000
513766.000000
514825.000000
515946.000000
516964.000000
517887.000000
518767.000000
519685.000000
520707.000000
521797.000000
522893.000000
523875.000000
524766.000000
525625.000000
526526.000000
527581.000000
528647.000000
529606.000000
530496.000000
531376.000000
532309.000000
533319.000000
534322.000000
535246.000000
536127.000000
536994.000000
537941.000000
538978.000000
540057.000000
541087.000000
542020.000000
542932.000000
543866.000000
544859.000000
545903.000000
546885.000000
547791.000000
548719.000000
549733.000000
550804.000000
551807.000000
552777.000000
553788.000000
554827.000000
555845.000000
556745.000000
557607.000000
558521.000000
559613.000000
560758.000000
561766.000000
562737.000000
563756.000000
564831.000000
565929.000000
566892.000000
567798.000000
568740.000000
569797.000000
570847.000000
571867.000000
573021.000000
574152.000000
575123.000000
576005.000000
576924.000000
578390.000000
579606.000000
580565.000000
581502.000000
582565.000000
583885.000000
585052.000000
586151.000000
587211.000000
588181.000000
589094.000000
589983.000000
590893.000000
591853.000000
592886.000000
593994.000000
595092.000000
596196.000000
597173.000000
598073.000000
598964.000000
599927.000000
601036.000000
602086.000000
603026.000000
603971.000000
604964.000000
606007.000000
606972.000000
607936.000000
608922.000000
609872.000000
610769.000000
611708.000000
612715.000000
613758.000000
614689.000000
615664.000000
616719.000000
617767.000000
618764.000000
619808.000000
620857.000000
621815.000000
622721.000000
623631.000000
624626.000000
625737.000000
626862.000000
627834.000000
628809.000000
629830.000000
630921.000000
631927.000000
632940.000000
633975.000000
634963.000000
635890.000000
636852.000000
637880.000000
638970.000000
639959.000000
640874.000000
641770.000000
642763.000000
643966.000000
645130.000000
646213.000000
647164.000000
648047.000000
648902.000000
649847.000000
651020.000000
652198.000000
653227.000000
654155.000000
655067.000000
656046.000000
657086.000000
658151.000000
659107.000000
660033.000000
660977.000000
661982.000000
663001.000000
663975.000000
664882.000000
665800.000000
666743.000000
667700.000000
668616.000000
669501.000000
670401.000000
671367.000000
672402.000000
673424.000000
674325.000000
675195.000000
676100.000000
677085.000000
678170.000000
679137.000000
680077.000000
681062.000000
682195.000000
683277.000000
684301.000000
685235.000000
686142.000000
687078.000000
688081.000000
689131.000000
690156.000000
691203.000000
692132.000000
692998.000000
693858.000000
694850.000000
696082.000000
697129.000000
698089.000000
699083.000000
700164.000000
701266.000000
702248.000000
703184.000000
704172.000000
705204.000000
706172.000000
707080.000000
708042.000000
709099.000000
710187.000000
711164.000000
712166.000000
713191.000000
714221.000000
715250.000000
716179.000000
717064.000000
718019.000000
719078.000000
720150.000000
721154.000000
722098.000000
723061.000000
724072.000000
725067.000000
725973.000000
726844.000000
727766.000000
728785.000000
729775.000000
730684.000000
731615.000000
732604.000000
733593.000000
734491.000000
735389.000000
736352.000000
737420.000000
738499.000000
739449.000000
740361.000000
741300.000000
742319.000000
743398.000000
744382.000000
745305.000000
746275.000000
747442.000000
748521.000000
749502.000000
750507.000000
751525.000000
752467.000000
753396.000000
754374.000000
755420.000000
756393.000000
757387.000000
758424.000000
759389.000000
760298.000000
761264.000000
762379.000000
763411.000000
764501.000000
765554.000000
766503.000000
767502.000000
768543.000000
769505.000000
770435.000000
771435.000000
772429.000000
773342.000000
774224.000000
775126.000000
776163.000000
777230.000000
778304.000000
779272.000000
780169.000000
781080.000000
782048.000000
783088.000000
784053.000000
785001.000000
786004.000000
787080.000000
788159.000000
789127.000000
790029.000000
790924.000000
791871.000000
792937.000000
794022.000000
795026.000000
795936.000000
796817.000000
797709.000000
798731.000000
799798.000000
800767.000000
801627.000000
802441.000000
803320.000000
804401.000000
805525.000000
806654.000000
807792.000000
808837.000000
809891.000000
810964.000000
812038.000000
813021.000000
814012.000000
815014.000000
815987.000000
816883.000000
817768.000000
818692.000000
819668.000000
820700.000000
821752.000000
822808.000000
823852.000000
824854.000000
825791.000000
826651.000000
827470.000000
828299.000000
829285.000000
830441.000000
831536.000000
832547.000000
833446.000000
834307.000000
835180.000000
836161.000000
837244.000000
838262.000000
839158.000000
840014.000000
840855.000000
841792.000000
842898.000000
843999.000000
844977.000000
845877.000000
846753.000000
847657.000000
848681.000000
849743.000000
850792.000000
851723.000000
852598.000000
853456.000000
854348.000000
855340.000000
856405.000000
857478.000000
858469.000000
859358.000000
860224.000000
861118.000000
862131.000000
863183.000000
864177.000000
865085.000000
865951.000000
866810.000000
867737.000000
868817.000000
869910.000000
870844.000000
871730.000000
872623.000000
873619.000000
874707.000000
875786.000000
876832.000000
877783.000000
878679.000000
879585.000000
880600.000000
881692.000000
882774.000000
883717.000000
884640.000000
885592.000000
886559.000000
887429.000000
888272.000000
889146.000000
890184.000000
891353.000000
892417.000000
893347.000000
894225.000000
895099.000000
896047.000000
897072.000000
898109.000000
899097.000000
899989.000000
900849.000000
901751.000000
902815.000000
903943.000000
904982.000000
905892.000000
906801.000000
