ECG (ms)
214.000000
841.000000
1473.000000
2118.000000
2764.000000
3426.000000
4092.000000
4754.000000
5412.000000
6068.000000
6718.000000
7353.000000
7985.000000
8613.000000
9240.000000
9861.000000
10496.000000
11135.000000
11781.000000
12422.000000
13075.000000
13732.000000
14389.000000
15043.000000
15694.000000
16342.000000
16990.000000
17634.000000
18278.000000
18917.000000
19566.000000
20213.000000
20865.000000
21519.000000
22158.000000
22791.000000
23409.000000
24017.000000
24626.000000
25237.000000
25857.000000
26483.000000
27129.000000
27782.000000
28436.000000
29107.000000
29785.000000
30461.000000
31121.000000
31779.000000
32430.000000
33083.000000
33742.000000
34396.000000
35075.000000
35770.000000
36477.000000
37177.000000
37894.000000
38608.000000
39317.000000
40020.000000
40695.000000
41369.000000
42040.000000
42715.000000
43397.000000
44079.000000
44751.000000
45419.000000
46091.000000
46763.000000
47434.000000
48090.000000
48735.000000
49387.000000
50038.000000
50691.000000
51340.000000
51994.000000
52662.000000
53341.000000
54006.000000
54686.000000
55347.000000
56012.000000
56672.000000
57328.000000
57977.000000
58626.000000
59273.000000
59924.000000
60572.000000
61214.000000
61855.000000
62494.000000
63135.000000
63776.000000
64427.000000
65076.000000
65728.000000
66387.000000
67048.000000
67699.000000
68341.000000
68983.000000
69625.000000
70272.000000
70924.000000
71575.000000
72217.000000
72858.000000
73505.000000
74159.000000
74820.000000
75495.000000
76163.000000
76830.000000
77515.000000
78197.000000
78867.000000
79530.000000
80197.000000
80855.000000
81517.000000
82169.000000
82824.000000
83489.000000
84160.000000
84831.000000
85506.000000
86183.000000
86852.000000
87523.000000
88203.000000
88895.000000
89573.000000
90254.000000
90936.000000
91608.000000
92280.000000
92949.000000
93630.000000
94302.000000
94982.000000
95670.000000
96368.000000
97050.000000
97731.000000
98422.000000
99118.000000
99795.000000
100479.000000
101165.000000
101838.000000
102500.000000
103148.000000
103782.000000
104410.000000
105039.000000
105670.000000
106314.000000
106967.000000
107641.000000
108323.000000
108994.000000
109669.000000
110360.000000
111046.000000
111734.000000
112413.000000
113105.000000
113802.000000
114498.000000
115185.000000
115872.000000
116560.000000
117243.000000
117914.000000
118583.000000
119236.000000
119894.000000
120562.000000
121247.000000
121981.000000
122715.000000
123451.000000
124151.000000
124877.000000
125615.000000
126346.000000
127061.000000
127785.000000
128514.000000
129222.000000
129913.000000
130596.000000
131274.000000
131950.000000
132625.000000
133290.000000
133952.000000
134610.000000
135273.000000
135942.000000
136612.000000
137277.000000
137931.000000
138579.000000
139226.000000
139874.000000
140535.000000
141195.000000
141846.000000
142492.000000
143134.000000
143780.000000
144425.000000
145068.000000
145708.000000
146338.000000
146966.000000
147590.000000
148218.000000
148847.000000
149483.000000
150121.000000
150766.000000
151415.000000
152060.000000
152708.000000
153351.000000
153998.000000
154644.000000
155290.000000
155927.000000
156566.000000
157203.000000
157835.000000
158461.000000
159091.000000
159724.000000
160361.000000
161005.000000
161653.000000
162295.000000
162931.000000
163569.000000
164208.000000
164849.000000
165497.000000
166146.000000
166791.000000
167449.000000
168106.000000
168761.000000
169407.000000
170053.000000
170698.000000
171346.000000
172004.000000
172658.000000
173330.000000
173999.000000
174661.000000
175319.000000
175980.000000
176638.000000
177298.000000
177950.000000
178601.000000
179257.000000
179911.000000
180558.000000
181202.000000
181843.000000
182485.000000
183125.000000
183769.000000
184407.000000
185038.000000
185670.000000
186307.000000
186950.000000
187607.000000
188254.000000
188897.000000
189537.000000
190177.000000
190814.000000
191455.000000
192086.000000
192713.000000
193340.000000
193966.000000
194594.000000
195225.000000
195858.000000
196491.000000
197118.000000
197752.000000
198388.000000
199035.000000
199675.000000
200317.000000
200952.000000
201592.000000
202234.000000
202875.000000
203518.000000
204154.000000
204788.000000
205428.000000
206074.000000
206728.000000
207382.000000
208032.000000
208673.000000
209302.000000
209930.000000
210555.000000
211181.000000
211819.000000
212462.000000
213108.000000
213758.000000
214415.000000
215080.000000
215748.000000
216407.000000
217051.000000
217690.000000
218322.000000
218945.000000
219566.000000
220184.000000
220801.000000
221426.000000
222058.000000
222710.000000
223358.000000
223999.000000
224642.000000
225287.000000
225928.000000
226577.000000
227218.000000
227859.000000
228501.000000
229143.000000
229790.000000
230433.000000
231075.000000
231711.000000
232348.000000
232990.000000
233642.000000
234298.000000
234950.000000
235605.000000
236270.000000
236938.000000
237595.000000
238246.000000
238891.000000
239535.000000
240184.000000
240831.000000
241478.000000
242122.000000
242748.000000
243372.000000
244009.000000
244643.000000
245279.000000
245917.000000
246555.000000
247196.000000
247832.000000
248470.000000
249116.000000
249769.000000
250440.000000
251123.000000
251794.000000
252466.000000
253149.000000
253853.000000
254548.000000
255235.000000
255919.000000
256616.000000
257317.000000
258016.000000
258708.000000
259408.000000
260130.000000
260849.000000
261541.000000
262232.000000
262918.000000
263603.000000
264275.000000
264941.000000
265618.000000
266296.000000
266969.000000
267632.000000
268296.000000
268959.000000
269628.000000
270301.000000
270980.000000
271655.000000
272322.000000
272992.000000
273665.000000
274349.000000
275033.000000
275699.000000
276359.000000
277014.000000
277665.000000
278319.000000
278975.000000
279638.000000
280305.000000
280979.000000
281653.000000
282317.000000
282979.000000
283635.000000
284295.000000
284956.000000
285622.000000
286292.000000
286954.000000
287614.000000
288270.000000
288926.000000
289585.000000
290246.000000
290914.000000
291587.000000
292254.000000
292912.000000
293564.000000
294220.000000
294868.000000
295518.000000
296172.000000
296829.000000
297476.000000
298122.000000
298766.000000
299418.000000
300071.000000
300727.000000
301382.000000
302034.000000
302685.000000
303332.000000
303979.000000
304626.000000
305277.000000
305922.000000
306565.000000
307211.000000
307862.000000
308516.000000
309178.000000
309841.000000
310502.000000
311165.000000
311825.000000
312478.000000
313120.000000
313747.000000
314362.000000
314976.000000
315593.000000
316217.000000
316852.000000
317492.000000
318137.000000
318782.000000
319428.000000
320079.000000
320741.000000
321415.000000
322086.000000
322762.000000
323440.000000
324123.000000
324810.000000
325496.000000
326166.000000
326833.000000
327502.000000
328184.000000
328866.000000
329557.000000
330278.000000
330973.000000
331664.000000
332351.000000
333042.000000
333727.000000
334400.000000
335070.000000
335737.000000
336394.000000
337047.000000
337695.000000
338347.000000
339007.000000
339686.000000
340379.000000
341056.000000
341744.000000
342440.000000
343125.000000
343797.000000
344468.000000
345135.000000
345811.000000
346469.000000
347131.000000
347790.000000
348448.000000
349106.000000
349766.000000
350429.000000
351100.000000
351769.000000
352446.000000
353124.000000
353798.000000
354470.000000
355142.000000
355814.000000
356474.000000
357135.000000
357793.000000
358456.000000
359114.000000
359777.000000
360443.000000
361117.000000
361786.000000
362457.000000
363137.000000
363824.000000
364500.000000
365168.000000
365835.000000
366501.000000
367174.000000
367845.000000
368512.000000
369174.000000
369832.000000
370495.000000
371167.000000
371849.000000
372521.000000
373192.000000
373857.000000
374528.000000
375203.000000
375872.000000
376537.000000
377202.000000
377869.000000
378543.000000
379225.000000
379900.000000
380566.000000
381240.000000
381915.000000
382582.000000
383241.000000
383897.000000
384555.000000
385220.000000
385893.000000
386582.000000
387274.000000
387948.000000
388622.000000
389282.000000
389949.000000
390614.000000
391282.000000
391953.000000
392623.000000
393295.000000
393981.000000
394669.000000
395358.000000
396039.000000
396722.000000
397406.000000
398086.000000
398773.000000
399462.000000
400134.000000
400805.000000
401476.000000
402164.000000
402860.000000
403547.000000
404239.000000
404939.000000
405672.000000
406389.000000
407095.000000
407797.000000
408505.000000
409220.000000
409920.000000
410604.000000
411272.000000
411941.000000
412607.000000
413272.000000
413947.000000
414616.000000
415294.000000
415970.000000
416642.000000
417317.000000
417994.000000
418672.000000
419340.000000
420003.000000
420669.000000
421339.000000
422015.000000
422703.000000
423382.000000
424047.000000
424705.000000
425364.000000
426017.000000
426675.000000
427337.000000
427989.000000
428646.000000
429306.000000
429977.000000
430659.000000
431342.000000
432011.000000
432679.000000
433342.000000
434007.000000
434672.000000
435339.000000
436013.000000
436692.000000
437364.000000
438043.000000
438732.000000
439429.000000
440111.000000
440785.000000
441451.000000
442113.000000
442771.000000
443434.000000
444102.000000
444774.000000
445458.000000
446153.000000
446831.000000
447513.000000
448196.000000
448879.000000
449554.000000
450218.000000
450886.000000
451553.000000
452226.000000
452920.000000
453606.000000
454294.000000
454983.000000
455683.000000
456365.000000
457057.000000
457739.000000
458414.000000
459081.000000
459749.000000
460411.000000
461072.000000
461730.000000
462385.000000
463043.000000
463697.000000
464344.000000
464976.000000
465607.000000
466244.000000
466888.000000
467528.000000
468170.000000
468816.000000
469461.000000
470105.000000
470751.000000
471395.000000
472044.000000
472693.000000
473341.000000
473991.000000
474646.000000
475308.000000
475972.000000
476628.000000
477283.000000
477935.000000
478585.000000
479235.000000
479880.000000
480529.000000
481192.000000
481877.000000
482583.000000
483274.000000
483961.000000
484656.000000
485355.000000
486051.000000
486734.000000
487403.000000
488071.000000
488729.000000
489386.000000
490030.000000
490678.000000
491326.000000
491980.000000
492655.000000
493334.000000
494007.000000
494677.000000
495347.000000
496025.000000
496707.000000
497380.000000
498048.000000
498709.000000
499370.000000
500030.000000
500690.000000
501342.000000
501989.000000
502636.000000
503285.000000
503940.000000
504609.000000
505287.000000
505979.000000
506666.000000
507355.000000
508057.000000
508756.000000
509435.000000
510117.000000
510792.000000
511470.000000
512134.000000
512790.000000
513445.000000
514098.000000
514756.000000
515418.000000
516074.000000
516727.000000
517383.000000
518045.000000
518710.000000
519379.000000
520047.000000
520709.000000
521374.000000
522038.000000
522694.000000
523347.000000
523996.000000
524642.000000
525282.000000
525931.000000
526576.000000
527223.000000
527865.000000
528516.000000
529170.000000
529849.000000
530549.000000
531229.000000
531907.000000
532587.000000
533265.000000
533937.000000
534605.000000
535278.000000
535966.000000
536659.000000
537331.000000
538004.000000
538679.000000
539355.000000
540040.000000
540712.000000
541378.000000
542047.000000
542717.000000
543390.000000
544070.000000
544744.000000
545410.000000
546084.000000
546763.000000
547446.000000
548121.000000
548804.000000
549492.000000
550179.000000
550857.000000
551536.000000
552215.000000
552891.000000
553559.000000
554230.000000
554905.000000
555585.000000
556264.000000
556936.000000
557613.000000
558301.000000
559007.000000
559699.000000
560392.000000
561083.000000
561786.000000
562503.000000
563209.000000
563900.000000
564588.000000
565276.000000
565960.000000
566649.000000
567338.000000
568014.000000
568703.000000
569396.000000
570095.000000
570788.000000
571480.000000
572178.000000
572874.000000
573581.000000
574287.000000
574984.000000
575667.000000
576348.000000
577027.000000
577713.000000
578415.000000
579098.000000
579783.000000
580468.000000
581150.000000
581833.000000
582524.000000
583212.000000
583893.000000
584570.000000
585250.000000
585940.000000
586629.000000
587319.000000
588002.000000
588677.000000
589350.000000
590022.000000
590704.000000
591393.000000
592093.000000
592784.000000
593464.000000
594140.000000
594821.000000
595503.000000
596191.000000
596880.000000
597560.000000
598236.000000
598905.000000
599566.000000
600209.000000
600858.000000
601507.000000
602157.000000
602805.000000
603455.000000
604106.000000
604771.000000
605445.000000
606136.000000
606843.000000
607538.000000
608227.000000
608911.000000
609593.000000
610279.000000
610979.000000
611692.000000
612414.000000
613137.000000
613853.000000
614554.000000
615249.000000
615935.000000
616631.000000
617337.000000
618057.000000
618784.000000
619523.000000
620256.000000
620981.000000
621700.000000
622408.000000
623114.000000
623825.000000
624518.000000
625209.000000
625896.000000
626587.000000
627288.000000
627989.000000
628695.000000
629404.000000
630111.000000
630805.000000
631501.000000
632200.000000
632906.000000
633597.000000
634292.000000
634981.000000
635669.000000
636345.000000
637028.000000
637715.000000
638411.000000
639094.000000
639778.000000
640459.000000
641141.000000
641812.000000
642480.000000
643154.000000
643843.000000
644537.000000
645218.000000
645903.000000
646590.000000
647275.000000
647954.000000
648633.000000
649320.000000
650000.000000
650676.000000
651351.000000
652026.000000
652709.000000
653383.000000
654052.000000
654716.000000
655377.000000
656028.000000
656685.000000
657344.000000
658017.000000
658700.000000
659382.000000
660073.000000
660773.000000
661458.000000
662139.000000
662813.000000
663493.000000
664169.000000
664840.000000
665513.000000
666196.000000
666893.000000
667590.000000
668277.000000
668963.000000
669653.000000
670330.000000
671004.000000
671672.000000
672342.000000
673028.000000
673717.000000
674431.000000
675172.000000
675894.000000
676607.000000
677316.000000
678028.000000
678742.000000
679444.000000
680138.000000
680836.000000
681546.000000
682248.000000
682943.000000
683643.000000
684362.000000
685097.000000
685811.000000
686519.000000
687225.000000
687932.000000
688629.000000
689317.000000
690004.000000
690694.000000
691385.000000
692072.000000
692755.000000
693437.000000
694122.000000
694807.000000
695495.000000
696172.000000
696845.000000
697515.000000
698187.000000
698864.000000
699561.000000
700247.000000
700930.000000
701609.000000
702287.000000
702975.000000
703675.000000
704373.000000
705060.000000
705744.000000
706427.000000
707116.000000
707798.000000
708474.000000
709157.000000
709839.000000
710535.000000
711254.000000
711976.000000
712679.000000
713378.000000
714071.000000
714768.000000
715477.000000
716204.000000
716920.000000
717627.000000
718327.000000
719031.000000
719737.000000
720445.000000
721152.000000
721853.000000
722549.000000
723248.000000
723946.000000
724653.000000
725381.000000
726111.000000
726821.000000
727527.000000
728237.000000
728945.000000
729672.000000
730388.000000
731099.000000
731800.000000
732494.000000
733178.000000
733867.000000
734581.000000
735298.000000
736025.000000
736733.000000
737455.000000
738175.000000
738912.000000
739631.000000
740346.000000
741067.000000
741786.000000
742487.000000
743197.000000
743900.000000
744603.000000
745302.000000
746002.000000
746710.000000
747423.000000
748122.000000
748820.000000
749523.000000
750234.000000
750948.000000
751652.000000
752358.000000
753076.000000
753813.000000
754544.000000
755256.000000
755961.000000
756681.000000
757409.000000
758119.000000
758818.000000
759526.000000
760251.000000
760963.000000
761675.000000
762396.000000
763118.000000
763832.000000
764526.000000
765226.000000
765926.000000
766633.000000
767325.000000
768021.000000
768719.000000
769428.000000
770128.000000
770832.000000
771546.000000
772256.000000
772950.000000
773642.000000
774328.000000
775014.000000
775691.000000
776352.000000
776996.000000
777641.000000
778281.000000
778912.000000
779537.000000
780166.000000
780798.000000
781441.000000
782095.000000
782755.000000
783421.000000
784106.000000
784790.000000
785468.000000
786156.000000
786849.000000
787534.000000
788219.000000
788913.000000
789610.000000
790299.000000
790996.000000
791704.000000
792411.000000
793108.000000
793811.000000
794515.000000
795217.000000
795926.000000
796655.000000
797384.000000
798095.000000
798786.000000
799481.000000
800172.000000
800876.000000
801577.000000
802278.000000
802986.000000
803707.000000
804470.000000
805245.000000
805994.000000
806726.000000
807459.000000
808200.000000
808943.000000
809662.000000
810381.000000
811094.000000
811814.000000
812547.000000
813299.000000
814041.000000
814780.000000
815532.000000
816270.000000
817005.000000
817732.000000
818446.000000
819160.000000
819867.000000
820584.000000
821292.000000
822006.000000
822732.000000
823492.000000
824276.000000
825061.000000
825814.000000
826546.000000
827274.000000
828005.000000
828732.000000
829441.000000
830137.000000
830842.000000
831548.000000
832277.000000
833000.000000
833713.000000
834433.000000
835150.000000
835905.000000
836656.000000
837377.000000
838108.000000
838841.000000
839580.000000
840324.000000
841035.000000
841739.000000
842448.000000
843167.000000
843919.000000
844673.000000
845398.000000
846115.000000
846831.000000
847551.000000
848275.000000
848986.000000
849696.000000
850404.000000
851109.000000
851819.000000
852535.000000
853247.000000
853958.000000
854689.000000
855449.000000
856226.000000
856994.000000
857763.000000
858523.000000
859272.000000
859998.000000
860720.000000
861438.000000
862171.000000
862912.000000
863643.000000
864372.000000
865117.000000
865872.000000
866618.000000
867347.000000
868089.000000
868831.000000
869555.000000
870277.000000
870999.000000
871739.000000
872462.000000
873172.000000
873884.000000
874612.000000
875351.000000
876060.000000
876765.000000
877470.000000
878181.000000
878883.000000
879571.000000
880270.000000
880968.000000
881676.000000
882371.000000
883056.000000
883755.000000
884453.000000
885157.000000
885857.000000
886545.000000
887247.000000
887948.000000
888655.000000
889359.000000
890047.000000
890744.000000
891435.000000
892124.000000
892811.000000
893488.000000
894160.000000
894833.000000
895517.000000
896227.000000
896922.000000
897616.000000
898319.000000
899048.000000
899792.000000
900514.000000
901227.000000
901943.000000
902661.000000
903356.000000
904048.000000
904743.000000
905440.000000
906142.000000
906826.000000
907494.000000
908147.000000
908797.000000
909455.000000
910111.000000
910770.000000
911434.000000
912114.000000
912787.000000
913461.000000
914135.000000
914813.000000
915483.000000
916160.000000
916854.000000
917570.000000
918275.000000
918985.000000
919708.000000
920455.000000
921180.000000
921890.000000
922595.000000
923301.000000
924017.000000
924724.000000
925420.000000
926122.000000
926825.000000
927548.000000
928276.000000
928998.000000
929722.000000
930475.000000
931243.000000
932031.000000
932790.000000
933525.000000
934260.000000
934997.000000
935734.000000
936486.000000
937228.000000
937946.000000
938678.000000
939427.000000
940182.000000
940917.000000
941663.000000
942433.000000
943187.000000
943926.000000
944677.000000
945441.000000
946191.000000
946927.000000
947663.000000
948395.000000
949122.000000
949847.000000
950584.000000
951331.000000
952068.000000
952793.000000
953515.000000
954246.000000
954964.000000
955662.000000
956360.000000
957059.000000
957785.000000
958542.000000
959281.000000
960046.000000
960817.000000
961616.000000
962394.000000
963149.000000
963897.000000
964660.000000
965413.000000
966140.000000
966869.000000
967601.000000
968346.000000
969101.000000
969855.000000
970587.000000
971312.000000
972038.000000
972772.000000
973509.000000
974230.000000
974941.000000
975649.000000
976363.000000
977086.000000
977824.000000
978544.000000
979258.000000
979976.000000
980703.000000
981459.000000
982205.000000
982932.000000
983652.000000
984375.000000
985105.000000
985848.000000
986576.000000
987298.000000
988023.000000
988764.000000
989494.000000
990228.000000
990983.000000
991752.000000
992521.000000
993276.000000
994028.000000
994789.000000
995531.000000
996267.000000
996987.000000
997727.000000
998495.000000
999248.000000
999989.000000
1000735.000000
1001500.000000
1002262.000000
1003010.000000
1003741.000000
1004468.000000
1005204.000000
1005919.000000
1006625.000000
1007337.000000
1008076.000000
1008852.000000
1009588.000000
1010346.000000
1011118.000000
1011863.000000
1012585.000000
1013318.000000
1014051.000000
1014758.000000
1015466.000000
1016183.000000
1016916.000000
1017635.000000
1018345.000000
1019059.000000
1019780.000000
1020493.000000
1021191.000000
1021902.000000
1022614.000000
1023321.000000
1024018.000000
1024720.000000
1025425.000000
1026116.000000
1026806.000000
1027493.000000
1028179.000000
1028860.000000
1029541.000000
1030228.000000
1030913.000000
1031585.000000
1032268.000000
1032954.000000
1033651.000000
1034331.000000
1035013.000000
1035696.000000
1036382.000000
1037061.000000
1037738.000000
1038423.000000
1039115.000000
1039796.000000
1040479.000000
1041164.000000
1041855.000000
1042535.000000
1043218.000000
1043899.000000
1044583.000000
1045269.000000
1045953.000000
1046639.000000
1047336.000000
1048067.000000
1048786.000000
1049492.000000
1050205.000000
1050932.000000
1051645.000000
1052339.000000
1053034.000000
1053729.000000
1054430.000000
1055140.000000
1055839.000000
1056530.000000
1057232.000000
1057940.000000
1058657.000000
1059356.000000
1060056.000000
1060762.000000
1061477.000000
1062186.000000
1062887.000000
1063593.000000
1064306.000000
1065052.000000
1065776.000000
1066497.000000
1067213.000000
1067940.000000
1068676.000000
1069399.000000
1070121.000000
1070823.000000
1071532.000000
1072245.000000
1072969.000000
1073683.000000
1074392.000000
1075097.000000
1075800.000000
1076515.000000
1077227.000000
1077937.000000
1078654.000000
1079401.000000
1080192.000000
1080963.000000
1081715.000000
1082446.000000
1083185.000000
1083930.000000
1084678.000000
1085418.000000
1086173.000000
1086934.000000
1087718.000000
1088491.000000
1089248.000000
1089994.000000
1090757.000000
1091544.000000
1092304.000000
1093053.000000
1093808.000000
1094575.000000
1095335.000000
1096117.000000
1096867.000000
1097640.000000
1098405.000000
1099147.000000
1099874.000000
1100612.000000
1101356.000000
1102084.000000
1102820.000000
1103573.000000
1104316.000000
1105048.000000
1105791.000000
1106540.000000
1107281.000000
1108018.000000
1108775.000000
1109525.000000
1110256.000000
1110973.000000
1111690.000000
1112403.000000
1113119.000000
1113825.000000
1114532.000000
1115232.000000
1115951.000000
1116694.000000
1117452.000000
1118184.000000
1118900.000000
1119615.000000
1120320.000000
1121027.000000
1121728.000000
1122421.000000
1123110.000000
1123802.000000
1124504.000000
1125222.000000
1125941.000000
1126652.000000
1127351.000000
1128047.000000
1128744.000000
1129447.000000
1130155.000000
1130858.000000
1131549.000000
1132242.000000
1132938.000000
1133644.000000
1134355.000000
1135058.000000
1135761.000000
1136459.000000
1137168.000000
1137889.000000
1138612.000000
1139340.000000
1140063.000000
1140765.000000
1141468.000000
1142169.000000
1142883.000000
1143622.000000
1144391.000000
1145167.000000
1145968.000000
1146750.000000
1147501.000000
1148262.000000
1149011.000000
1149760.000000
1150480.000000
1151199.000000
1151919.000000
1152657.000000
1153404.000000
1154164.000000
1154899.000000
1155674.000000
1156480.000000
1157242.000000
1158000.000000
1158816.000000
1159570.000000
1160324.000000
1161052.000000
1161806.000000
1162546.000000
1163281.000000
1163999.000000
1164718.000000
1165434.000000
1166168.000000
1166932.000000
1167680.000000
1168424.000000
1169167.000000
1169937.000000
1170712.000000
1171486.000000
1172232.000000
1172957.000000
1173681.000000
1174411.000000
1175158.000000
1175926.000000
1176676.000000
1177404.000000
1178127.000000
1178858.000000
1179602.000000
1180355.000000
1181102.000000
1181840.000000
1182566.000000
1183282.000000
1183997.000000
1184732.000000
1185501.000000
1186277.000000
1187025.000000
1187764.000000
1188489.000000
1189208.000000
1189935.000000
1190687.000000
1191449.000000
1192206.000000
1192943.000000
1193676.000000
1194420.000000
1195173.000000
1195934.000000
1196692.000000
1197419.000000
1198139.000000
1198854.000000
1199566.000000
1200306.000000
1201054.000000
