ECG (ms)
499.000000
1302.000000
2103.000000
2900.000000
3697.000000
4502.000000
5308.000000
6103.000000
6887.000000
7683.000000
8488.000000
9296.000000
10102.000000
10906.000000
11713.000000
12536.000000
13362.000000
14175.000000
14980.000000
15792.000000
16603.000000
17404.000000
18187.000000
18982.000000
19783.000000
20583.000000
21374.000000
22169.000000
22982.000000
23798.000000
24621.000000
25441.000000
26256.000000
27077.000000
27899.000000
28710.000000
29510.000000
30318.000000
31129.000000
31945.000000
32752.000000
33551.000000
34348.000000
35156.000000
35969.000000
36779.000000
37574.000000
38370.000000
39177.000000
40001.000000
40836.000000
41657.000000
42477.000000
43301.000000
44124.000000
44942.000000
45732.000000
46527.000000
47329.000000
48142.000000
48954.000000
49763.000000
50573.000000
51401.000000
52228.000000
53039.000000
53840.000000
54647.000000
55450.000000
56240.000000
57020.000000
57802.000000
58587.000000
59373.000000
60156.000000
60944.000000
61745.000000
62564.000000
63386.000000
64195.000000
65006.000000
65836.000000
66658.000000
67464.000000
68263.000000
69072.000000
69877.000000
70669.000000
71468.000000
72268.000000
73065.000000
73853.000000
74642.000000
75437.000000
76226.000000
77009.000000
77792.000000
78595.000000
79402.000000
80204.000000
81001.000000
81810.000000
82624.000000
83426.000000
84224.000000
85026.000000
85819.000000
86602.000000
87396.000000
88189.000000
88982.000000
89771.000000
90561.000000
91366.000000
92161.000000
92954.000000
93757.000000
94551.000000
95330.000000
96102.000000
96877.000000
97656.000000
98429.000000
99201.000000
99983.000000
100774.000000
101568.000000
102360.000000
103156.000000
103964.000000
104772.000000
105562.000000
106343.000000
107128.000000
107913.000000
108693.000000
109466.000000
110243.000000
111029.000000
111817.000000
112593.000000
113374.000000
114191.000000
115009.000000
115815.000000
116603.000000
117392.000000
118175.000000
118940.000000
119695.000000
120449.000000
121209.000000
121976.000000
122738.000000
123519.000000
124324.000000
125129.000000
125933.000000
126732.000000
127542.000000
128353.000000
129147.000000
129933.000000
130724.000000
131513.000000
132294.000000
133063.000000
133824.000000
134595.000000
135367.000000
136144.000000
136922.000000
137699.000000
138481.000000
139272.000000
140059.000000
140835.000000
141613.000000
142398.000000
143173.000000
143937.000000
144708.000000
145482.000000
146257.000000
147027.000000
147804.000000
148582.000000
149355.000000
150128.000000
150914.000000
151703.000000
152482.000000
153261.000000
154043.000000
154826.000000
155598.000000
156375.000000
157162.000000
157946.000000
158728.000000
159517.000000
160316.000000
161104.000000
161884.000000
162669.000000
163458.000000
164238.000000
165010.000000
165783.000000
166565.000000
167349.000000
168147.000000
168946.000000
169754.000000
170572.000000
171391.000000
172198.000000
172994.000000
173791.000000
174589.000000
175380.000000
176160.000000
176947.000000
177738.000000
178535.000000
179319.000000
180108.000000
180902.000000
181700.000000
182490.000000
183283.000000
184079.000000
184873.000000
185655.000000
186439.000000
187230.000000
188009.000000
188785.000000
189566.000000
190360.000000
191157.000000
191952.000000
192742.000000
193547.000000
194346.000000
195138.000000
195927.000000
196718.000000
197505.000000
198282.000000
199047.000000
199815.000000
200585.000000
201355.000000
202125.000000
202902.000000
203689.000000
204487.000000
205282.000000
206091.000000
206907.000000
207725.000000
208530.000000
209334.000000
210147.000000
210959.000000
211755.000000
212543.000000
213340.000000
214131.000000
214918.000000
215706.000000
216517.000000
217333.000000
218144.000000
218953.000000
219773.000000
220586.000000
221383.000000
222177.000000
222976.000000
223784.000000
224590.000000
225399.000000
226212.000000
227018.000000
227811.000000
228616.000000
229429.000000
230225.000000
231016.000000
231824.000000
232631.000000
233421.000000
234212.000000
235009.000000
235802.000000
236588.000000
237377.000000
238176.000000
238976.000000
239766.000000
240567.000000
241375.000000
242188.000000
242997.000000
243815.000000
244627.000000
245428.000000
246225.000000
247024.000000
247820.000000
248617.000000
249401.000000
250192.000000
251002.000000
251817.000000
252626.000000
253445.000000
254273.000000
255086.000000
255880.000000
256671.000000
257472.000000
258261.000000
259036.000000
259822.000000
260610.000000
261399.000000
262177.000000
262966.000000
263769.000000
264573.000000
265374.000000
266187.000000
267001.000000
267798.000000
268593.000000
269390.000000
270180.000000
270967.000000
271747.000000
272531.000000
273317.000000
274110.000000
274897.000000
275702.000000
276509.000000
277320.000000
278127.000000
278949.000000
279768.000000
280572.000000
281368.000000
282171.000000
282970.000000
283759.000000
284557.000000
285361.000000
286160.000000
286964.000000
287780.000000
288603.000000
289415.000000
290218.000000
291022.000000
291818.000000
292599.000000
293385.000000
294172.000000
294962.000000
295755.000000
296558.000000
297374.000000
298185.000000
298994.000000
299811.000000
300629.000000
301442.000000
302247.000000
303055.000000
303864.000000
304652.000000
305444.000000
306242.000000
307046.000000
307845.000000
308649.000000
309463.000000
310282.000000
311090.000000
311899.000000
312708.000000
313509.000000
314296.000000
315086.000000
315880.000000
316677.000000
317480.000000
318271.000000
319067.000000
319870.000000
320676.000000
321482.000000
322287.000000
323111.000000
323940.000000
324753.000000
325560.000000
326373.000000
327186.000000
327981.000000
328768.000000
329566.000000
330354.000000
331133.000000
331919.000000
332718.000000
333532.000000
334343.000000
335150.000000
335970.000000
336788.000000
337595.000000
338400.000000
339199.000000
340000.000000
340787.000000
341577.000000
342375.000000
343172.000000
343961.000000
344753.000000
345551.000000
346346.000000
347148.000000
347965.000000
348790.000000
349604.000000
350425.000000
351258.000000
352083.000000
352902.000000
353715.000000
354538.000000
355354.000000
356151.000000
356949.000000
357755.000000
358573.000000
359387.000000
360208.000000
361045.000000
361873.000000
362696.000000
363523.000000
364352.000000
365170.000000
365980.000000
366796.000000
367609.000000
368411.000000
369221.000000
370037.000000
370858.000000
371674.000000
372500.000000
373322.000000
374133.000000
374937.000000
375749.000000
376572.000000
377382.000000
378200.000000
379034.000000
379864.000000
380687.000000
381514.000000
382344.000000
383170.000000
383987.000000
384812.000000
385642.000000
386457.000000
387280.000000
388106.000000
388924.000000
389745.000000
390566.000000
391396.000000
392209.000000
393019.000000
393843.000000
394679.000000
395498.000000
396317.000000
397145.000000
397967.000000
398769.000000
399574.000000
400378.000000
401172.000000
401968.000000
402781.000000
403604.000000
404420.000000
405242.000000
406073.000000
406897.000000
407718.000000
408550.000000
409374.000000
410191.000000
411015.000000
411845.000000
412685.000000
413514.000000
414348.000000
415192.000000
416037.000000
416897.000000
417761.000000
418614.000000
419444.000000
420279.000000
421112.000000
421939.000000
422780.000000
423638.000000
424500.000000
425338.000000
426181.000000
427026.000000
427857.000000
428692.000000
429529.000000
430358.000000
431189.000000
432022.000000
432838.000000
433641.000000
434452.000000
435269.000000
436082.000000
436895.000000
437728.000000
438573.000000
439391.000000
440205.000000
441030.000000
441856.000000
442676.000000
443506.000000
444342.000000
445173.000000
446002.000000
446823.000000
447634.000000
448447.000000
449268.000000
450091.000000
450914.000000
451748.000000
452595.000000
453431.000000
454246.000000
455071.000000
455902.000000
456723.000000
457554.000000
458397.000000
459240.000000
460080.000000
460917.000000
461746.000000
462565.000000
463379.000000
464189.000000
464984.000000
465783.000000
466594.000000
467410.000000
468214.000000
469020.000000
469838.000000
470656.000000
471474.000000
472304.000000
473131.000000
473943.000000
474746.000000
475560.000000
476362.000000
477163.000000
477962.000000
478767.000000
479587.000000
480401.000000
481204.000000
482004.000000
482808.000000
483609.000000
484401.000000
485198.000000
485996.000000
486794.000000
487592.000000
488411.000000
489226.000000
490025.000000
490823.000000
491621.000000
492419.000000
493210.000000
493983.000000
494756.000000
495538.000000
496298.000000
496999.000000
497682.000000
498404.000000
499144.000000
499879.000000
500625.000000
501378.000000
502138.000000
502889.000000
503629.000000
504365.000000
505117.000000
505896.000000
506668.000000
507432.000000
508186.000000
508949.000000
509750.000000
510545.000000
511343.000000
512164.000000
513001.000000
513831.000000
514647.000000
515436.000000
516205.000000
516961.000000
517720.000000
518526.000000
519396.000000
520265.000000
521154.000000
522026.000000
522857.000000
523672.000000
524486.000000
525282.000000
526073.000000
526848.000000
527620.000000
528388.000000
529183.000000
530027.000000
530881.000000
531746.000000
532587.000000
533410.000000
534230.000000
535065.000000
535884.000000
536649.000000
537413.000000
538205.000000
539049.000000
539883.000000
540724.000000
541562.000000
542369.000000
543140.000000
543922.000000
544703.000000
545465.000000
546201.000000
546958.000000
547739.000000
548490.000000
549237.000000
549994.000000
550755.000000
551510.000000
552248.000000
552986.000000
553711.000000
554438.000000
555152.000000
555880.000000
556615.000000
557342.000000
558063.000000
558778.000000
559513.000000
560243.000000
560946.000000
561626.000000
562341.000000
563070.000000
563797.000000
564514.000000
565259.000000
566008.000000
566741.000000
567467.000000
568207.000000
568959.000000
569725.000000
570488.000000
571273.000000
572098.000000
572914.000000
573711.000000
574518.000000
575328.000000
576143.000000
576933.000000
577721.000000
578522.000000
579309.000000
580091.000000
580874.000000
581665.000000
582470.000000
583274.000000
584082.000000
584896.000000
585698.000000
586502.000000
587315.000000
588138.000000
588952.000000
589761.000000
590567.000000
591352.000000
592109.000000
592858.000000
593634.000000
594435.000000
595257.000000
596087.000000
596921.000000
597718.000000
598507.000000
599288.000000
600053.000000
600812.000000
601591.000000
602384.000000
603175.000000
603952.000000
604729.000000
605507.000000
606270.000000
607022.000000
607801.000000
608596.000000
609363.000000
610115.000000
610870.000000
611637.000000
612380.000000
613115.000000
613877.000000
614638.000000
615387.000000
616113.000000
616834.000000
617587.000000
618355.000000
619149.000000
619931.000000
620715.000000
621508.000000
622312.000000
623115.000000
623897.000000
624672.000000
625440.000000
626223.000000
626997.000000
627783.000000
628605.000000
629466.000000
630305.000000
631145.000000
631986.000000
632830.000000
633652.000000
634429.000000
635191.000000
635946.000000
636687.000000
637443.000000
638245.000000
639116.000000
639970.000000
640834.000000
641696.000000
642519.000000
643315.000000
644111.000000
644913.000000
645700.000000
646488.000000
647266.000000
648049.000000
648820.000000
649585.000000
650357.000000
651121.000000
651889.000000
652691.000000
653484.000000
654281.000000
655071.000000
655892.000000
656722.000000
657535.000000
658332.000000
659138.000000
659962.000000
660782.000000
661596.000000
662427.000000
663248.000000
664063.000000
664836.000000
665603.000000
666382.000000
667180.000000
668006.000000
668864.000000
669750.000000
670595.000000
671428.000000
672264.000000
673061.000000
673833.000000
674625.000000
675429.000000
676236.000000
677048.000000
677861.000000
678673.000000
679484.000000
680272.000000
681068.000000
681862.000000
682641.000000
683432.000000
684236.000000
685056.000000
685844.000000
686629.000000
687423.000000
688199.000000
688970.000000
689763.000000
690540.000000
691299.000000
692053.000000
692819.000000
693591.000000
694358.000000
695129.000000
695928.000000
696744.000000
697543.000000
698336.000000
699138.000000
699932.000000
700733.000000
701548.000000
702378.000000
703192.000000
704016.000000
704841.000000
705644.000000
706401.000000
707150.000000
707921.000000
708724.000000
709512.000000
710296.000000
711118.000000
711969.000000
712783.000000
713601.000000
714436.000000
715266.000000
716087.000000
716916.000000
717746.000000
718560.000000
719342.000000
720126.000000
720935.000000
721755.000000
722586.000000
723442.000000
724293.000000
725113.000000
725955.000000
726778.000000
727578.000000
728363.000000
729163.000000
729992.000000
730838.000000
731687.000000
732529.000000
733360.000000
734164.000000
734995.000000
735833.000000
736664.000000
737497.000000
738311.000000
739090.000000
739846.000000
740617.000000
741410.000000
742207.000000
743011.000000
743842.000000
744673.000000
745467.000000
746263.000000
747066.000000
747840.000000
748596.000000
749351.000000
750094.000000
750838.000000
751568.000000
752311.000000
753063.000000
753832.000000
754583.000000
755347.000000
756122.000000
756895.000000
757654.000000
758410.000000
759172.000000
759946.000000
760710.000000
761490.000000
762284.000000
763077.000000
763854.000000
764635.000000
765421.000000
766186.000000
766956.000000
767745.000000
768543.000000
769333.000000
770125.000000
770907.000000
771686.000000
772448.000000
773202.000000
773971.000000
774745.000000
775519.000000
776275.000000
777022.000000
777812.000000
778621.000000
779411.000000
780192.000000
780954.000000
781731.000000
782505.000000
783285.000000
784041.000000
784799.000000
785580.000000
786394.000000
787185.000000
787960.000000
788744.000000
789551.000000
790377.000000
791197.000000
792016.000000
792848.000000
793650.000000
794457.000000
795272.000000
796098.000000
796926.000000
797750.000000
798577.000000
799406.000000
800220.000000
801037.000000
801865.000000
802681.000000
803494.000000
804321.000000
805130.000000
805908.000000
806684.000000
807494.000000
808342.000000
809172.000000
809989.000000
810839.000000
811660.000000
812460.000000
813269.000000
814095.000000
814910.000000
815713.000000
816529.000000
817355.000000
818175.000000
818968.000000
819749.000000
820542.000000
821340.000000
822169.000000
823043.000000
823946.000000
824818.000000
825693.000000
826541.000000
827363.000000
828164.000000
828990.000000
829850.000000
830706.000000
831538.000000
832394.000000
833237.000000
834040.000000
834836.000000
835650.000000
836489.000000
837326.000000
838176.000000
839034.000000
839877.000000
840718.000000
841561.000000
842392.000000
843226.000000
844068.000000
844911.000000
845704.000000
846489.000000
847290.000000
848079.000000
848866.000000
849689.000000
850576.000000
851457.000000
852336.000000
853229.000000
854104.000000
854948.000000
855777.000000
856587.000000
857394.000000
858200.000000
859014.000000
859841.000000
860677.000000
861524.000000
862365.000000
863170.000000
863970.000000
864761.000000
865545.000000
866317.000000
867097.000000
867904.000000
868713.000000
869523.000000
870337.000000
871147.000000
871963.000000
872782.000000
873606.000000
874401.000000
875188.000000
875961.000000
876721.000000
877483.000000
878284.000000
879139.000000
879976.000000
880838.000000
881675.000000
882502.000000
883313.000000
884134.000000
884953.000000
885766.000000
886592.000000
887413.000000
888226.000000
889034.000000
889854.000000
890656.000000
891471.000000
892302.000000
893125.000000
893959.000000
894814.000000
895679.000000
896535.000000
897395.000000
898208.000000
899003.000000
899786.000000
900594.000000
901448.000000
902294.000000
903138.000000
904011.000000
904873.000000
905710.000000
906570.000000
907422.000000
908261.000000
909094.000000
909930.000000
910765.000000
911560.000000
912343.000000
913137.000000
913951.000000
914775.000000
915661.000000
916513.000000
917347.000000
918191.000000
919018.000000
919819.000000
920602.000000
921403.000000
922239.000000
923045.000000
923843.000000
924635.000000
925432.000000
926198.000000
926962.000000
927719.000000
928468.000000
929208.000000
929959.000000
930721.000000
931479.000000
932227.000000
932996.000000
933776.000000
934555.000000
935344.000000
936149.000000
936950.000000
937749.000000
938562.000000
939396.000000
940240.000000
941070.000000
941886.000000
942712.000000
943536.000000
944380.000000
945238.000000
946091.000000
946938.000000
947813.000000
948647.000000
949483.000000
950307.000000
951154.000000
951974.000000
952760.000000
953510.000000
954270.000000
955030.000000
955798.000000
956562.000000
957341.000000
958144.000000
958957.000000
959799.000000
960666.000000
961535.000000
962363.000000
963200.000000
964035.000000
964862.000000
965694.000000
966527.000000
967329.000000
968116.000000
968932.000000
969774.000000
970659.000000
971543.000000
972449.000000
973330.000000
974150.000000
974978.000000
975819.000000
976677.000000
977504.000000
978277.000000
979067.000000
979853.000000
980655.000000
981493.000000
982365.000000
983198.000000
984002.000000
984804.000000
985622.000000
986418.000000
987208.000000
988019.000000
988857.000000
989677.000000
990473.000000
991252.000000
992022.000000
992803.000000
993623.000000
994471.000000
995289.000000
996113.000000
996921.000000
997723.000000
998498.000000
999283.000000
1000088.000000
1000907.000000
1001746.000000
1002612.000000
1003464.000000
1004323.000000
1005199.000000
1006023.000000
1006803.000000
1007584.000000
1008374.000000
1009175.000000
1009985.000000
1010821.000000
1011683.000000
1012523.000000
1013351.000000
1014189.000000
1015035.000000
1015868.000000
1016703.000000
1017527.000000
1018334.000000
1019133.000000
1019941.000000
1020734.000000
1021536.000000
1022301.000000
1023063.000000
1023840.000000
1024595.000000
1025328.000000
1026100.000000
1026903.000000
1027713.000000
1028537.000000
1029381.000000
1030232.000000
1031061.000000
1031891.000000
1032720.000000
1033536.000000
1034326.000000
1035092.000000
1035854.000000
1036621.000000
1037436.000000
1038298.000000
1039169.000000
1040045.000000
1040919.000000
1041766.000000
1042563.000000
1043351.000000
1044148.000000
1044963.000000
1045796.000000
1046659.000000
1047551.000000
1048427.000000
1049239.000000
1050068.000000
1050900.000000
1051732.000000
1052562.000000
1053386.000000
1054201.000000
1055003.000000
1055752.000000
1056544.000000
1057375.000000
1058203.000000
1059023.000000
1059879.000000
1060748.000000
1061572.000000
1062379.000000
1063170.000000
1063973.000000
1064785.000000
1065595.000000
1066429.000000
1067269.000000
1068138.000000
1068995.000000
1069822.000000
1070633.000000
1071429.000000
1072245.000000
1073045.000000
1073864.000000
1074711.000000
1075559.000000
1076386.000000
1077193.000000
1077982.000000
1078743.000000
1079477.000000
1080231.000000
1081041.000000
1081885.000000
1082749.000000
1083644.000000
1084509.000000
1085326.000000
1086139.000000
1086956.000000
1087758.000000
1088575.000000
1089413.000000
1090212.000000
1090980.000000
1091742.000000
1092536.000000
1093349.000000
1094150.000000
1094979.000000
1095830.000000
1096670.000000
1097513.000000
1098362.000000
1099209.000000
1100026.000000
1100835.000000
1101652.000000
1102459.000000
1103250.000000
1104044.000000
1104871.000000
1105689.000000
1106508.000000
1107305.000000
1108094.000000
1108874.000000
1109653.000000
1110462.000000
1111289.000000
1112093.000000
1112892.000000
1113711.000000
1114541.000000
1115368.000000
1116180.000000
1117006.000000
1117826.000000
1118632.000000
1119407.000000
1120152.000000
1120875.000000
1121596.000000
1122326.000000
1123185.000000
1124000.000000
1124799.000000
1125599.000000
1126397.000000
1127180.000000
1127962.000000
1128743.000000
1129513.000000
1130257.000000
1131016.000000
1131771.000000
1132496.000000
1133193.000000
1133885.000000
1134597.000000
1135350.000000
1136107.000000
1136871.000000
1137665.000000
1138473.000000
1139257.000000
1140060.000000
1140855.000000
1141619.000000
1142356.000000
1143114.000000
1143915.000000
1144744.000000
1145582.000000
1146441.000000
1147283.000000
1148111.000000
1148929.000000
1149755.000000
1150566.000000
1151379.000000
1152199.000000
1153034.000000
1153863.000000
1154674.000000
1155490.000000
1156314.000000
1157109.000000
1157901.000000
1158709.000000
1159533.000000
1160381.000000
1161188.000000
1161988.000000
1162805.000000
1163632.000000
1164440.000000
1165247.000000
1166055.000000
1166867.000000
1167644.000000
1168429.000000
1169220.000000
1169989.000000
1170761.000000
1171552.000000
1172387.000000
1173264.000000
1174137.000000
1175011.000000
1175860.000000
1176685.000000
1177450.000000
1178207.000000
1178941.000000
1179681.000000
1180427.000000
1181189.000000
1181987.000000
1182793.000000
1183606.000000
1184418.000000
1185250.000000
1186083.000000
1186901.000000
1187705.000000
1188501.000000
1189263.000000
1189997.000000
1190723.000000
1191471.000000
1192287.000000
1193139.000000
1194012.000000
1194867.000000
1195703.000000
1196556.000000
1197411.000000
1198251.000000
1199073.000000
1199844.000000
1200600.000000
