ECG (ms)
326.000000
1011.000000
1742.000000
2579.000000
3459.000000
4296.000000
5064.000000
5798.000000
6582.000000
7398.000000
8189.000000
8938.000000
9731.000000
10589.000000
11418.000000
12217.000000
13040.000000
13862.000000
14677.000000
15471.000000
16263.000000
17110.000000
17946.000000
18757.000000
19534.000000
20312.000000
21133.000000
21980.000000
22755.000000
23515.000000
24328.000000
25133.000000
25886.000000
26672.000000
27501.000000
28336.000000
29098.000000
29863.000000
30693.000000
31538.000000
32343.000000
33136.000000
33905.000000
34750.000000
35638.000000
36497.000000
37299.000000
38051.000000
38839.000000
39666.000000
40517.000000
41379.000000
42199.000000
42978.000000
43768.000000
44633.000000
45471.000000
46276.000000
47027.000000
47822.000000
48663.000000
49509.000000
50376.000000
51168.000000
51932.000000
52758.000000
53595.000000
54453.000000
55281.000000
56042.000000
56824.000000
57673.000000
58539.000000
59396.000000
60208.000000
60963.000000
61778.000000
62646.000000
63494.000000
64370.000000
65207.000000
65981.000000
66708.000000
67399.000000
68075.000000
68744.000000
69454.000000
70268.000000
71189.000000
72088.000000
73037.000000
74043.000000
75068.000000
75944.000000
76732.000000
77487.000000
78247.000000
78976.000000
79652.000000
80313.000000
81100.000000
82226.000000
83210.000000
84194.000000
85137.000000
86025.000000
86900.000000
87715.000000
88592.000000
89483.000000
90345.000000
91205.000000
92062.000000
92897.000000
93735.000000
94512.000000
95259.000000
96047.000000
96903.000000
97752.000000
98578.000000
99385.000000
100157.000000
100902.000000
101644.000000
102466.000000
103352.000000
104222.000000
105069.000000
105967.000000
106815.000000
107615.000000
108353.000000
109066.000000
109781.000000
110573.000000
111517.000000
112474.000000
113386.000000
114282.000000
115143.000000
115923.000000
116686.000000
117461.000000
118267.000000
119090.000000
119922.000000
120747.000000
121573.000000
122360.000000
123148.000000
123965.000000
124785.000000
125604.000000
126426.000000
127216.000000
128005.000000
128832.000000
129700.000000
130556.000000
131403.000000
132209.000000
132965.000000
133723.000000
134510.000000
135300.000000
136129.000000
136910.000000
137659.000000
138435.000000
139260.000000
140110.000000
140973.000000
141871.000000
142678.000000
143411.000000
144100.000000
144775.000000
145444.000000
146307.000000
147152.000000
148022.000000
148836.000000
149608.000000
150446.000000
151289.000000
152134.000000
152982.000000
153782.000000
154536.000000
155291.000000
156097.000000
156942.000000
157799.000000
158627.000000
159427.000000
160252.000000
161077.000000
161914.000000
162718.000000
163518.000000
164351.000000
165182.000000
166047.000000
166863.000000
167638.000000
168417.000000
169267.000000
170130.000000
170980.000000
171787.000000
172547.000000
173317.000000
174193.000000
175099.000000
176012.000000
176925.000000
177772.000000
178581.000000
179453.000000
180332.000000
181193.000000
181986.000000
182801.000000
183646.000000
184515.000000
185349.000000
186160.000000
187038.000000
187907.000000
188782.000000
189593.000000
190355.000000
191142.000000
192027.000000
192929.000000
193851.000000
194712.000000
195485.000000
196220.000000
196930.000000
197619.000000
198312.000000
199037.000000
199802.000000
200825.000000
201775.000000
202780.000000
203841.000000
204843.000000
205823.000000
206689.000000
207494.000000
208228.000000
208924.000000
209638.000000
210430.000000
211204.000000
212013.000000
212892.000000
213871.000000
214749.000000
215520.000000
216230.000000
216973.000000
217758.000000
218688.000000
219619.000000
220518.000000
221367.000000
222139.000000
222873.000000
223629.000000
224504.000000
225505.000000
226472.000000
227282.000000
228025.000000
228778.000000
229595.000000
230522.000000
231358.000000
232170.000000
233029.000000
233914.000000
234782.000000
235607.000000
236455.000000
237299.000000
238135.000000
238945.000000
239723.000000
240538.000000
241393.000000
242233.000000
243073.000000
243934.000000
244798.000000
245642.000000
246436.000000
247216.000000
248024.000000
248864.000000
249713.000000
250547.000000
251390.000000
252248.000000
253114.000000
253958.000000
254761.000000
255557.000000
256380.000000
257222.000000
258082.000000
258933.000000
259752.000000
260541.000000
261307.000000
262114.000000
262973.000000
263850.000000
264704.000000
265522.000000
266334.000000
267186.000000
268068.000000
268948.000000
269773.000000
270560.000000
271356.000000
272183.000000
273048.000000
273912.000000
274707.000000
275452.000000
276254.000000
277077.000000
277932.000000
278771.000000
279606.000000
280393.000000
281134.000000
281871.000000
282711.000000
283633.000000
284567.000000
285497.000000
286419.000000
287255.000000
288023.000000
288752.000000
289470.000000
290188.000000
291064.000000
292037.000000
293054.000000
294062.000000
295036.000000
295957.000000
296788.000000
297544.000000
298260.000000
298961.000000
299720.000000
300689.000000
301659.000000
302634.000000
303574.000000
304481.000000
305304.000000
306105.000000
306951.000000
307814.000000
308691.000000
309528.000000
310349.000000
311181.000000
312014.000000
312862.000000
313692.000000
314490.000000
315278.000000
316091.000000
316936.000000
317795.000000
318640.000000
319431.000000
320223.000000
321067.000000
321900.000000
322725.000000
323516.000000
324283.000000
325073.000000
325919.000000
326776.000000
327608.000000
328393.000000
329165.000000
329944.000000
330750.000000
331598.000000
332468.000000
333319.000000
334139.000000
334923.000000
335694.000000
336521.000000
337376.000000
338205.000000
339022.000000
339826.000000
340586.000000
341357.000000
342167.000000
343031.000000
343893.000000
344711.000000
345490.000000
346246.000000
347061.000000
347974.000000
348833.000000
349692.000000
350509.000000
351284.000000
352080.000000
352887.000000
353696.000000
354497.000000
355261.000000
356043.000000
356854.000000
357681.000000
358486.000000
359250.000000
360012.000000
360783.000000
361567.000000
362361.000000
363149.000000
363910.000000
364671.000000
365485.000000
366311.000000
367085.000000
367856.000000
368588.000000
369346.000000
370156.000000
371016.000000
371878.000000
372714.000000
373510.000000
374359.000000
375224.000000
376071.000000
376917.000000
377713.000000
378464.000000
379261.000000
380093.000000
380952.000000
381813.000000
382648.000000
383430.000000
384290.000000
385209.000000
386113.000000
386968.000000
387768.000000
388517.000000
389287.000000
390215.000000
391221.000000
392223.000000
393162.000000
394065.000000
394916.000000
395713.000000
396447.000000
397165.000000
397970.000000
398944.000000
399958.000000
400978.000000
401997.000000
402995.000000
403908.000000
404711.000000
405473.000000
406216.000000
406950.000000
407801.000000
408764.000000
409775.000000
410778.000000
411747.000000
412618.000000
413427.000000
414219.000000
415081.000000
415980.000000
416926.000000
417857.000000
418785.000000
419679.000000
420517.000000
421340.000000
422078.000000
422799.000000
423598.000000
424479.000000
425391.000000
426253.000000
427057.000000
427813.000000
428573.000000
429422.000000
430312.000000
431195.000000
432071.000000
432906.000000
433694.000000
434496.000000
435340.000000
436205.000000
437112.000000
438029.000000
438894.000000
439703.000000
440525.000000
441418.000000
442313.000000
443162.000000
443999.000000
444905.000000
445820.000000
446674.000000
447490.000000
448319.000000
449216.000000
450126.000000
450957.000000
451724.000000
452450.000000
453214.000000
454128.000000
455146.000000
456143.000000
457065.000000
457908.000000
458776.000000
459672.000000
460592.000000
461483.000000
462300.000000
463067.000000
463822.000000
464669.000000
465571.000000
466483.000000
467391.000000
468239.000000
469040.000000
469853.000000
470787.000000
471729.000000
472687.000000
473621.000000
474479.000000
475269.000000
476043.000000
476888.000000
477787.000000
478686.000000
479599.000000
480465.000000
481272.000000
482155.000000
483058.000000
483974.000000
484829.000000
485644.000000
486513.000000
487461.000000
488414.000000
489334.000000
490163.000000
490957.000000
491838.000000
492795.000000
493737.000000
494656.000000
495499.000000
496290.000000
497104.000000
498013.000000
498926.000000
499858.000000
500733.000000
501583.000000
502385.000000
503172.000000
504050.000000
504972.000000
505899.000000
506799.000000
507629.000000
508426.000000
509178.000000
509958.000000
510842.000000
511768.000000
512695.000000
513625.000000
514507.000000
515316.000000
516078.000000
516865.000000
517727.000000
518637.000000
519557.000000
520475.000000
521333.000000
522134.000000
522893.000000
523611.000000
524309.000000
524993.000000
525695.000000
526600.000000
527514.000000
528424.000000
529382.000000
530357.000000
531293.000000
532208.000000
533107.000000
533962.000000
534778.000000
535556.000000
536368.000000
537271.000000
538220.000000
539156.000000
540067.000000
540918.000000
541720.000000
542502.000000
543352.000000
544243.000000
545139.000000
546059.000000
546931.000000
547772.000000
548670.000000
549557.000000
550441.000000
551296.000000
552107.000000
552906.000000
553734.000000
554634.000000
555533.000000
556462.000000
557349.000000
558165.000000
558976.000000
559829.000000
560726.000000
561633.000000
562549.000000
563492.000000
564360.000000
565151.000000
565946.000000
566824.000000
567720.000000
568628.000000
569530.000000
570373.000000
571236.000000
572166.000000
573113.000000
574044.000000
574888.000000
575663.000000
576494.000000
577359.000000
578258.000000
579123.000000
579924.000000
580767.000000
581670.000000
582548.000000
583395.000000
584209.000000
584992.000000
585784.000000
586637.000000
587507.000000
588370.000000
589220.000000
590043.000000
590841.000000
591618.000000
592461.000000
593368.000000
594310.000000
595232.000000
596084.000000
596973.000000
597819.000000
598661.000000
599450.000000
600223.000000
601054.000000
601937.000000
602870.000000
603777.000000
604698.000000
605615.000000
606464.000000
607261.000000
608010.000000
608797.000000
609627.000000
610453.000000
611318.000000
612162.000000
612935.000000
613687.000000
614478.000000
615286.000000
616074.000000
616840.000000
617618.000000
618484.000000
619350.000000
620227.000000
621062.000000
621866.000000
622724.000000
623603.000000
624458.000000
625253.000000
626018.000000
626845.000000
627695.000000
628504.000000
629236.000000
629953.000000
630721.000000
631473.000000
632233.000000
633070.000000
633927.000000
634802.000000
635625.000000
636405.000000
637230.000000
638068.000000
638926.000000
639719.000000
640531.000000
641393.000000
642264.000000
643086.000000
643877.000000
644658.000000
645520.000000
646389.000000
647267.000000
648114.000000
648922.000000
649716.000000
650601.000000
651574.000000
652501.000000
653352.000000
654144.000000
654973.000000
655830.000000
656733.000000
657647.000000
658491.000000
659337.000000
660222.000000
661134.000000
662003.000000
662822.000000
663670.000000
664546.000000
665474.000000
666401.000000
667249.000000
668082.000000
668984.000000
669897.000000
670760.000000
671569.000000
672463.000000
673351.000000
674210.000000
675017.000000
675897.000000
676803.000000
677693.000000
678498.000000
679356.000000
680255.000000
681145.000000
681994.000000
682777.000000
683599.000000
684465.000000
685349.000000
686191.000000
686995.000000
687875.000000
688769.000000
689645.000000
690462.000000
691300.000000
692202.000000
693086.000000
693904.000000
694660.000000
695383.000000
696075.000000
696806.000000
697815.000000
698861.000000
699941.000000
701010.000000
702049.000000
703010.000000
703915.000000
704713.000000
705479.000000
706338.000000
707295.000000
708244.000000
709136.000000
709991.000000
710873.000000
711786.000000
712696.000000
713592.000000
714447.000000
715294.000000
716151.000000
717035.000000
717894.000000
718749.000000
719560.000000
720376.000000
721220.000000
722092.000000
722942.000000
723743.000000
724543.000000
725395.000000
726266.000000
727122.000000
727933.000000
728713.000000
729555.000000
730430.000000
731307.000000
732152.000000
732960.000000
733806.000000
734690.000000
735571.000000
736401.000000
737197.000000
738042.000000
738913.000000
739811.000000
740732.000000
741572.000000
742357.000000
743194.000000
744088.000000
744997.000000
745851.000000
746670.000000
747550.000000
748439.000000
749333.000000
750177.000000
751000.000000
751870.000000
752786.000000
753692.000000
754531.000000
755357.000000
756256.000000
757186.000000
758103.000000
759030.000000
759908.000000
760748.000000
761608.000000
762491.000000
763361.000000
764198.000000
765017.000000
765915.000000
766853.000000
767785.000000
768627.000000
769406.000000
770235.000000
771123.000000
772064.000000
772980.000000
773821.000000
774640.000000
775535.000000
776439.000000
777312.000000
778122.000000
778944.000000
779813.000000
780692.000000
781557.000000
782428.000000
783319.000000
784184.000000
785071.000000
785895.000000
786703.000000
787523.000000
788351.000000
789185.000000
789981.000000
790818.000000
791699.000000
792573.000000
793401.000000
794247.000000
795138.000000
796066.000000
796925.000000
797729.000000
798581.000000
799455.000000
800350.000000
801238.000000
802145.000000
802995.000000
803799.000000
804660.000000
805562.000000
806459.000000
807353.000000
808219.000000
809112.000000
810039.000000
810904.000000
811715.000000
812526.000000
813396.000000
814262.000000
815151.000000
816089.000000
817115.000000
818024.000000
818805.000000
819573.000000
820416.000000
821324.000000
822232.000000
823055.000000
823901.000000
824811.000000
825740.000000
826590.000000
827485.000000
828417.000000
829322.000000
830156.000000
831048.000000
831987.000000
832865.000000
833701.000000
834514.000000
835414.000000
836349.000000
837218.000000
838056.000000
838991.000000
840026.000000
840940.000000
841824.000000
842774.000000
843749.000000
844700.000000
845566.000000
846433.000000
847338.000000
848263.000000
849158.000000
849989.000000
850885.000000
851953.000000
853040.000000
854038.000000
854927.000000
855857.000000
856822.000000
857762.000000
858581.000000
859353.000000
860210.000000
861199.000000
862176.000000
863097.000000
864080.000000
865083.000000
866084.000000
867080.000000
868055.000000
869036.000000
870003.000000
870998.000000
871959.000000
872845.000000
873735.000000
874656.000000
875592.000000
876544.000000
877459.000000
878289.000000
879100.000000
879959.000000
880930.000000
881860.000000
882812.000000
883811.000000
884753.000000
885568.000000
886308.000000
887053.000000
887881.000000
888754.000000
889591.000000
890393.000000
891281.000000
892211.000000
893093.000000
893888.000000
894751.000000
895667.000000
896553.000000
897344.000000
898154.000000
898994.000000
899827.000000
900613.000000
901398.000000
902254.000000
903187.000000
904124.000000
904988.000000
905774.000000
906599.000000
907470.000000
908347.000000
909172.000000
909954.000000
910790.000000
911559.000000
912266.000000
912976.000000
913707.000000
914436.000000
915186.000000
916009.000000
916854.000000
917650.000000
918437.000000
919280.000000
920137.000000
921002.000000
921846.000000
922734.000000
923588.000000
924388.000000
925189.000000
926037.000000
926940.000000
927802.000000
928670.000000
929548.000000
930396.000000
931182.000000
931933.000000
932681.000000
933508.000000
934394.000000
935228.000000
936000.000000
936784.000000
937680.000000
938597.000000
939449.000000
940233.000000
941040.000000
941919.000000
942807.000000
943602.000000
944421.000000
945291.000000
946197.000000
947012.000000
947819.000000
948698.000000
949592.000000
950417.000000
951202.000000
952090.000000
953017.000000
953876.000000
954656.000000
955504.000000
956425.000000
957286.000000
958074.000000
958913.000000
959799.000000
960671.000000
961516.000000
962387.000000
963304.000000
964189.000000
965078.000000
966000.000000
966984.000000
967933.000000
968816.000000
969703.000000
970636.000000
971545.000000
972371.000000
973216.000000
974208.000000
975179.000000
976032.000000
976928.000000
977850.000000
978733.000000
979593.000000
980514.000000
981456.000000
982387.000000
983281.000000
984204.000000
985131.000000
986030.000000
986877.000000
987812.000000
988745.000000
989623.000000
990534.000000
991505.000000
992487.000000
993342.000000
994141.000000
995005.000000
995930.000000
996835.000000
997682.000000
998508.000000
999492.000000
1000526.000000
1001539.000000
1002538.000000
1003563.000000
1004570.000000
1005530.000000
1006526.000000
1007530.000000
1008450.000000
1009265.000000
1010076.000000
1010991.000000
1011986.000000
1012940.000000
1013928.000000
1014958.000000
1015917.000000
1016751.000000
1017599.000000
1018535.000000
1019503.000000
1020423.000000
1021423.000000
1022451.000000
1023479.000000
1024397.000000
1025213.000000
1026091.000000
1027032.000000
1027924.000000
1028766.000000
1029714.000000
1030783.000000
1031818.000000
1032775.000000
1033712.000000
1034736.000000
1035843.000000
1036854.000000
1037741.000000
1038667.000000
1039676.000000
1040712.000000
1041728.000000
1042745.000000
1043764.000000
1044735.000000
1045733.000000
1046730.000000
1047706.000000
1048709.000000
1049771.000000
1050812.000000
1051768.000000
1052661.000000
1053585.000000
1054503.000000
1055371.000000
1056270.000000
1057176.000000
1058031.000000
1058795.000000
1059509.000000
1060199.000000
1060891.000000
1061581.000000
1062325.000000
1063239.000000
1064229.000000
1065213.000000
1066207.000000
1067171.000000
1068002.000000
1068718.000000
1069421.000000
1070198.000000
1071100.000000
1072026.000000
1072946.000000
1073808.000000
1074605.000000
1075397.000000
1076276.000000
1077158.000000
1078041.000000
1078859.000000
1079681.000000
1080556.000000
1081427.000000
1082250.000000
1083016.000000
1083806.000000
1084658.000000
1085540.000000
1086391.000000
1087172.000000
1087959.000000
1088761.000000
1089585.000000
1090431.000000
1091249.000000
1092013.000000
1092806.000000
1093654.000000
1094505.000000
1095321.000000
1096109.000000
1096897.000000
1097724.000000
1098596.000000
1099463.000000
1100305.000000
1101104.000000
1101949.000000
1102792.000000
1103662.000000
1104536.000000
1105338.000000
1106192.000000
1107033.000000
1107916.000000
1108807.000000
1109616.000000
1110365.000000
1111112.000000
1111899.000000
1112773.000000
1113711.000000
1114556.000000
1115452.000000
1116390.000000
1117337.000000
1118280.000000
1119158.000000
1120017.000000
1120919.000000
1121833.000000
1122660.000000
1123474.000000
1124361.000000
1125272.000000
1126139.000000
1127043.000000
1128037.000000
1128972.000000
1129794.000000
1130534.000000
1131284.000000
1132206.000000
1133187.000000
1134083.000000
1134906.000000
1135819.000000
1136809.000000
1137745.000000
1138601.000000
1139500.000000
1140467.000000
1141431.000000
1142297.000000
1143180.000000
1144086.000000
1144974.000000
1145801.000000
1146609.000000
1147481.000000
1148379.000000
1149250.000000
1150062.000000
1150963.000000
1151908.000000
1152780.000000
1153573.000000
1154316.000000
1155023.000000
1155733.000000
1156563.000000
1157516.000000
1158448.000000
1159340.000000
1160138.000000
1160952.000000
1161795.000000
1162675.000000
1163524.000000
1164352.000000
1165223.000000
1166137.000000
1167092.000000
1167991.000000
1168837.000000
1169708.000000
1170611.000000
1171529.000000
1172448.000000
1173309.000000
1174126.000000
1174889.000000
1175630.000000
1176491.000000
1177355.000000
1178223.000000
1179143.000000
1180065.000000
1180921.000000
1181724.000000
1182572.000000
1183444.000000
1184297.000000
1185089.000000
1185924.000000
1186795.000000
1187667.000000
1188511.000000
1189396.000000
1190299.000000
1191132.000000
1191938.000000
1192788.000000
1193647.000000
1194507.000000
1195325.000000
1196122.000000
1196950.000000
1197847.000000
1198770.000000
1199631.000000
1200552.000000
1201513.000000
1202472.000000
1203359.000000
1204254.000000
1205191.000000
1206096.000000
1206981.000000
1207872.000000
1208785.000000
1209701.000000
1210649.000000
1211499.000000
1212271.000000
1213015.000000
1213821.000000
1214716.000000
1215594.000000
1216474.000000
1217492.000000
1218513.000000
1219392.000000
1220200.000000
1221066.000000
1222012.000000
1222966.000000
