ECG (ms)
277.000000
1157.000000
2017.000000
3012.000000
4000.000000
4929.000000
5789.000000
6698.000000
7682.000000
8645.000000
9509.000000
10397.000000
11372.000000
12330.000000
13242.000000
14195.000000
15193.000000
16096.000000
16905.000000
17710.000000
18530.000000
19566.000000
20510.000000
21404.000000
22333.000000
23250.000000
24136.000000
25055.000000
25977.000000
26819.000000
27683.000000
28605.000000
29543.000000
30397.000000
31266.000000
32211.000000
33213.000000
34091.000000
34928.000000
35808.000000
36705.000000
37517.000000
38304.000000
39124.000000
39996.000000
40807.000000
41627.000000
42499.000000
43348.000000
44121.000000
44892.000000
45672.000000
46446.000000
47177.000000
47893.000000
48608.000000
49327.000000
50044.000000
50759.000000
51492.000000
52227.000000
52961.000000
53738.000000
54513.000000
55249.000000
56008.000000
56794.000000
57545.000000
58286.000000
59055.000000
59846.000000
60593.000000
61339.000000
62090.000000
62843.000000
63582.000000
64334.000000
65087.000000
65803.000000
66530.000000
67286.000000
68049.000000
68780.000000
69535.000000
70300.000000
71036.000000
71785.000000
72557.000000
73326.000000
74075.000000
74822.000000
75574.000000
76303.000000
77034.000000
77783.000000
78513.000000
79227.000000
79943.000000
80655.000000
81343.000000
82039.000000
82750.000000
83458.000000
84154.000000
84861.000000
85585.000000
86294.000000
87007.000000
87740.000000
88450.000000
89150.000000
89857.000000
90586.000000
91305.000000
92034.000000
92779.000000
93532.000000
94248.000000
94974.000000
95726.000000
96457.000000
97189.000000
97950.000000
98698.000000
99421.000000
100160.000000
100907.000000
101664.000000
102441.000000
103181.000000
103889.000000
104562.000000
105220.000000
105901.000000
106645.000000
107460.000000
108275.000000
109147.000000
110016.000000
110801.000000
111559.000000
112333.000000
113128.000000
113878.000000
114628.000000
115411.000000
116293.000000
117086.000000
117914.000000
118803.000000
119652.000000
120428.000000
121232.000000
122085.000000
122867.000000
123637.000000
124445.000000
125302.000000
126112.000000
126876.000000
127659.000000
128505.000000
129405.000000
130217.000000
131049.000000
131899.000000
132787.000000
133581.000000
134397.000000
135225.000000
136088.000000
136890.000000
137705.000000
138564.000000
139422.000000
140209.000000
141015.000000
141815.000000
142603.000000
143356.000000
144101.000000
144867.000000
145663.000000
146426.000000
147218.000000
148064.000000
148825.000000
149586.000000
150351.000000
151090.000000
151825.000000
152570.000000
153317.000000
154054.000000
154810.000000
155597.000000
156339.000000
157094.000000
157870.000000
158634.000000
159376.000000
160148.000000
160966.000000
161730.000000
162490.000000
163271.000000
164039.000000
164790.000000
165572.000000
166353.000000
167093.000000
167845.000000
168618.000000
169378.000000
170122.000000
170892.000000
171666.000000
172387.000000
173109.000000
173834.000000
174544.000000
175254.000000
175988.000000
176751.000000
177477.000000
178225.000000
178995.000000
179743.000000
180482.000000
181239.000000
181999.000000
182715.000000
183426.000000
184153.000000
184885.000000
185602.000000
186338.000000
187087.000000
187814.000000
188549.000000
189296.000000
190036.000000
190752.000000
191477.000000
192228.000000
192965.000000
193692.000000
194438.000000
195205.000000
195943.000000
196709.000000
197495.000000
198269.000000
199024.000000
199817.000000
200655.000000
201447.000000
202209.000000
202973.000000
203718.000000
204427.000000
205136.000000
205851.000000
206572.000000
207274.000000
207977.000000
208710.000000
209522.000000
210269.000000
211050.000000
211880.000000
212715.000000
213476.000000
214187.000000
214889.000000
215609.000000
216366.000000
217116.000000
217828.000000
218516.000000
219236.000000
219991.000000
220799.000000
221723.000000
222625.000000
223450.000000
224283.000000
225119.000000
225969.000000
226779.000000
227588.000000
228440.000000
229388.000000
230253.000000
231086.000000
231942.000000
232805.000000
233609.000000
234431.000000
235293.000000
236271.000000
237295.000000
238314.000000
239301.000000
240275.000000
241105.000000
241901.000000
242704.000000
243572.000000
244401.000000
245222.000000
246164.000000
247219.000000
248133.000000
249002.000000
249891.000000
250739.000000
251537.000000
252355.000000
253259.000000
254118.000000
255032.000000
255970.000000
256845.000000
257704.000000
258570.000000
259487.000000
260318.000000
261167.000000
262036.000000
262897.000000
263708.000000
264546.000000
265472.000000
266357.000000
267218.000000
268119.000000
268989.000000
269798.000000
270631.000000
271486.000000
272314.000000
273102.000000
273968.000000
275052.000000
275993.000000
276869.000000
277716.000000
278533.000000
279364.000000
280248.000000
281146.000000
281976.000000
282885.000000
283844.000000
284693.000000
285501.000000
286327.000000
287150.000000
287913.000000
288676.000000
289472.000000
290274.000000
291045.000000
291863.000000
292742.000000
293543.000000
294344.000000
295190.000000
296080.000000
296885.000000
297703.000000
298573.000000
299462.000000
300258.000000
301075.000000
301905.000000
302698.000000
303473.000000
304294.000000
305148.000000
305943.000000
306765.000000
307635.000000
308449.000000
309255.000000
310069.000000
310867.000000
311633.000000
312413.000000
313220.000000
313993.000000
314807.000000
315669.000000
316487.000000
317271.000000
318098.000000
318948.000000
319746.000000
320560.000000
321386.000000
322172.000000
322952.000000
323750.000000
324582.000000
325365.000000
326157.000000
326990.000000
327834.000000
328635.000000
329452.000000
330288.000000
331151.000000
331946.000000
332740.000000
333583.000000
334457.000000
335280.000000
336135.000000
337093.000000
337979.000000
338837.000000
339782.000000
340668.000000
341455.000000
342240.000000
343053.000000
343890.000000
344683.000000
345501.000000
346370.000000
347216.000000
347994.000000
348730.000000
349475.000000
350276.000000
351115.000000
351913.000000
352744.000000
353669.000000
354597.000000
355427.000000
356292.000000
357171.000000
358005.000000
358793.000000
359604.000000
360463.000000
361292.000000
362048.000000
362773.000000
363537.000000
364699.000000
365718.000000
366558.000000
367370.000000
368190.000000
369043.000000
369878.000000
370680.000000
371565.000000
372596.000000
373591.000000
374428.000000
375216.000000
375971.000000
376696.000000
377407.000000
378115.000000
378849.000000
379569.000000
380251.000000
380944.000000
381728.000000
382938.000000
384006.000000
384907.000000
385794.000000
386704.000000
387593.000000
388398.000000
389211.000000
390049.000000
390924.000000
391760.000000
392677.000000
393764.000000
394707.000000
395549.000000
396371.000000
397180.000000
397974.000000
398781.000000
399606.000000
400383.000000
401205.000000
402090.000000
402914.000000
403750.000000
404625.000000
405528.000000
406329.000000
407149.000000
407994.000000
408838.000000
409647.000000
410508.000000
411554.000000
412415.000000
413297.000000
414210.000000
415024.000000
415818.000000
416644.000000
417541.000000
418447.000000
419286.000000
420232.000000
421208.000000
422053.000000
422880.000000
423709.000000
424550.000000
425348.000000
426168.000000
427018.000000
427844.000000
428661.000000
429492.000000
430335.000000
431131.000000
431940.000000
432781.000000
433576.000000
434352.000000
435142.000000
436000.000000
436842.000000
437657.000000
438517.000000
439444.000000
440278.000000
441066.000000
441858.000000
442656.000000
443426.000000
444215.000000
445023.000000
445864.000000
446647.000000
447476.000000
448375.000000
449242.000000
450032.000000
450852.000000
451700.000000
452579.000000
453454.000000
454346.000000
455325.000000
456272.000000
457115.000000
457970.000000
458873.000000
459785.000000
460628.000000
461522.000000
462461.000000
463241.000000
463989.000000
464724.000000
465465.000000
466217.000000
467007.000000
468068.000000
469112.000000
470046.000000
470996.000000
471876.000000
472675.000000
473501.000000
474361.000000
475259.000000
476097.000000
476973.000000
477871.000000
478810.000000
479666.000000
480535.000000
481462.000000
482390.000000
483225.000000
484071.000000
485017.000000
486052.000000
486936.000000
487791.000000
488676.000000
489572.000000
490370.000000
491118.000000
491870.000000
492677.000000
493604.000000
494447.000000
495392.000000
496353.000000
497240.000000
498009.000000
498730.000000
499416.000000
500133.000000
500985.000000
501933.000000
503017.000000
504078.000000
504999.000000
505867.000000
506759.000000
507609.000000
508398.000000
509197.000000
510075.000000
511029.000000
511853.000000
512690.000000
513583.000000
514392.000000
515208.000000
516073.000000
516963.000000
517791.000000
518673.000000
519617.000000
520521.000000
521341.000000
522190.000000
523054.000000
523935.000000
524773.000000
525688.000000
526731.000000
527709.000000
528509.000000
529283.000000
530070.000000
530911.000000
531831.000000
532673.000000
533565.000000
534511.000000
535438.000000
536279.000000
537142.000000
538058.000000
538847.000000
539594.000000
540336.000000
541116.000000
541968.000000
542770.000000
543654.000000
544669.000000
545598.000000
546412.000000
547249.000000
548134.000000
549073.000000
549913.000000
550743.000000
551709.000000
552726.000000
553570.000000
554354.000000
555169.000000
556181.000000
557095.000000
557983.000000
558944.000000
559923.000000
560831.000000
561669.000000
562473.000000
563261.000000
564034.000000
564781.000000
565545.000000
566374.000000
567312.000000
568148.000000
568992.000000
570006.000000
571031.000000
571905.000000
572822.000000
573779.000000
574776.000000
575659.000000
576557.000000
577462.000000
578245.000000
578970.000000
579662.000000
580364.000000
581593.000000
582718.000000
583801.000000
584856.000000
585769.000000
586576.000000
587422.000000
588373.000000
589233.000000
590036.000000
590864.000000
591745.000000
592637.000000
593476.000000
594394.000000
595349.000000
596230.000000
597024.000000
597818.000000
598634.000000
599778.000000
600762.000000
601684.000000
602551.000000
603393.000000
604157.000000
604905.000000
605675.000000
606810.000000
607798.000000
608693.000000
609575.000000
610433.000000
611265.000000
612055.000000
612859.000000
613687.000000
614518.000000
615309.000000
616119.000000
617014.000000
617895.000000
618700.000000
619541.000000
620423.000000
621258.000000
622057.000000
622940.000000
623843.000000
624665.000000
625477.000000
626348.000000
627298.000000
628249.000000
629112.000000
629992.000000
630874.000000
631692.000000
632468.000000
633252.000000
634056.000000
634887.000000
635717.000000
636618.000000
637612.000000
638557.000000
639387.000000
640219.000000
641069.000000
641853.000000
642638.000000
643445.000000
644307.000000
645130.000000
645949.000000
646776.000000
647609.000000
648378.000000
649100.000000
649812.000000
650548.000000
651391.000000
652240.000000
653025.000000
653858.000000
654810.000000
655759.000000
656617.000000
657512.000000
658458.000000
659301.000000
660156.000000
661073.000000
661974.000000
662884.000000
663905.000000
664907.000000
665800.000000
666580.000000
667341.000000
668094.000000
668832.000000
669599.000000
670472.000000
671374.000000
672191.000000
673063.000000
674065.000000
674984.000000
675837.000000
676712.000000
677621.000000
678467.000000
679343.000000
680294.000000
681303.000000
682249.000000
683093.000000
683949.000000
684772.000000
685533.000000
686246.000000
686927.000000
687607.000000
688319.000000
689092.000000
689844.000000
690541.000000
691246.000000
692074.000000
693308.000000
694381.000000
695335.000000
696192.000000
697057.000000
697965.000000
698914.000000
699967.000000
700928.000000
701800.000000
702671.000000
703471.000000
704225.000000
704955.000000
705710.000000
706584.000000
707468.000000
708299.000000
709304.000000
710423.000000
711427.000000
712422.000000
713432.000000
714368.000000
715279.000000
716233.000000
717254.000000
718158.000000
718944.000000
719714.000000
720523.000000
721678.000000
722755.000000
723721.000000
724549.000000
725367.000000
726241.000000
727148.000000
727979.000000
728831.000000
729955.000000
731021.000000
731973.000000
732814.000000
733652.000000
734506.000000
735370.000000
736244.000000
737103.000000
738099.000000
739086.000000
739927.000000
740691.000000
741435.000000
742212.000000
743125.000000
744046.000000
744843.000000
745657.000000
746558.000000
747472.000000
748341.000000
749214.000000
750123.000000
750945.000000
751756.000000
752605.000000
753456.000000
754261.000000
755099.000000
755980.000000
757010.000000
757947.000000
758909.000000
759938.000000
760936.000000
761930.000000
762820.000000
763679.000000
764605.000000
765551.000000
766479.000000
767292.000000
768105.000000
768979.000000
770103.000000
771053.000000
771914.000000
772781.000000
773649.000000
774461.000000
775315.000000
776407.000000
777445.000000
778383.000000
779305.000000
780268.000000
781335.000000
782429.000000
783336.000000
784168.000000
785020.000000
785942.000000
786790.000000
787655.000000
788619.000000
789625.000000
790551.000000
791514.000000
792517.000000
793393.000000
794323.000000
795296.000000
796240.000000
797073.000000
797935.000000
798941.000000
799900.000000
800747.000000
801603.000000
802541.000000
803405.000000
804280.000000
805194.000000
806067.000000
806853.000000
807657.000000
808526.000000
809452.000000
810276.000000
811135.000000
812053.000000
812975.000000
813852.000000
814775.000000
815685.000000
816543.000000
817366.000000
818233.000000
819161.000000
820039.000000
820875.000000
821789.000000
822815.000000
823749.000000
824544.000000
825295.000000
826062.000000
826924.000000
828011.000000
828977.000000
829952.000000
830971.000000
831930.000000
832777.000000
833646.000000
834563.000000
835410.000000
836211.000000
837028.000000
837865.000000
838797.000000
839619.000000
840476.000000
841409.000000
842250.000000
843087.000000
843968.000000
844854.000000
845652.000000
846463.000000
847373.000000
848430.000000
849382.000000
850308.000000
851278.000000
852228.000000
853073.000000
853911.000000
854756.000000
855589.000000
856426.000000
857385.000000
858324.000000
859191.000000
860151.000000
861172.000000
862105.000000
862935.000000
863756.000000
864602.000000
865577.000000
866468.000000
867348.000000
868351.000000
869368.000000
870209.000000
870958.000000
871676.000000
872423.000000
873622.000000
874685.000000
875661.000000
876659.000000
877786.000000
878805.000000
879754.000000
880771.000000
881760.000000
882638.000000
883577.000000
884588.000000
885481.000000
886379.000000
887411.000000
888425.000000
889306.000000
890222.000000
891241.000000
892217.000000
893102.000000
894030.000000
895031.000000
895979.000000
896820.000000
897716.000000
898629.000000
899483.000000
900277.000000
901083.000000
901991.000000
903045.000000
903925.000000
904785.000000
905738.000000
906720.000000
907594.000000
908428.000000
909284.000000
910326.000000
911280.000000
912133.000000
913047.000000
913996.000000
914844.000000
915729.000000
916685.000000
917637.000000
918493.000000
919438.000000
920484.000000
921500.000000
922337.000000
923093.000000
923862.000000
924747.000000
925899.000000
926947.000000
927886.000000
928846.000000
929945.000000
930973.000000
931877.000000
932789.000000
933808.000000
934734.000000
935647.000000
936646.000000
937651.000000
938532.000000
939447.000000
940441.000000
941330.000000
942152.000000
942976.000000
943861.000000
944713.000000
945558.000000
946516.000000
947488.000000
948297.000000
949062.000000
949813.000000
950595.000000
951347.000000
952053.000000
952753.000000
953491.000000
954726.000000
955776.000000
956698.000000
957643.000000
958628.000000
959528.000000
960524.000000
961550.000000
962612.000000
963582.000000
964499.000000
965376.000000
966202.000000
966986.000000
967759.000000
968573.000000
969441.000000
970338.000000
971369.000000
972494.000000
973399.000000
974185.000000
974971.000000
975886.000000
977027.000000
978133.000000
979113.000000
980011.000000
980968.000000
982001.000000
983021.000000
983949.000000
984843.000000
985833.000000
986898.000000
987990.000000
988958.000000
989817.000000
990735.000000
991753.000000
992657.000000
993531.000000
994470.000000
995363.000000
996145.000000
996889.000000
997655.000000
998865.000000
999900.000000
1000797.000000
1001734.000000
1002795.000000
1003708.000000
1004717.000000
1005839.000000
1006814.000000
1007762.000000
1008606.000000
1009384.000000
1010160.000000
1011013.000000
1012195.000000
1013209.000000
1014248.000000
1015300.000000
1016325.000000
1017262.000000
1018249.000000
1019325.000000
1020379.000000
1021415.000000
1022285.000000
1023105.000000
1023933.000000
1024800.000000
1025655.000000
1026800.000000
1027938.000000
1028933.000000
1029806.000000
1030694.000000
1031520.000000
1032286.000000
1033019.000000
1033755.000000
1034717.000000
1035817.000000
1036790.000000
1037730.000000
1038713.000000
1039727.000000
1040690.000000
1041580.000000
1042513.000000
1043638.000000
1044657.000000
1045606.000000
1046581.000000
1047569.000000
1048490.000000
1049321.000000
1050185.000000
1050964.000000
1051711.000000
1052519.000000
1053730.000000
1054779.000000
1055668.000000
1056599.000000
1057575.000000
1058503.000000
1059387.000000
1060393.000000
1061267.000000
1062038.000000
1062825.000000
1063702.000000
1064570.000000
1065407.000000
1066307.000000
1067262.000000
1068129.000000
1068924.000000
1069764.000000
1070700.000000
1071488.000000
1072225.000000
1072938.000000
1073699.000000
1074928.000000
1076037.000000
1077143.000000
1078232.000000
1079255.000000
1080384.000000
1081470.000000
1082475.000000
1083346.000000
1084219.000000
1085118.000000
1085940.000000
1086721.000000
1087518.000000
1088375.000000
1089453.000000
1090376.000000
1091274.000000
1092116.000000
1092886.000000
1093633.000000
1094409.000000
1095442.000000
1096441.000000
1097350.000000
1098258.000000
1099287.000000
1100276.000000
1101183.000000
1102083.000000
1103019.000000
1103967.000000
1104897.000000
1105903.000000
1106945.000000
1107827.000000
1108610.000000
1109387.000000
1110200.000000
1111198.000000
1112247.000000
1113189.000000
1114071.000000
1115018.000000
1115922.000000
1116719.000000
1117496.000000
1118278.000000
1119097.000000
1119882.000000
1120616.000000
1121336.000000
1122117.000000
1123418.000000
1124573.000000
1125548.000000
1126529.000000
1127606.000000
1128720.000000
1129818.000000
1130911.000000
1131956.000000
1132858.000000
1133757.000000
1134720.000000
1135726.000000
1136599.000000
1137388.000000
1138177.000000
1139079.000000
1140268.000000
1141268.000000
1142236.000000
1143242.000000
1144257.000000
1145302.000000
1146327.000000
1147329.000000
1148313.000000
1149428.000000
1150504.000000
1151435.000000
1152253.000000
1153094.000000
1153955.000000
1154756.000000
1155540.000000
1156422.000000
1157627.000000
1158590.000000
1159467.000000
1160424.000000
1161402.000000
1162228.000000
1162988.000000
1163718.000000
1164467.000000
1165690.000000
1166821.000000
1167811.000000
1168794.000000
1169850.000000
1170961.000000
1172045.000000
1173096.000000
1174076.000000
1175097.000000
1176162.000000
1177084.000000
1177906.000000
1178715.000000
1179588.000000
1180752.000000
1181786.000000
1182883.000000
1183933.000000
1184836.000000
1185772.000000
1186962.000000
1188029.000000
1189053.000000
1190116.000000
1191220.000000
1192229.000000
1193200.000000
1194208.000000
