ECG (ms)
507.000000
1203.000000
1905.000000
2636.000000
3383.000000
4139.000000
4904.000000
5651.000000
6404.000000
7140.000000
7861.000000
8578.000000
9292.000000
10017.000000
10747.000000
11497.000000
12248.000000
13001.000000
13745.000000
14496.000000
15237.000000
15978.000000
16714.000000
17453.000000
18187.000000
18918.000000
19640.000000
20354.000000
21056.000000
21746.000000
22425.000000
23102.000000
23769.000000
24434.000000
25098.000000
25768.000000
26447.000000
27144.000000
27851.000000
28580.000000
29323.000000
30060.000000
30788.000000
31504.000000
32208.000000
32899.000000
33581.000000
34264.000000
34964.000000
35685.000000
36428.000000
37191.000000
37964.000000
38734.000000
39504.000000
40265.000000
41012.000000
41730.000000
42435.000000
43138.000000
43847.000000
44589.000000
45363.000000
46140.000000
46936.000000
47726.000000
48505.000000
49264.000000
50002.000000
50716.000000
51412.000000
52101.000000
52811.000000
53529.000000
54273.000000
55029.000000
55809.000000
56598.000000
57370.000000
58123.000000
58862.000000
59578.000000
60281.000000
60972.000000
61660.000000
62362.000000
63105.000000
63881.000000
64668.000000
65445.000000
66229.000000
66989.000000
67736.000000
68464.000000
69179.000000
69889.000000
70599.000000
71324.000000
72085.000000
72880.000000
73682.000000
74481.000000
75261.000000
76019.000000
76747.000000
77460.000000
78149.000000
78823.000000
79498.000000
80193.000000
80924.000000
81705.000000
82515.000000
83337.000000
84153.000000
84940.000000
85702.000000
86429.000000
87143.000000
87852.000000
88527.000000
89176.000000
89810.000000
90460.000000
91145.000000
91877.000000
92664.000000
93453.000000
94205.000000
94925.000000
95636.000000
96331.000000
97028.000000
97729.000000
98444.000000
99178.000000
99940.000000
100724.000000
101508.000000
102273.000000
103011.000000
103726.000000
104422.000000
105112.000000
105823.000000
106565.000000
107338.000000
108121.000000
108891.000000
109666.000000
110418.000000
111149.000000
111867.000000
112570.000000
113270.000000
113969.000000
114669.000000
115391.000000
116139.000000
116896.000000
117667.000000
118435.000000
119193.000000
119922.000000
120629.000000
121328.000000
122020.000000
122705.000000
123407.000000
124134.000000
124878.000000
125623.000000
126374.000000
127125.000000
127868.000000
128601.000000
129313.000000
130007.000000
130689.000000
131368.000000
132047.000000
132727.000000
133425.000000
134143.000000
134895.000000
135686.000000
136478.000000
137276.000000
138033.000000
138760.000000
139470.000000
140175.000000
140873.000000
141575.000000
142297.000000
143029.000000
143773.000000
144506.000000
145229.000000
145933.000000
146622.000000
147306.000000
147993.000000
148690.000000
149409.000000
150156.000000
150905.000000
151652.000000
152374.000000
153080.000000
153777.000000
154474.000000
155181.000000
155921.000000
156685.000000
157471.000000
158250.000000
159008.000000
159756.000000
160500.000000
161231.000000
161957.000000
162689.000000
163450.000000
164225.000000
165001.000000
165782.000000
166553.000000
167322.000000
168081.000000
168809.000000
169533.000000
170265.000000
171009.000000
171772.000000
172583.000000
173443.000000
174319.000000
175183.000000
176010.000000
176794.000000
177547.000000
178274.000000
178979.000000
179670.000000
180375.000000
181114.000000
181880.000000
182671.000000
183459.000000
184238.000000
184995.000000
185728.000000
186431.000000
187121.000000
187804.000000
188499.000000
189211.000000
189961.000000
190771.000000
191581.000000
192362.000000
193123.000000
193862.000000
194583.000000
195303.000000
196038.000000
196796.000000
197527.000000
198217.000000
198872.000000
199513.000000
200159.000000
200809.000000
201475.000000
202159.000000
202858.000000
203580.000000
204318.000000
205061.000000
205816.000000
206571.000000
207311.000000
208029.000000
208747.000000
209465.000000
210185.000000
210937.000000
211721.000000
212530.000000
213352.000000
214180.000000
215000.000000
215824.000000
216624.000000
217393.000000
218126.000000
218823.000000
219510.000000
220202.000000
220911.000000
221673.000000
222514.000000
223345.000000
224188.000000
225035.000000
225862.000000
226641.000000
227384.000000
228096.000000
228796.000000
229503.000000
230231.000000
230999.000000
231811.000000
232641.000000
233466.000000
234279.000000
235093.000000
235861.000000
236599.000000
237323.000000
238030.000000
238738.000000
239462.000000
240220.000000
241005.000000
241840.000000
242674.000000
243495.000000
244282.000000
245054.000000
245822.000000
246586.000000
247354.000000
248120.000000
248897.000000
249692.000000
250514.000000
251360.000000
252218.000000
253051.000000
253852.000000
254628.000000
255387.000000
256141.000000
256895.000000
257646.000000
258404.000000
259181.000000
259971.000000
260773.000000
261585.000000
262401.000000
263211.000000
263993.000000
264761.000000
265512.000000
266272.000000
267032.000000
267808.000000
268616.000000
269452.000000
270289.000000
271132.000000
271968.000000
272787.000000
273576.000000
274344.000000
275100.000000
275846.000000
276591.000000
277354.000000
278133.000000
278937.000000
279763.000000
280587.000000
281401.000000
282209.000000
283000.000000
283780.000000
284557.000000
285322.000000
286087.000000
286857.000000
287641.000000
288442.000000
289277.000000
290135.000000
290984.000000
291826.000000
292640.000000
293429.000000
294201.000000
294957.000000
295706.000000
296472.000000
297282.000000
298128.000000
298994.000000
299879.000000
300759.000000
301609.000000
302412.000000
303181.000000
303929.000000
304653.000000
305378.000000
306131.000000
306941.000000
307782.000000
308621.000000
309452.000000
310278.000000
311103.000000
311924.000000
312742.000000
313562.000000
314378.000000
315187.000000
315988.000000
316791.000000
317546.000000
318242.000000
318907.000000
319578.000000
320252.000000
320937.000000
321636.000000
322371.000000
323168.000000
323982.000000
324799.000000
325594.000000
326380.000000
327137.000000
327876.000000
328604.000000
329325.000000
330051.000000
330813.000000
331610.000000
332445.000000
333270.000000
334080.000000
334867.000000
335632.000000
336369.000000
337096.000000
337812.000000
338528.000000
339250.000000
339982.000000
340732.000000
341516.000000
342300.000000
343078.000000
343835.000000
344567.000000
345293.000000
346018.000000
346773.000000
347558.000000
348377.000000
349208.000000
350044.000000
350844.000000
351609.000000
352347.000000
353064.000000
353778.000000
354502.000000
355235.000000
355988.000000
356754.000000
357542.000000
358346.000000
359137.000000
359910.000000
360673.000000
361400.000000
362116.000000
362834.000000
363557.000000
364275.000000
365000.000000
365740.000000
366501.000000
367304.000000
368119.000000
368946.000000
369754.000000
370526.000000
371273.000000
371996.000000
372714.000000
373437.000000
374170.000000
374927.000000
375701.000000
376483.000000
377263.000000
378019.000000
378759.000000
379482.000000
380206.000000
380946.000000
381705.000000
382494.000000
383306.000000
384142.000000
384981.000000
385828.000000
386668.000000
387491.000000
388285.000000
389061.000000
389815.000000
390562.000000
391305.000000
392058.000000
392830.000000
393612.000000
394414.000000
395226.000000
396037.000000
396841.000000
397609.000000
398340.000000
399059.000000
399777.000000
400503.000000
401254.000000
402037.000000
402873.000000
403700.000000
404528.000000
405346.000000
406117.000000
406872.000000
407611.000000
408352.000000
409097.000000
409838.000000
410551.000000
411232.000000
411903.000000
412596.000000
413356.000000
414152.000000
414969.000000
415800.000000
416578.000000
417317.000000
418063.000000
418815.000000
419576.000000
420333.000000
421090.000000
421842.000000
422599.000000
423350.000000
424106.000000
424868.000000
425628.000000
426384.000000
427137.000000
427865.000000
428576.000000
429284.000000
429991.000000
430694.000000
431424.000000
432177.000000
432943.000000
433727.000000
434498.000000
435278.000000
436031.000000
436760.000000
437479.000000
438180.000000
438877.000000
439589.000000
440322.000000
441100.000000
441911.000000
442724.000000
443523.000000
444293.000000
445027.000000
445733.000000
446432.000000
447128.000000
447832.000000
448544.000000
449285.000000
450052.000000
450846.000000
451636.000000
452427.000000
453197.000000
453982.000000
454743.000000
455487.000000
456205.000000
456925.000000
457649.000000
458389.000000
459165.000000
459959.000000
460771.000000
461580.000000
462396.000000
463210.000000
463992.000000
464743.000000
465491.000000
466240.000000
467007.000000
467809.000000
468653.000000
469519.000000
470402.000000
471287.000000
472161.000000
472996.000000
473786.000000
474551.000000
475302.000000
476041.000000
476784.000000
477553.000000
478347.000000
479176.000000
480018.000000
480838.000000
481632.000000
482393.000000
483133.000000
483857.000000
484576.000000
485312.000000
486090.000000
486903.000000
487771.000000
488663.000000
489534.000000
490369.000000
491180.000000
491947.000000
492687.000000
493396.000000
494101.000000
494824.000000
495583.000000
496405.000000
497250.000000
498104.000000
498941.000000
499750.000000
500530.000000
501301.000000
502051.000000
502767.000000
503468.000000
504153.000000
504842.000000
505569.000000
506377.000000
507258.000000
508089.000000
508896.000000
509700.000000
510495.000000
511280.000000
512048.000000
512794.000000
513508.000000
514217.000000
514932.000000
515671.000000
516443.000000
517220.000000
517982.000000
518688.000000
519359.000000
520029.000000
520697.000000
521372.000000
522074.000000
522806.000000
523581.000000
524394.000000
525219.000000
526050.000000
526884.000000
527695.000000
528479.000000
529233.000000
529973.000000
530704.000000
531447.000000
532200.000000
532990.000000
533811.000000
534662.000000
535510.000000
536355.000000
537164.000000
537945.000000
538706.000000
539462.000000
540243.000000
541038.000000
541855.000000
542678.000000
543492.000000
544288.000000
545069.000000
545833.000000
546579.000000
547319.000000
548065.000000
548824.000000
549618.000000
550435.000000
551262.000000
552076.000000
552870.000000
553636.000000
554377.000000
555108.000000
555836.000000
556584.000000
557360.000000
558176.000000
559013.000000
559847.000000
560648.000000
561422.000000
562172.000000
562910.000000
563654.000000
564413.000000
565209.000000
566026.000000
566896.000000
567763.000000
568608.000000
569408.000000
570173.000000
570916.000000
571650.000000
572375.000000
573112.000000
573884.000000
574701.000000
575572.000000
576446.000000
577305.000000
578134.000000
578935.000000
579711.000000
580457.000000
581190.000000
581918.000000
582659.000000
583427.000000
584262.000000
585150.000000
586005.000000
586844.000000
587640.000000
588405.000000
589160.000000
589909.000000
590643.000000
591379.000000
592139.000000
592925.000000
593736.000000
594550.000000
595367.000000
596189.000000
596984.000000
597711.000000
598395.000000
599063.000000
599733.000000
600410.000000
601103.000000
601833.000000
602603.000000
603408.000000
604234.000000
605063.000000
605874.000000
606668.000000
607438.000000
608190.000000
608944.000000
609695.000000
610450.000000
611219.000000
611998.000000
612808.000000
613636.000000
614455.000000
615262.000000
616072.000000
616857.000000
617629.000000
618389.000000
619142.000000
619894.000000
620657.000000
621439.000000
622239.000000
623077.000000
623929.000000
624775.000000
625595.000000
626377.000000
627126.000000
627864.000000
628594.000000
629328.000000
630085.000000
630904.000000
631782.000000
632664.000000
633528.000000
634376.000000
635185.000000
635960.000000
636704.000000
637423.000000
638133.000000
638862.000000
639625.000000
640452.000000
641314.000000
642187.000000
643062.000000
643921.000000
644749.000000
645531.000000
646284.000000
647015.000000
647737.000000
648461.000000
649203.000000
649971.000000
650776.000000
651591.000000
652415.000000
653237.000000
654018.000000
654780.000000
655523.000000
656258.000000
657001.000000
657748.000000
658525.000000
659331.000000
660168.000000
661028.000000
661897.000000
662789.000000
663660.000000
664511.000000
665326.000000
666114.000000
666882.000000
667645.000000
668419.000000
669193.000000
669986.000000
670779.000000
671585.000000
672404.000000
673210.000000
674004.000000
674775.000000
675524.000000
676257.000000
676982.000000
677726.000000
678484.000000
679269.000000
680073.000000
680896.000000
681728.000000
682552.000000
683353.000000
684131.000000
684891.000000
685626.000000
686345.000000
687069.000000
687796.000000
688526.000000
689231.000000
689904.000000
690576.000000
691274.000000
692007.000000
692778.000000
693565.000000
694352.000000
695118.000000
695879.000000
696626.000000
697365.000000
698106.000000
698861.000000
699632.000000
700430.000000
701247.000000
702052.000000
702853.000000
703645.000000
704438.000000
705216.000000
705977.000000
706740.000000
707506.000000
708284.000000
709083.000000
709891.000000
710700.000000
711502.000000
712315.000000
713111.000000
713898.000000
714680.000000
715471.000000
716280.000000
717075.000000
717846.000000
718609.000000
719387.000000
720175.000000
720968.000000
721761.000000
722573.000000
723384.000000
724196.000000
725001.000000
725798.000000
726586.000000
727372.000000
728139.000000
728891.000000
729639.000000
730388.000000
731137.000000
731893.000000
732648.000000
733407.000000
734184.000000
734980.000000
735785.000000
736581.000000
737375.000000
738180.000000
738960.000000
739698.000000
740426.000000
741148.000000
741881.000000
742632.000000
743398.000000
744175.000000
744967.000000
745754.000000
746541.000000
747333.000000
748108.000000
748873.000000
749629.000000
750364.000000
751084.000000
751797.000000
752518.000000
753267.000000
754023.000000
754820.000000
755635.000000
756496.000000
757365.000000
758230.000000
759074.000000
759894.000000
760682.000000
761452.000000
762214.000000
762980.000000
763740.000000
764524.000000
765331.000000
766145.000000
766941.000000
767726.000000
768493.000000
769242.000000
769988.000000
770728.000000
771480.000000
772262.000000
773060.000000
773872.000000
774689.000000
775512.000000
776331.000000
777117.000000
777877.000000
778616.000000
779345.000000
780084.000000
780872.000000
781674.000000
782499.000000
783340.000000
784190.000000
785028.000000
785846.000000
786636.000000
787386.000000
788117.000000
788825.000000
789535.000000
790277.000000
791067.000000
791887.000000
792743.000000
793622.000000
794529.000000
795427.000000
796312.000000
797171.000000
797997.000000
798786.000000
799556.000000
800304.000000
801035.000000
801775.000000
802541.000000
803359.000000
804232.000000
805138.000000
806031.000000
806882.000000
807697.000000
808478.000000
809235.000000
809984.000000
810735.000000
811511.000000
812295.000000
813069.000000
813829.000000
814573.000000
815327.000000
816093.000000
816838.000000
817577.000000
818326.000000
819078.000000
819852.000000
820623.000000
821378.000000
822122.000000
822869.000000
823638.000000
824411.000000
825186.000000
825942.000000
826682.000000
827416.000000
828159.000000
828925.000000
829726.000000
830537.000000
831373.000000
832218.000000
833043.000000
833843.000000
834599.000000
835307.000000
835971.000000
836623.000000
837271.000000
837925.000000
838603.000000
839353.000000
840219.000000
841119.000000
842018.000000
842907.000000
843765.000000
844591.000000
845374.000000
846120.000000
846836.000000
847524.000000
848204.000000
848889.000000
849600.000000
850388.000000
851228.000000
852104.000000
852977.000000
853846.000000
854696.000000
855523.000000
856330.000000
857113.000000
857868.000000
858604.000000
859319.000000
860024.000000
860724.000000
861440.000000
862184.000000
862966.000000
863772.000000
864572.000000
865366.000000
866158.000000
866944.000000
867715.000000
868461.000000
869199.000000
869932.000000
870653.000000
871376.000000
872112.000000
872874.000000
873653.000000
874437.000000
875230.000000
876019.000000
876795.000000
877564.000000
878315.000000
879070.000000
879835.000000
880594.000000
881351.000000
882118.000000
882893.000000
883673.000000
884447.000000
885212.000000
885968.000000
886719.000000
887461.000000
888191.000000
888922.000000
889657.000000
890399.000000
891161.000000
891960.000000
892780.000000
893591.000000
894387.000000
895155.000000
895904.000000
896643.000000
897377.000000
898117.000000
898892.000000
899714.000000
900555.000000
901403.000000
902227.000000
903005.000000
903757.000000
904478.000000
905176.000000
905843.000000
906482.000000
907118.000000
907787.000000
908554.000000
909402.000000
910279.000000
911120.000000
911921.000000
912705.000000
913478.000000
914241.000000
914998.000000
915759.000000
916531.000000
917313.000000
918097.000000
918887.000000
919661.000000
920406.000000
921140.000000
921867.000000
922590.000000
923314.000000
924042.000000
924790.000000
925590.000000
926443.000000
927292.000000
928131.000000
928952.000000
929752.000000
930560.000000
931346.000000
932130.000000
932914.000000
933705.000000
934520.000000
935357.000000
936185.000000
937000.000000
937801.000000
938597.000000
939401.000000
940217.000000
941020.000000
941805.000000
942577.000000
943323.000000
944060.000000
944799.000000
945547.000000
946323.000000
947128.000000
947969.000000
948814.000000
949636.000000
950428.000000
951179.000000
951912.000000
952630.000000
953339.000000
954049.000000
954779.000000
955566.000000
956384.000000
957212.000000
958030.000000
958835.000000
959605.000000
960352.000000
961088.000000
961817.000000
962546.000000
963284.000000
964052.000000
964845.000000
965658.000000
966477.000000
967271.000000
968039.000000
968798.000000
969555.000000
970313.000000
971059.000000
971802.000000
972538.000000
973272.000000
974007.000000
974783.000000
975625.000000
976468.000000
977283.000000
978063.000000
978847.000000
979647.000000
980471.000000
981337.000000
982234.000000
983112.000000
983956.000000
984766.000000
985531.000000
986266.000000
987002.000000
987744.000000
988512.000000
989297.000000
990115.000000
990937.000000
991750.000000
992524.000000
993282.000000
994030.000000
994771.000000
995525.000000
996304.000000
997086.000000
997901.000000
998712.000000
999506.000000
1000265.000000
1001005.000000
1001732.000000
1002459.000000
1003198.000000
1003959.000000
1004757.000000
1005577.000000
1006404.000000
1007194.000000
1007936.000000
1008642.000000
1009324.000000
1009975.000000
1010626.000000
1011302.000000
1012038.000000
1012823.000000
1013614.000000
1014412.000000
1015206.000000
1015990.000000
1016796.000000
1017586.000000
1018372.000000
1019169.000000
1019973.000000
1020765.000000
1021525.000000
1022265.000000
1022986.000000
1023705.000000
1024449.000000
1025225.000000
1026021.000000
1026824.000000
1027637.000000
1028433.000000
1029236.000000
1030025.000000
1030798.000000
1031562.000000
1032315.000000
1033081.000000
1033868.000000
1034659.000000
1035417.000000
1036166.000000
1036900.000000
1037640.000000
1038380.000000
1039138.000000
1039916.000000
1040722.000000
1041539.000000
1042371.000000
1043198.000000
1043980.000000
1044714.000000
1045423.000000
1046114.000000
1046805.000000
1047514.000000
1048237.000000
1048966.000000
1049701.000000
1050428.000000
1051139.000000
1051843.000000
1052547.000000
1053268.000000
1054010.000000
1054790.000000
1055604.000000
1056415.000000
1057237.000000
1058067.000000
1058892.000000
1059701.000000
1060482.000000
1061252.000000
1062012.000000
1062779.000000
1063578.000000
1064417.000000
1065286.000000
1066158.000000
1067019.000000
1067866.000000
1068693.000000
1069504.000000
1070291.000000
1071061.000000
1071832.000000
1072617.000000
1073443.000000
1074320.000000
1075211.000000
1076104.000000
1076968.000000
1077811.000000
1078625.000000
1079412.000000
1080175.000000
1080922.000000
1081673.000000
1082442.000000
1083233.000000
1084029.000000
1084826.000000
1085626.000000
1086415.000000
1087174.000000
1087925.000000
1088672.000000
1089414.000000
1090165.000000
1090928.000000
1091727.000000
1092531.000000
1093350.000000
1094153.000000
1094917.000000
1095642.000000
1096327.000000
1096991.000000
1097652.000000
1098328.000000
1099025.000000
1099754.000000
1100523.000000
1101325.000000
1102145.000000
1102983.000000
1103819.000000
1104642.000000
1105461.000000
1106252.000000
1107026.000000
1107778.000000
1108522.000000
1109262.000000
1110014.000000
1110802.000000
1111629.000000
1112480.000000
1113314.000000
1114139.000000
1114956.000000
1115772.000000
1116554.000000
1117306.000000
1118033.000000
1118741.000000
1119441.000000
1120138.000000
1120858.000000
1121642.000000
1122505.000000
1123393.000000
1124267.000000
1125116.000000
1125950.000000
1126749.000000
1127518.000000
1128258.000000
1128988.000000
1129712.000000
1130441.000000
1131175.000000
1131927.000000
1132734.000000
1133538.000000
1134333.000000
1135099.000000
1135848.000000
1136571.000000
1137274.000000
1137956.000000
1138624.000000
1139289.000000
1139960.000000
1140646.000000
1141365.000000
1142124.000000
1142934.000000
1143784.000000
1144647.000000
1145485.000000
1146298.000000
1147076.000000
1147832.000000
1148575.000000
1149310.000000
1150060.000000
1150844.000000
1151691.000000
1152583.000000
1153513.000000
1154429.000000
1155312.000000
1156147.000000
1156945.000000
1157723.000000
1158471.000000
1159223.000000
1159984.000000
1160754.000000
1161566.000000
1162393.000000
1163229.000000
1164063.000000
1164882.000000
1165676.000000
1166454.000000
1167203.000000
1167933.000000
1168655.000000
1169387.000000
1170134.000000
1170910.000000
1171710.000000
1172505.000000
1173291.000000
1174076.000000
1174849.000000
1175621.000000
1176371.000000
1177105.000000
1177840.000000
1178588.000000
1179380.000000
1180211.000000
1181064.000000
1181919.000000
1182779.000000
1183656.000000
1184506.000000
1185314.000000
1186091.000000
1186847.000000
1187568.000000
1188280.000000
1189000.000000
1189745.000000
1190557.000000
1191422.000000
1192311.000000
1193216.000000
1194087.000000
1194863.000000
1195566.000000
1196258.000000
1196945.000000
1197633.000000
1198321.000000
1199006.000000
1199708.000000
1200442.000000
1201233.000000
1202041.000000
1202846.000000
1203633.000000
1204402.000000
1205153.000000
1205889.000000
1206613.000000
1207346.000000
1208107.000000
