ECG (ms)
680.000000
1580.000000
2466.000000
3393.000000
4299.000000
5220.000000
6068.000000
6973.000000
7890.000000
8808.000000
9728.000000
10583.000000
11470.000000
12370.000000
13201.000000
13982.000000
14846.000000
15766.000000
16722.000000
17723.000000
18723.000000
19661.000000
20661.000000
21660.000000
22669.000000
23636.000000
24602.000000
25621.000000
26725.000000
27721.000000
28744.000000
29813.000000
30912.000000
31929.000000
32869.000000
33930.000000
34981.000000
36003.000000
37047.000000
38044.000000
39103.000000
40180.000000
41158.000000
42139.000000
43090.000000
44053.000000
44950.000000
45867.000000
46786.000000
47739.000000
48716.000000
49628.000000
50653.000000
51812.000000
52868.000000
53878.000000
54932.000000
56012.000000
57035.000000
58107.000000
59118.000000
60048.000000
61032.000000
61998.000000
62885.000000
63768.000000
64683.000000
65631.000000
66592.000000
67523.000000
68453.000000
69441.000000
70434.000000
71404.000000
72358.000000
73285.000000
74152.000000
75037.000000
75959.000000
76901.000000
77794.000000
78731.000000
79652.000000
80523.000000
81438.000000
82396.000000
83287.000000
84218.000000
85170.000000
86150.000000
87208.000000
88166.000000
89066.000000
89953.000000
90913.000000
92078.000000
93160.000000
94181.000000
95261.000000
96339.000000
97372.000000
98325.000000
99242.000000
100174.000000
101099.000000
102003.000000
102891.000000
103746.000000
104660.000000
105615.000000
106569.000000
107468.000000
108355.000000
109282.000000
110203.000000
111068.000000
111957.000000
112910.000000
113869.000000
114851.000000
115802.000000
116783.000000
117791.000000
118758.000000
119716.000000
120599.000000
121506.000000
122461.000000
123396.000000
124353.000000
125367.000000
126332.000000
127251.000000
128242.000000
129196.000000
130079.000000
131001.000000
131941.000000
132821.000000
133734.000000
134660.000000
135550.000000
136497.000000
137451.000000
138387.000000
139353.000000
140334.000000
141251.000000
142178.000000
143114.000000
144013.000000
144915.000000
145808.000000
146665.000000
147474.000000
148245.000000
149084.000000
149991.000000
150986.000000
151939.000000
152878.000000
153863.000000
154828.000000
155761.000000
156736.000000
157797.000000
158740.000000
159747.000000
160793.000000
161756.000000
162750.000000
163760.000000
164812.000000
165871.000000
166949.000000
167945.000000
168954.000000
170042.000000
171105.000000
172173.000000
173210.000000
174227.000000
175225.000000
176162.000000
177142.000000
178071.000000
178984.000000
179983.000000
180980.000000
181917.000000
182886.000000
183846.000000
184749.000000
185691.000000
186644.000000
187538.000000
188469.000000
189434.000000
190348.000000
191313.000000
192270.000000
193247.000000
194204.000000
195178.000000
196163.000000
197102.000000
198060.000000
199068.000000
199997.000000
200907.000000
201843.000000
202770.000000
203646.000000
204584.000000
205536.000000
206468.000000
207410.000000
208453.000000
209454.000000
210412.000000
211420.000000
212417.000000
213405.000000
214393.000000
215324.000000
216279.000000
217179.000000
218074.000000
219004.000000
219923.000000
220847.000000
221839.000000
222814.000000
223768.000000
224764.000000
225785.000000
226728.000000
227699.000000
228678.000000
229642.000000
230571.000000
231558.000000
232578.000000
233578.000000
234641.000000
235646.000000
236578.000000
237544.000000
238474.000000
239353.000000
240296.000000
241232.000000
242127.000000
243065.000000
244012.000000
244942.000000
245909.000000
246870.000000
247851.000000
248871.000000
249828.000000
250810.000000
251822.000000
252848.000000
253836.000000
254900.000000
255997.000000
256952.000000
257876.000000
258796.000000
259767.000000
260715.000000
261658.000000
262615.000000
263561.000000
264557.000000
265607.000000
266649.000000
267629.000000
268570.000000
269611.000000
270644.000000
271596.000000
272589.000000
273590.000000
274571.000000
275511.000000
276500.000000
277513.000000
278513.000000
279519.000000
280454.000000
281434.000000
282433.000000
283406.000000
284423.000000
285410.000000
286387.000000
287379.000000
288289.000000
289251.000000
290283.000000
291265.000000
292257.000000
293225.000000
294157.000000
295122.000000
296031.000000
296925.000000
297897.000000
298853.000000
299765.000000
300746.000000
301756.000000
302680.000000
303586.000000
304530.000000
305453.000000
306340.000000
307286.000000
308234.000000
309228.000000
310207.000000
311127.000000
312123.000000
313128.000000
314172.000000
315165.000000
316131.000000
317127.000000
318144.000000
319133.000000
320113.000000
321078.000000
322020.000000
323030.000000
324103.000000
325146.000000
326158.000000
327129.000000
328154.000000
329183.000000
330175.000000
331162.000000
332114.000000
333016.000000
333955.000000
334884.000000
335771.000000
336724.000000
337739.000000
338671.000000
339684.000000
340680.000000
341639.000000
342599.000000
343584.000000
344552.000000
345511.000000
346502.000000
347486.000000
348404.000000
349370.000000
350319.000000
351206.000000
352179.000000
353162.000000
354115.000000
355091.000000
356052.000000
356980.000000
357925.000000
358877.000000
359780.000000
360715.000000
361685.000000
362629.000000
363561.000000
364529.000000
365507.000000
366420.000000
367401.000000
368393.000000
369296.000000
370239.000000
371222.000000
372137.000000
373068.000000
374013.000000
374901.000000
375778.000000
376723.000000
377644.000000
378540.000000
379485.000000
380465.000000
381375.000000
382303.000000
383225.000000
384107.000000
385041.000000
385984.000000
386895.000000
387867.000000
388814.000000
389712.000000
390651.000000
391592.000000
392518.000000
393502.000000
394470.000000
395426.000000
396374.000000
397250.000000
398151.000000
399085.000000
399953.000000
400857.000000
401780.000000
402658.000000
403602.000000
404586.000000
405498.000000
406452.000000
407439.000000
408360.000000
409328.000000
410321.000000
411267.000000
412173.000000
413168.000000
414167.000000
415087.000000
416013.000000
417004.000000
417965.000000
418902.000000
419924.000000
420943.000000
421951.000000
422995.000000
423978.000000
424996.000000
426037.000000
427064.000000
428094.000000
429039.000000
429982.000000
430935.000000
431847.000000
432816.000000
433801.000000
434723.000000
435708.000000
436685.000000
437643.000000
438630.000000
439551.000000
440473.000000
441450.000000
442413.000000
443329.000000
444289.000000
445253.000000
446173.000000
447154.000000
448105.000000
449057.000000
450057.000000
450991.000000
451931.000000
452934.000000
453892.000000
454868.000000
455890.000000
456828.000000
457819.000000
458817.000000
459759.000000
460750.000000
461748.000000
462727.000000
463775.000000
464802.000000
465839.000000
466896.000000
467896.000000
468921.000000
469890.000000
470911.000000
471904.000000
472843.000000
473844.000000
474829.000000
475788.000000
476823.000000
477822.000000
478822.000000
479853.000000
480825.000000
481782.000000
482797.000000
483807.000000
484792.000000
485870.000000
486893.000000
487862.000000
488878.000000
489883.000000
490836.000000
491816.000000
492815.000000
493775.000000
494753.000000
495744.000000
496673.000000
497626.000000
498625.000000
499573.000000
500558.000000
501546.000000
502490.000000
503507.000000
504498.000000
505435.000000
506406.000000
507354.000000
508260.000000
509181.000000
510108.000000
511032.000000
512043.000000
513028.000000
513962.000000
514939.000000
515896.000000
516788.000000
517739.000000
518695.000000
519581.000000
520477.000000
521422.000000
522313.000000
523235.000000
524181.000000
525109.000000
526030.000000
527002.000000
527960.000000
528880.000000
529813.000000
530694.000000
531519.000000
532364.000000
533306.000000
534319.000000
535287.000000
536240.000000
537174.000000
538144.000000
539191.000000
540203.000000
541189.000000
542239.000000
543255.000000
544197.000000
545100.000000
546050.000000
546980.000000
547889.000000
548786.000000
549659.000000
550529.000000
551486.000000
552532.000000
553521.000000
554510.000000
555431.000000
556331.000000
557248.000000
558220.000000
559143.000000
560121.000000
561004.000000
561844.000000
562696.000000
563648.000000
564690.000000
565751.000000
566803.000000
567812.000000
568871.000000
570052.000000
571164.000000
572191.000000
573256.000000
574356.000000
575390.000000
576357.000000
577330.000000
578344.000000
579317.000000
580291.000000
581282.000000
582223.000000
583134.000000
584107.000000
585131.000000
586143.000000
587198.000000
588250.000000
589255.000000
590305.000000
591294.000000
592269.000000
593280.000000
594298.000000
595216.000000
596158.000000
597204.000000
598265.000000
599270.000000
600358.000000
601483.000000
602555.000000
603594.000000
604686.000000
605771.000000
606824.000000
607776.000000
608718.000000
609705.000000
610734.000000
611752.000000
612754.000000
613710.000000
614732.000000
615756.000000
616724.000000
617747.000000
618749.000000
619698.000000
620701.000000
621686.000000
622674.000000
623602.000000
624498.000000
625467.000000
626435.000000
627389.000000
628338.000000
629249.000000
630186.000000
631170.000000
632135.000000
633107.000000
634015.000000
634926.000000
635854.000000
636761.000000
637720.000000
638694.000000
639643.000000
640602.000000
641529.000000
642460.000000
643434.000000
644373.000000
645279.000000
646224.000000
647203.000000
648118.000000
649011.000000
649943.000000
650891.000000
651775.000000
652674.000000
653606.000000
654519.000000
655416.000000
656362.000000
657336.000000
658344.000000
659330.000000
660273.000000
661262.000000
662238.000000
663217.000000
664166.000000
665081.000000
666037.000000
666979.000000
667891.000000
668840.000000
669803.000000
670736.000000
671733.000000
672724.000000
673674.000000
674705.000000
675748.000000
676736.000000
677737.000000
678716.000000
679637.000000
680552.000000
681599.000000
682698.000000
683718.000000
684767.000000
685778.000000
686763.000000
687757.000000
688681.000000
689594.000000
690518.000000
691437.000000
692371.000000
693407.000000
694454.000000
695427.000000
696408.000000
697432.000000
698432.000000
699373.000000
700424.000000
701466.000000
702448.000000
703441.000000
704411.000000
705325.000000
706237.000000
707215.000000
708184.000000
709122.000000
710075.000000
710995.000000
711935.000000
712885.000000
713802.000000
714737.000000
715711.000000
716663.000000
717683.000000
718678.000000
719644.000000
720616.000000
721522.000000
722436.000000
723380.000000
724305.000000
725242.000000
726127.000000
726998.000000
727928.000000
728886.000000
729821.000000
730738.000000
731684.000000
732616.000000
733523.000000
734462.000000
735469.000000
736451.000000
737449.000000
738453.000000
739461.000000
740393.000000
741345.000000
742290.000000
743217.000000
744184.000000
745177.000000
746138.000000
747115.000000
748081.000000
748996.000000
749937.000000
750861.000000
751762.000000
752692.000000
753645.000000
754564.000000
755508.000000
756458.000000
757361.000000
758343.000000
759352.000000
760325.000000
761326.000000
762293.000000
763203.000000
764191.000000
765243.000000
766233.000000
767205.000000
768242.000000
769272.000000
770266.000000
771212.000000
772217.000000
773238.000000
774241.000000
775170.000000
776148.000000
777131.000000
778118.000000
779125.000000
780064.000000
780982.000000
781953.000000
782928.000000
783888.000000
784846.000000
785753.000000
786677.000000
787644.000000
788593.000000
789539.000000
790540.000000
791548.000000
792507.000000
793519.000000
794554.000000
795524.000000
796518.000000
797533.000000
798473.000000
799482.000000
800511.000000
801490.000000
802433.000000
803441.000000
804463.000000
805452.000000
806395.000000
807382.000000
808355.000000
809281.000000
810241.000000
811225.000000
812183.000000
813174.000000
814134.000000
815115.000000
816135.000000
817126.000000
818137.000000
819128.000000
820124.000000
821086.000000
822002.000000
822948.000000
823898.000000
824810.000000
825766.000000
826783.000000
827795.000000
828869.000000
829912.000000
830967.000000
832022.000000
833023.000000
834041.000000
835028.000000
835971.000000
836940.000000
837969.000000
838950.000000
839894.000000
840889.000000
841857.000000
842811.000000
843783.000000
844725.000000
845609.000000
846532.000000
847517.000000
848495.000000
849484.000000
850516.000000
851520.000000
852507.000000
853539.000000
854569.000000
855598.000000
856630.000000
857603.000000
858627.000000
859614.000000
860741.000000
861923.000000
863018.000000
864038.000000
865098.000000
866160.000000
867202.000000
868262.000000
869416.000000
870530.000000
871648.000000
872765.000000
873810.000000
874851.000000
875864.000000
876825.000000
877855.000000
878915.000000
879906.000000
880948.000000
882035.000000
883109.000000
884181.000000
885170.000000
886148.000000
887142.000000
888065.000000
889015.000000
890027.000000
891042.000000
892016.000000
893071.000000
894153.000000
895185.000000
896266.000000
897353.000000
898376.000000
899406.000000
900470.000000
901452.000000
902461.000000
903536.000000
904597.000000
905671.000000
906691.000000
907708.000000
908710.000000
909654.000000
910610.000000
911654.000000
912642.000000
913675.000000
914695.000000
915657.000000
916692.000000
917747.000000
918732.000000
919790.000000
920859.000000
921915.000000
923046.000000
924086.000000
925097.000000
926151.000000
927139.000000
928102.000000
929124.000000
930219.000000
931237.000000
932283.000000
933309.000000
934270.000000
935188.000000
936173.000000
937235.000000
938247.000000
939314.000000
940352.000000
941367.000000
942434.000000
943497.000000
944591.000000
945616.000000
946604.000000
947631.000000
948683.000000
949680.000000
950713.000000
951694.000000
952659.000000
953663.000000
954647.000000
955590.000000
956569.000000
957609.000000
958602.000000
959641.000000
960671.000000
961598.000000
962555.000000
963532.000000
964479.000000
965401.000000
966466.000000
967582.000000
968659.000000
969765.000000
970856.000000
971905.000000
972958.000000
973980.000000
974935.000000
975921.000000
976879.000000
977815.000000
978807.000000
979781.000000
980718.000000
981683.000000
982691.000000
983645.000000
984557.000000
985524.000000
986550.000000
987535.000000
988523.000000
989521.000000
990465.000000
991425.000000
992411.000000
993395.000000
994433.000000
995447.000000
996530.000000
997564.000000
998570.000000
999605.000000
1000612.000000
1001587.000000
1002596.000000
1003596.000000
1004548.000000
1005584.000000
1006595.000000
1007567.000000
1008561.000000
1009536.000000
1010463.000000
1011432.000000
1012435.000000
1013384.000000
1014343.000000
1015378.000000
1016369.000000
1017351.000000
1018364.000000
1019364.000000
1020317.000000
1021287.000000
1022250.000000
1023187.000000
1024216.000000
1025266.000000
1026277.000000
1027338.000000
1028393.000000
1029387.000000
1030412.000000
1031489.000000
1032478.000000
1033435.000000
1034430.000000
1035462.000000
1036496.000000
1037451.000000
1038456.000000
1039540.000000
1040541.000000
1041521.000000
1042657.000000
1043698.000000
1044692.000000
1045752.000000
1046802.000000
1047842.000000
1048906.000000
1049930.000000
1051006.000000
1052076.000000
1053134.000000
1054170.000000
1055131.000000
1056112.000000
1057126.000000
1058133.000000
1059134.000000
1060242.000000
1061311.000000
1062341.000000
1063433.000000
1064570.000000
1065669.000000
1066774.000000
1067790.000000
1068771.000000
1069785.000000
1070768.000000
1071695.000000
1072617.000000
1073624.000000
1074681.000000
1075672.000000
1076788.000000
1077919.000000
1079088.000000
1080205.000000
1081265.000000
1082316.000000
1083311.000000
1084321.000000
1085324.000000
1086306.000000
1087355.000000
1088463.000000
1089491.000000
1090537.000000
1091575.000000
1092539.000000
1093517.000000
1094564.000000
1095537.000000
1096527.000000
1097576.000000
1098581.000000
1099502.000000
1100463.000000
1101584.000000
1102710.000000
1103731.000000
1104877.000000
1105993.000000
1107040.000000
1108099.000000
1109111.000000
1110059.000000
1111003.000000
1112046.000000
1113108.000000
1114118.000000
1115105.000000
1116154.000000
1117287.000000
1118453.000000
1119634.000000
1120680.000000
1121659.000000
1122692.000000
1123740.000000
1124759.000000
1125721.000000
1126727.000000
1127792.000000
1128846.000000
1129864.000000
1130817.000000
1131802.000000
1132772.000000
1133736.000000
1134761.000000
1135785.000000
1136750.000000
1137742.000000
1138752.000000
1139697.000000
1140626.000000
1141572.000000
1142506.000000
1143402.000000
1144281.000000
1145214.000000
1146163.000000
1147059.000000
1148002.000000
1148926.000000
1149806.000000
1150684.000000
1151628.000000
1152575.000000
1153481.000000
1154423.000000
1155349.000000
1156232.000000
1157140.000000
1158071.000000
1158984.000000
1159901.000000
1160905.000000
1161899.000000
1162870.000000
1163882.000000
1164907.000000
1165879.000000
1166901.000000
1167912.000000
1168849.000000
1169739.000000
1170653.000000
1171691.000000
1172766.000000
1173858.000000
1174929.000000
1176010.000000
1177050.000000
1178106.000000
1179108.000000
1180081.000000
1181107.000000
1182122.000000
1183113.000000
1184135.000000
1185158.000000
1186164.000000
1187191.000000
1188189.000000
1189177.000000
1190206.000000
1191167.000000
1192139.000000
1193155.000000
1194101.000000
1195080.000000
1196125.000000
1197078.000000
1197963.000000
1198889.000000
1199905.000000
1200934.000000
1201951.000000
1203058.000000
1204128.000000
1205126.000000
1206159.000000
1207174.000000
1208225.000000
1209248.000000
1210177.000000
1211165.000000
1212139.000000
1213068.000000
1214153.000000
1215305.000000
1216332.000000
1217287.000000
