ECG (ms)
167.000000
950.000000
1737.000000
2508.000000
3260.000000
4030.000000
4789.000000
5556.000000
6300.000000
7050.000000
7815.000000
8591.000000
9362.000000
10112.000000
10859.000000
11617.000000
12395.000000
13203.000000
14009.000000
14798.000000
15578.000000
16349.000000
17124.000000
17891.000000
18656.000000
19419.000000
20193.000000
20974.000000
21768.000000
22567.000000
23357.000000
24127.000000
24884.000000
25654.000000
26438.000000
27212.000000
27974.000000
28733.000000
29512.000000
30314.000000
31120.000000
31901.000000
32654.000000
33416.000000
34180.000000
34956.000000
35745.000000
36543.000000
37349.000000
38167.000000
38991.000000
39811.000000
40632.000000
41416.000000
42192.000000
42978.000000
43779.000000
44583.000000
45368.000000
46137.000000
46903.000000
47692.000000
48505.000000
49347.000000
50154.000000
50949.000000
51748.000000
52557.000000
53362.000000
54151.000000
54923.000000
55690.000000
56477.000000
57278.000000
58105.000000
58907.000000
59684.000000
60459.000000
61238.000000
62026.000000
62835.000000
63624.000000
64394.000000
65172.000000
65952.000000
66746.000000
67559.000000
68349.000000
69126.000000
69904.000000
70692.000000
71479.000000
72265.000000
73040.000000
73812.000000
74599.000000
75405.000000
76215.000000
77001.000000
77763.000000
78517.000000
79279.000000
80063.000000
80869.000000
81647.000000
82428.000000
83227.000000
84053.000000
84866.000000
85639.000000
86399.000000
87152.000000
87916.000000
88688.000000
89460.000000
90222.000000
90971.000000
91714.000000
92474.000000
93231.000000
93980.000000
94703.000000
95419.000000
96124.000000
96834.000000
97563.000000
98330.000000
99078.000000
99825.000000
100556.000000
101311.000000
102158.000000
103018.000000
103926.000000
104846.000000
105766.000000
106628.000000
107440.000000
108260.000000
109077.000000
109920.000000
110755.000000
111582.000000
112385.000000
113192.000000
114012.000000
114852.000000
115687.000000
116482.000000
117257.000000
118043.000000
118832.000000
119624.000000
120422.000000
121220.000000
122012.000000
122815.000000
123631.000000
124442.000000
125232.000000
126003.000000
126788.000000
127595.000000
128405.000000
129185.000000
129964.000000
130751.000000
131545.000000
132333.000000
133099.000000
133864.000000
134640.000000
135434.000000
136220.000000
136993.000000
137759.000000
138545.000000
139340.000000
140138.000000
140942.000000
141740.000000
142559.000000
143376.000000
144176.000000
144953.000000
145745.000000
146549.000000
147373.000000
148167.000000
148947.000000
149723.000000
150498.000000
151277.000000
152045.000000
152795.000000
153546.000000
154320.000000
155113.000000
155906.000000
156680.000000
157449.000000
158222.000000
159004.000000
159774.000000
160527.000000
161287.000000
162056.000000
162839.000000
163611.000000
164370.000000
165125.000000
165890.000000
166669.000000
167452.000000
168212.000000
168984.000000
169768.000000
170578.000000
171350.000000
172101.000000
172847.000000
173608.000000
174376.000000
175148.000000
175900.000000
176640.000000
177392.000000
178160.000000
178941.000000
179699.000000
180442.000000
181190.000000
181960.000000
182726.000000
183485.000000
184226.000000
184972.000000
185743.000000
186532.000000
187317.000000
188084.000000
188851.000000
189629.000000
190410.000000
191189.000000
191947.000000
192708.000000
193484.000000
194264.000000
195032.000000
195785.000000
196545.000000
197320.000000
198112.000000
198886.000000
199641.000000
200397.000000
201159.000000
201924.000000
202695.000000
203471.000000
204246.000000
205048.000000
205854.000000
206628.000000
207389.000000
208156.000000
208934.000000
209727.000000
210501.000000
211257.000000
212019.000000
212806.000000
213605.000000
214390.000000
215158.000000
215927.000000
216708.000000
217480.000000
218237.000000
218990.000000
219756.000000
220531.000000
221318.000000
222087.000000
222844.000000
223600.000000
224370.000000
225147.000000
225910.000000
226655.000000
227399.000000
228164.000000
228948.000000
229722.000000
230487.000000
231264.000000
232053.000000
232849.000000
233627.000000
234384.000000
235156.000000
235929.000000
236718.000000
237486.000000
238261.000000
239049.000000
239858.000000
240656.000000
241434.000000
242213.000000
243000.000000
243792.000000
244560.000000
245330.000000
246131.000000
246957.000000
247761.000000
248540.000000
249337.000000
250166.000000
251017.000000
251831.000000
252630.000000
253454.000000
254283.000000
255105.000000
255903.000000
256698.000000
257512.000000
258319.000000
259114.000000
259899.000000
260692.000000
261504.000000
262333.000000
263140.000000
263919.000000
264700.000000
265487.000000
266271.000000
267042.000000
267803.000000
268579.000000
269385.000000
270203.000000
271016.000000
271817.000000
272628.000000
273459.000000
274269.000000
275054.000000
275844.000000
276646.000000
277465.000000
278273.000000
279062.000000
279862.000000
280686.000000
281533.000000
282357.000000
283151.000000
283951.000000
284760.000000
285583.000000
286379.000000
287173.000000
287983.000000
288805.000000
289607.000000
290386.000000
291172.000000
291984.000000
292799.000000
293598.000000
294382.000000
295186.000000
296015.000000
296861.000000
297687.000000
298481.000000
299308.000000
300169.000000
301041.000000
301867.000000
302687.000000
303520.000000
304341.000000
305143.000000
305925.000000
306696.000000
307478.000000
308267.000000
309044.000000
309815.000000
310624.000000
311468.000000
312316.000000
313139.000000
313982.000000
314847.000000
315701.000000
316520.000000
317315.000000
318137.000000
318962.000000
319774.000000
320566.000000
321368.000000
322189.000000
323032.000000
323847.000000
324645.000000
325459.000000
326298.000000
327153.000000
327990.000000
328795.000000
329581.000000
330386.000000
331222.000000
332051.000000
332856.000000
333676.000000
334517.000000
335353.000000
336157.000000
336965.000000
337789.000000
338619.000000
339420.000000
340212.000000
341036.000000
341903.000000
342769.000000
343595.000000
344409.000000
345228.000000
346048.000000
346851.000000
347633.000000
348429.000000
349240.000000
350064.000000
350868.000000
351689.000000
352545.000000
353410.000000
354256.000000
355083.000000
355919.000000
356755.000000
357591.000000
358400.000000
359190.000000
359978.000000
360766.000000
361555.000000
362329.000000
363109.000000
363913.000000
364751.000000
365586.000000
366378.000000
367151.000000
367899.000000
368641.000000
369363.000000
370090.000000
370842.000000
371621.000000
372390.000000
373154.000000
373943.000000
374728.000000
375485.000000
376220.000000
376964.000000
377715.000000
378464.000000
379196.000000
379921.000000
380666.000000
381425.000000
382172.000000
382902.000000
383635.000000
384384.000000
385177.000000
385948.000000
386695.000000
387441.000000
388199.000000
388963.000000
389722.000000
390475.000000
391247.000000
392045.000000
392879.000000
393687.000000
394482.000000
395294.000000
396116.000000
396934.000000
397725.000000
398511.000000
399305.000000
400106.000000
400890.000000
401656.000000
402429.000000
403212.000000
404000.000000
404772.000000
405531.000000
406312.000000
407096.000000
407863.000000
408606.000000
409358.000000
410114.000000
410885.000000
411637.000000
412378.000000
413146.000000
413938.000000
414747.000000
415539.000000
416319.000000
417095.000000
417880.000000
418654.000000
419416.000000
420195.000000
420981.000000
421744.000000
422495.000000
423255.000000
424024.000000
424780.000000
425523.000000
426269.000000
427038.000000
427824.000000
428585.000000
429342.000000
430118.000000
430909.000000
431688.000000
432456.000000
433249.000000
434064.000000
434903.000000
435736.000000
436545.000000
437361.000000
438189.000000
438986.000000
439757.000000
440535.000000
441338.000000
442164.000000
442975.000000
443795.000000
444638.000000
445492.000000
446321.000000
447174.000000
448050.000000
448884.000000
449685.000000
450490.000000
451305.000000
452130.000000
452932.000000
453740.000000
454573.000000
455421.000000
456232.000000
457021.000000
457836.000000
458672.000000
459487.000000
460290.000000
461115.000000
461967.000000
462790.000000
463590.000000
464415.000000
465263.000000
466094.000000
466888.000000
467703.000000
468536.000000
469372.000000
470182.000000
470991.000000
471831.000000
472678.000000
473499.000000
474308.000000
475135.000000
475999.000000
476841.000000
477646.000000
478470.000000
479305.000000
480131.000000
480921.000000
481677.000000
482426.000000
483183.000000
483941.000000
484684.000000
485432.000000
486219.000000
487035.000000
487827.000000
488612.000000
489423.000000
490219.000000
490978.000000
491729.000000
492489.000000
493250.000000
493984.000000
494717.000000
495467.000000
496227.000000
496973.000000
497713.000000
498455.000000
499204.000000
499937.000000
500655.000000
501376.000000
502118.000000
502873.000000
503613.000000
504349.000000
505104.000000
505874.000000
506636.000000
507370.000000
508102.000000
508840.000000
509590.000000
510355.000000
511113.000000
511879.000000
512665.000000
513454.000000
514213.000000
514951.000000
515691.000000
516427.000000
517156.000000
517878.000000
518620.000000
519382.000000
520170.000000
520925.000000
521691.000000
522487.000000
523277.000000
524037.000000
524786.000000
525531.000000
526271.000000
526989.000000
527703.000000
528428.000000
529169.000000
529917.000000
530648.000000
531381.000000
532135.000000
532897.000000
533637.000000
534362.000000
535095.000000
535839.000000
536585.000000
537312.000000
538046.000000
538800.000000
539557.000000
540292.000000
541025.000000
541777.000000
542533.000000
543278.000000
544015.000000
544765.000000
545534.000000
546304.000000
547050.000000
547804.000000
548572.000000
549336.000000
550077.000000
550797.000000
551528.000000
552274.000000
553037.000000
553790.000000
554554.000000
555337.000000
556151.000000
556944.000000
557724.000000
558522.000000
559360.000000
560193.000000
560992.000000
561817.000000
562664.000000
563495.000000
564288.000000
565070.000000
565889.000000
566741.000000
567613.000000
568466.000000
569286.000000
570118.000000
570973.000000
571808.000000
572621.000000
573440.000000
574278.000000
575125.000000
575940.000000
576732.000000
577540.000000
578371.000000
579211.000000
580015.000000
580824.000000
581671.000000
582548.000000
583410.000000
584250.000000
585074.000000
585913.000000
586765.000000
587595.000000
588425.000000
589276.000000
590132.000000
590955.000000
591755.000000
592552.000000
593365.000000
594188.000000
594977.000000
595773.000000
596594.000000
597441.000000
598269.000000
599076.000000
599907.000000
600745.000000
601555.000000
602358.000000
603197.000000
604063.000000
604906.000000
605753.000000
606627.000000
607443.000000
608227.000000
609023.000000
609844.000000
610685.000000
611504.000000
612340.000000
613201.000000
614032.000000
614832.000000
615637.000000
616475.000000
617336.000000
618169.000000
618965.000000
619794.000000
620661.000000
621521.000000
622355.000000
623168.000000
624008.000000
624864.000000
625691.000000
626485.000000
627293.000000
628117.000000
628953.000000
629770.000000
630556.000000
631359.000000
632198.000000
633036.000000
633838.000000
634618.000000
635427.000000
636256.000000
637078.000000
637879.000000
638671.000000
639495.000000
640336.000000
641151.000000
641947.000000
642763.000000
643587.000000
644393.000000
645177.000000
645961.000000
646761.000000
647571.000000
648364.000000
649149.000000
649952.000000
650769.000000
651553.000000
652331.000000
653137.000000
653999.000000
654851.000000
655659.000000
656463.000000
657289.000000
658125.000000
658947.000000
659755.000000
660584.000000
661435.000000
662300.000000
663133.000000
663953.000000
664783.000000
665615.000000
666424.000000
667226.000000
668042.000000
668866.000000
669686.000000
670475.000000
671268.000000
672076.000000
672896.000000
673706.000000
674493.000000
675286.000000
676091.000000
676883.000000
677658.000000
678438.000000
679211.000000
679966.000000
680703.000000
681406.000000
682098.000000
682798.000000
683526.000000
684248.000000
684989.000000
685756.000000
686582.000000
687406.000000
688192.000000
688992.000000
689796.000000
690579.000000
691335.000000
692105.000000
692909.000000
693760.000000
694612.000000
695455.000000
696311.000000
697169.000000
698010.000000
698833.000000
699673.000000
700540.000000
701418.000000
702259.000000
703101.000000
703958.000000
704830.000000
705716.000000
706542.000000
707344.000000
708159.000000
708986.000000
709804.000000
710625.000000
711460.000000
712290.000000
713094.000000
713910.000000
714738.000000
715561.000000
716381.000000
717207.000000
718050.000000
718915.000000
719752.000000
720592.000000
721467.000000
722336.000000
723162.000000
723946.000000
724722.000000
725500.000000
726304.000000
727116.000000
727941.000000
728809.000000
729699.000000
730566.000000
731449.000000
732340.000000
733222.000000
734063.000000
734902.000000
735752.000000
736606.000000
737433.000000
738260.000000
739095.000000
739954.000000
740792.000000
741623.000000
742476.000000
743329.000000
744153.000000
744969.000000
745811.000000
746654.000000
747475.000000
748265.000000
749081.000000
749922.000000
750782.000000
751610.000000
752412.000000
753225.000000
754053.000000
754869.000000
755676.000000
756530.000000
757389.000000
758222.000000
759018.000000
759813.000000
760627.000000
761449.000000
762275.000000
763135.000000
764014.000000
764893.000000
765728.000000
766559.000000
767408.000000
768273.000000
769140.000000
769945.000000
770746.000000
771577.000000
772424.000000
773237.000000
774075.000000
774959.000000
775813.000000
776636.000000
777490.000000
778357.000000
779213.000000
780037.000000
780905.000000
781810.000000
782721.000000
783596.000000
784483.000000
785385.000000
786287.000000
787168.000000
788012.000000
788866.000000
789745.000000
790631.000000
791486.000000
792305.000000
793127.000000
793978.000000
794849.000000
795693.000000
796483.000000
797270.000000
798069.000000
798910.000000
799739.000000
800572.000000
801482.000000
802431.000000
803372.000000
804281.000000
805203.000000
806133.000000
807031.000000
807865.000000
808657.000000
809472.000000
810316.000000
811176.000000
812021.000000
812875.000000
813758.000000
814609.000000
815438.000000
816301.000000
817191.000000
818083.000000
818920.000000
819712.000000
820511.000000
821312.000000
822120.000000
822937.000000
823803.000000
824714.000000
825622.000000
826521.000000
827446.000000
828349.000000
829203.000000
830041.000000
830905.000000
831782.000000
832630.000000
833425.000000
834190.000000
834966.000000
835831.000000
836701.000000
837556.000000
838464.000000
839430.000000
840374.000000
841306.000000
842266.000000
843217.000000
844103.000000
844953.000000
845820.000000
846711.000000
847584.000000
848426.000000
849287.000000
850174.000000
851051.000000
851891.000000
852720.000000
853553.000000
854393.000000
855208.000000
856001.000000
856799.000000
857577.000000
858348.000000
859128.000000
859966.000000
860847.000000
861700.000000
862528.000000
863401.000000
864291.000000
865130.000000
865956.000000
866830.000000
867705.000000
868527.000000
869345.000000
870187.000000
871030.000000
871816.000000
872620.000000
873445.000000
874240.000000
875011.000000
875792.000000
876597.000000
877407.000000
878195.000000
878999.000000
879826.000000
880638.000000
881417.000000
882201.000000
883013.000000
883824.000000
884602.000000
885373.000000
886171.000000
886987.000000
887791.000000
888569.000000
889339.000000
890137.000000
890937.000000
891721.000000
892498.000000
893297.000000
894099.000000
894905.000000
895679.000000
896457.000000
897241.000000
898033.000000
898800.000000
899575.000000
900383.000000
901221.000000
902037.000000
902839.000000
903664.000000
904503.000000
905317.000000
906109.000000
906923.000000
907749.000000
908555.000000
909334.000000
910130.000000
910943.000000
911728.000000
912505.000000
913295.000000
914106.000000
914921.000000
915709.000000
916493.000000
917296.000000
918116.000000
918907.000000
919670.000000
920447.000000
921232.000000
921976.000000
922674.000000
923366.000000
924075.000000
924803.000000
925545.000000
926307.000000
927109.000000
927916.000000
928688.000000
929432.000000
930191.000000
930963.000000
931762.000000
932536.000000
933309.000000
934110.000000
934939.000000
935758.000000
936538.000000
937336.000000
938149.000000
938968.000000
939755.000000
940520.000000
941292.000000
942093.000000
942918.000000
943734.000000
944557.000000
945405.000000
946241.000000
947035.000000
947830.000000
948618.000000
949396.000000
950146.000000
950893.000000
951655.000000
952431.000000
953197.000000
953958.000000
954735.000000
955525.000000
956296.000000
957043.000000
957795.000000
958555.000000
959324.000000
960071.000000
960830.000000
961619.000000
962427.000000
963208.000000
963982.000000
964769.000000
965554.000000
966316.000000
967076.000000
967844.000000
968628.000000
969386.000000
970144.000000
970907.000000
971688.000000
972449.000000
973206.000000
973975.000000
974757.000000
975506.000000
976257.000000
977023.000000
977797.000000
978549.000000
979301.000000
980080.000000
980884.000000
981665.000000
982442.000000
983243.000000
984060.000000
984858.000000
985632.000000
986424.000000
987218.000000
988012.000000
988787.000000
989570.000000
990361.000000
991180.000000
991977.000000
992750.000000
993531.000000
994321.000000
995114.000000
995883.000000
996670.000000
997469.000000
998286.000000
999090.000000
999880.000000
1000695.000000
1001530.000000
1002322.000000
1003101.000000
1003899.000000
1004707.000000
1005503.000000
1006289.000000
1007103.000000
1007931.000000
1008753.000000
1009553.000000
1010358.000000
1011172.000000
1011960.000000
1012728.000000
1013518.000000
1014331.000000
1015131.000000
1015901.000000
1016693.000000
1017497.000000
1018297.000000
1019067.000000
1019858.000000
1020682.000000
1021538.000000
1022380.000000
1023215.000000
1024095.000000
1024991.000000
1025864.000000
1026693.000000
1027488.000000
1028292.000000
1029117.000000
1029926.000000
1030745.000000
1031614.000000
1032523.000000
1033399.000000
1034272.000000
1035155.000000
1036038.000000
1036883.000000
1037729.000000
1038588.000000
1039462.000000
1040300.000000
1041147.000000
1041987.000000
1042844.000000
1043683.000000
1044515.000000
1045354.000000
1046189.000000
1047003.000000
1047786.000000
1048592.000000
1049420.000000
1050260.000000
1051070.000000
1051852.000000
1052642.000000
1053445.000000
1054249.000000
1055033.000000
1055830.000000
1056654.000000
1057517.000000
1058341.000000
1059138.000000
1059961.000000
1060800.000000
1061644.000000
1062465.000000
1063280.000000
1064091.000000
1064898.000000
1065688.000000
1066474.000000
1067273.000000
1068120.000000
1068998.000000
1069875.000000
1070730.000000
1071609.000000
1072506.000000
1073371.000000
1074178.000000
1074947.000000
1075724.000000
1076538.000000
1077396.000000
1078269.000000
1079133.000000
1080066.000000
1081015.000000
1081916.000000
1082746.000000
1083545.000000
1084358.000000
1085155.000000
1085932.000000
1086722.000000
1087540.000000
1088372.000000
1089157.000000
1089966.000000
1090819.000000
1091653.000000
1092446.000000
1093266.000000
1094114.000000
1094944.000000
1095750.000000
1096570.000000
1097419.000000
1098275.000000
1099096.000000
1099917.000000
1100766.000000
1101619.000000
1102448.000000
1103251.000000
1104061.000000
1104873.000000
1105669.000000
1106446.000000
1107248.000000
1108074.000000
1108887.000000
1109683.000000
1110480.000000
1111296.000000
1112142.000000
1112952.000000
1113745.000000
1114554.000000
1115375.000000
1116180.000000
1116974.000000
1117790.000000
1118629.000000
1119487.000000
1120358.000000
1121203.000000
1122048.000000
1122898.000000
1123733.000000
1124553.000000
1125343.000000
1126145.000000
1126951.000000
1127731.000000
1128493.000000
1129287.000000
1130114.000000
1130951.000000
1131781.000000
1132646.000000
1133529.000000
1134384.000000
1135215.000000
1136041.000000
1136861.000000
1137655.000000
1138459.000000
1139288.000000
1140127.000000
1140938.000000
1141727.000000
1142542.000000
1143348.000000
1144117.000000
1144887.000000
1145710.000000
1146560.000000
1147384.000000
1148186.000000
1149026.000000
1149911.000000
1150781.000000
1151620.000000
1152481.000000
1153349.000000
1154201.000000
1154986.000000
1155742.000000
1156507.000000
1157282.000000
1158065.000000
1158890.000000
1159786.000000
1160672.000000
1161555.000000
1162491.000000
1163441.000000
1164347.000000
1165261.000000
1166166.000000
1167039.000000
1167874.000000
1168701.000000
1169537.000000
1170345.000000
1171134.000000
1171955.000000
1172808.000000
1173667.000000
1174491.000000
1175289.000000
1176107.000000
1176936.000000
1177756.000000
1178567.000000
1179424.000000
1180302.000000
1181167.000000
1181994.000000
1182814.000000
1183653.000000
1184494.000000
1185311.000000
1186121.000000
1186967.000000
1187823.000000
1188651.000000
1189458.000000
1190267.000000
1191073.000000
1191849.000000
1192607.000000
1193395.000000
1194210.000000
1195013.000000
1195802.000000
1196649.000000
1197552.000000
1198404.000000
1199245.000000
1200109.000000
1200972.000000
1201791.000000
1202630.000000
