ECG (ms)
1.000000
1159.000000
1992.000000
2815.000000
3633.000000
4449.000000
5255.000000
6086.000000
6916.000000
7749.000000
8569.000000
9385.000000
10196.000000
11027.000000
11867.000000
12688.000000
13505.000000
14334.000000
15170.000000
16013.000000
16835.000000
17671.000000
18508.000000
19346.000000
20174.000000
21005.000000
21843.000000
22681.000000
23512.000000
24340.000000
25168.000000
25996.000000
26826.000000
27653.000000
28478.000000
29305.000000
30127.000000
30958.000000
31779.000000
32592.000000
33408.000000
34236.000000
35062.000000
35881.000000
36696.000000
37517.000000
38347.000000
39168.000000
39985.000000
40805.000000
41656.000000
42508.000000
43346.000000
44172.000000
44997.000000
45828.000000
46659.000000
47482.000000
48304.000000
49130.000000
49967.000000
50790.000000
51607.000000
52441.000000
53266.000000
54092.000000
54906.000000
55728.000000
56551.000000
57384.000000
58207.000000
59032.000000
59855.000000
60689.000000
61508.000000
62319.000000
63145.000000
63969.000000
64794.000000
65612.000000
66438.000000
67257.000000
68088.000000
68898.000000
69717.000000
70531.000000
71340.000000
72141.000000
72951.000000
73768.000000
74584.000000
75398.000000
76212.000000
77040.000000
77864.000000
78677.000000
79483.000000
80294.000000
81102.000000
81909.000000
82711.000000
83513.000000
84317.000000
85131.000000
85947.000000
86766.000000
87583.000000
88394.000000
89202.000000
90002.000000
90804.000000
91604.000000
92405.000000
93200.000000
94002.000000
94818.000000
95638.000000
96447.000000
97252.000000
98064.000000
98862.000000
99639.000000
100416.000000
101200.000000
101989.000000
102780.000000
103594.000000
104422.000000
105255.000000
106078.000000
106925.000000
107773.000000
108609.000000
109430.000000
110256.000000
111088.000000
111912.000000
112745.000000
113587.000000
114420.000000
115243.000000
116063.000000
116886.000000
117712.000000
118531.000000
119336.000000
120154.000000
120968.000000
121783.000000
122585.000000
123394.000000
124203.000000
125031.000000
125846.000000
126667.000000
127478.000000
128293.000000
129109.000000
129927.000000
130745.000000
131569.000000
132385.000000
133188.000000
134000.000000
134808.000000
135607.000000
136411.000000
137062.000000
138002.000000
138804.000000
139601.000000
140403.000000
141214.000000
142022.000000
142839.000000
143658.000000
144491.000000
145312.000000
146131.000000
146950.000000
147793.000000
148615.000000
149434.000000
150247.000000
151062.000000
151872.000000
152689.000000
153514.000000
154343.000000
155163.000000
155974.000000
156879.000000
157695.000000
158499.000000
159306.000000
160118.000000
160916.000000
161715.000000
162515.000000
163320.000000
164134.000000
164953.000000
165772.000000
166608.000000
167437.000000
168274.000000
169107.000000
169929.000000
170764.000000
171595.000000
172426.000000
173246.000000
174069.000000
174899.000000
175729.000000
176581.000000
177413.000000
178240.000000
179064.000000
179884.000000
180704.000000
181518.000000
182343.000000
183168.000000
184001.000000
184829.000000
185671.000000
186519.000000
187369.000000
188215.000000
189073.000000
189921.000000
190765.000000
191601.000000
192435.000000
193270.000000
194105.000000
194940.000000
195767.000000
196600.000000
197432.000000
198263.000000
199097.000000
199919.000000
200740.000000
201556.000000
202354.000000
203139.000000
203923.000000
204716.000000
205518.000000
206324.000000
207146.000000
207974.000000
208816.000000
209652.000000
210490.000000
211333.000000
212187.000000
213023.000000
213858.000000
214690.000000
215538.000000
216378.000000
217223.000000
218085.000000
218930.000000
219775.000000
220610.000000
221444.000000
222281.000000
223127.000000
223956.000000
224781.000000
225611.000000
226436.000000
227266.000000
228085.000000
228907.000000
229735.000000
230562.000000
231379.000000
232195.000000
233022.000000
233849.000000
234676.000000
235489.000000
236320.000000
237159.000000
237997.000000
238825.000000
239645.000000
240474.000000
241314.000000
242151.000000
242981.000000
243795.000000
244624.000000
245445.000000
246272.000000
247088.000000
247914.000000
248752.000000
249585.000000
250417.000000
251242.000000
252082.000000
252912.000000
253754.000000
254577.000000
255397.000000
256215.000000
257039.000000
257856.000000
258672.000000
259491.000000
260311.000000
261138.000000
261963.000000
262790.000000
263617.000000
264452.000000
265283.000000
266124.000000
266969.000000
267824.000000
268664.000000
269511.000000
270363.000000
271218.000000
272071.000000
272921.000000
273778.000000
274633.000000
275485.000000
276326.000000
277162.000000
278005.000000
278855.000000
279692.000000
280517.000000
281338.000000
282162.000000
282984.000000
283805.000000
284626.000000
285448.000000
286278.000000
287100.000000
287909.000000
288719.000000
289535.000000
290351.000000
291168.000000
291977.000000
292798.000000
293617.000000
294438.000000
295264.000000
296087.000000
296912.000000
297745.000000
298570.000000
299372.000000
300305.000000
301151.000000
301980.000000
302814.000000
303634.000000
304450.000000
305255.000000
306071.000000
306893.000000
307718.000000
308547.000000
309354.000000
310167.000000
310992.000000
311826.000000
312660.000000
313497.000000
314325.000000
315145.000000
315943.000000
316743.000000
317546.000000
318362.000000
319180.000000
319997.000000
320810.000000
321620.000000
322427.000000
323233.000000
324034.000000
324852.000000
325674.000000
326494.000000
327312.000000
328128.000000
328936.000000
329754.000000
330571.000000
331390.000000
332213.000000
333031.000000
333848.000000
334662.000000
335482.000000
336303.000000
337137.000000
337971.000000
338799.000000
339615.000000
340426.000000
341250.000000
342067.000000
342876.000000
343698.000000
344525.000000
345345.000000
346157.000000
346962.000000
347782.000000
348594.000000
349415.000000
350246.000000
351078.000000
351889.000000
352698.000000
353519.000000
354351.000000
355178.000000
355993.000000
356812.000000
357626.000000
358422.000000
359206.000000
359993.000000
360787.000000
361578.000000
362393.000000
363189.000000
363986.000000
364791.000000
365602.000000
366418.000000
367220.000000
368021.000000
368829.000000
369635.000000
370434.000000
371234.000000
372041.000000
372845.000000
373662.000000
374446.000000
375223.000000
375987.000000
376754.000000
377531.000000
378314.000000
379098.000000
379916.000000
380730.000000
381541.000000
382334.000000
383114.000000
383745.000000
384672.000000
385408.000000
386130.000000
386844.000000
387545.000000
388255.000000
388972.000000
389693.000000
390417.000000
391148.000000
391879.000000
392613.000000
393335.000000
394054.000000
394779.000000
395513.000000
396256.000000
397014.000000
397773.000000
398531.000000
399322.000000
400103.000000
400883.000000
402382.000000
403105.000000
403813.000000
404520.000000
405232.000000
405945.000000
406658.000000
407378.000000
408106.000000
408836.000000
409571.000000
410320.000000
411097.000000
411891.000000
412689.000000
413487.000000
414285.000000
415072.000000
415860.000000
416644.000000
417424.000000
418211.000000
418980.000000
419731.000000
420484.000000
421242.000000
422021.000000
422799.000000
423577.000000
424375.000000
425178.000000
425997.000000
426812.000000
427617.000000
428415.000000
429212.000000
430006.000000
430798.000000
431590.000000
432387.000000
433179.000000
433982.000000
434782.000000
435578.000000
436379.000000
437182.000000
437991.000000
438798.000000
439596.000000
440384.000000
441168.000000
441958.000000
442748.000000
443531.000000
444309.000000
445095.000000
445889.000000
446679.000000
447472.000000
448259.000000
449035.000000
449802.000000
450560.000000
451323.000000
452087.000000
452868.000000
453646.000000
454435.000000
455232.000000
456034.000000
456823.000000
457619.000000
458413.000000
459210.000000
460017.000000
460820.000000
461628.000000
462441.000000
463262.000000
464094.000000
464920.000000
465735.000000
466555.000000
467375.000000
468218.000000
469049.000000
469875.000000
470704.000000
471538.000000
472356.000000
473183.000000
473999.000000
474806.000000
475613.000000
476421.000000
477225.000000
478035.000000
478847.000000
479658.000000
480477.000000
481296.000000
482115.000000
482936.000000
483750.000000
484580.000000
485390.000000
486203.000000
487011.000000
487825.000000
488647.000000
489456.000000
490270.000000
491082.000000
491899.000000
492707.000000
493527.000000
494333.000000
495135.000000
495927.000000
496765.000000
497620.000000
498438.000000
499247.000000
500045.000000
500839.000000
501628.000000
502416.000000
503212.000000
504015.000000
504819.000000
505626.000000
506429.000000
507227.000000
508027.000000
508821.000000
509623.000000
510424.000000
511222.000000
512020.000000
512815.000000
513605.000000
514411.000000
515205.000000
516011.000000
516808.000000
517603.000000
518398.000000
519198.000000
520002.000000
520807.000000
521604.000000
522408.000000
523227.000000
524052.000000
524881.000000
525697.000000
526519.000000
527334.000000
528172.000000
529002.000000
529835.000000
530658.000000
531476.000000
532297.000000
533111.000000
533926.000000
534732.000000
535550.000000
536361.000000
537177.000000
537991.000000
538805.000000
539617.000000
540438.000000
541257.000000
542079.000000
542898.000000
543715.000000
544542.000000
545357.000000
546180.000000
547007.000000
547845.000000
548683.000000
549518.000000
550359.000000
551214.000000
552060.000000
552899.000000
553736.000000
554591.000000
555430.000000
556274.000000
557130.000000
557961.000000
558792.000000
559623.000000
560460.000000
561292.000000
562127.000000
562947.000000
563777.000000
564608.000000
565430.000000
566260.000000
567097.000000
567954.000000
568785.000000
569627.000000
570448.000000
571261.000000
572061.000000
572840.000000
573618.000000
574398.000000
575185.000000
576096.000000
576931.000000
577756.000000
578588.000000
579416.000000
580253.000000
581074.000000
581887.000000
582692.000000
583508.000000
584320.000000
585145.000000
585963.000000
586782.000000
587605.000000
588427.000000
589249.000000
590097.000000
590925.000000
591758.000000
592608.000000
593437.000000
594260.000000
595089.000000
595920.000000
596754.000000
597592.000000
598454.000000
599297.000000
600138.000000
600973.000000
601808.000000
602628.000000
603435.000000
604247.000000
605056.000000
605878.000000
606711.000000
607552.000000
608395.000000
609227.000000
610055.000000
610881.000000
611707.000000
612539.000000
613366.000000
614200.000000
615034.000000
615866.000000
616704.000000
617552.000000
618405.000000
619255.000000
620097.000000
620941.000000
621794.000000
622645.000000
623485.000000
624326.000000
625166.000000
626006.000000
626845.000000
627691.000000
628540.000000
629383.000000
630244.000000
631087.000000
631927.000000
632774.000000
633622.000000
634476.000000
635310.000000
636142.000000
636979.000000
637815.000000
638654.000000
639495.000000
640343.000000
641178.000000
642011.000000
642836.000000
643680.000000
644527.000000
645350.000000
646164.000000
646966.000000
647763.000000
648568.000000
649366.000000
650178.000000
650983.000000
651794.000000
652615.000000
653434.000000
654251.000000
655066.000000
655906.000000
656729.000000
657555.000000
658386.000000
659220.000000
660061.000000
660897.000000
661721.000000
662539.000000
663369.000000
664198.000000
665026.000000
665851.000000
666693.000000
667531.000000
668376.000000
669221.000000
670054.000000
670898.000000
671721.000000
672541.000000
673360.000000
674193.000000
675026.000000
675859.000000
676813.000000
