ECG (ms)
520.000000
1345.000000
2159.000000
2935.000000
3736.000000
4597.000000
5435.000000
6233.000000
7004.000000
7804.000000
8686.000000
9635.000000
10524.000000
11339.000000
12165.000000
13038.000000
13944.000000
14788.000000
15568.000000
16351.000000
17165.000000
18019.000000
18880.000000
19671.000000
20425.000000
21190.000000
22000.000000
22852.000000
23745.000000
24548.000000
25321.000000
26128.000000
27002.000000
27898.000000
28761.000000
29645.000000
30575.000000
31427.000000
32249.000000
33099.000000
34002.000000
34991.000000
35929.000000
36773.000000
37681.000000
38618.000000
39547.000000
40415.000000
41237.000000
42022.000000
42864.000000
43812.000000
44734.000000
45637.000000
46514.000000
47362.000000
48220.000000
49087.000000
49954.000000
50801.000000
51627.000000
52493.000000
53394.000000
54335.000000
55257.000000
56108.000000
56970.000000
57839.000000
58733.000000
59630.000000
60515.000000
61416.000000
62342.000000
63300.000000
64193.000000
65038.000000
65902.000000
66769.000000
67636.000000
68458.000000
69247.000000
70053.000000
70913.000000
71811.000000
72706.000000
73567.000000
74452.000000
75369.000000
76319.000000
77214.000000
78065.000000
78913.000000
79762.000000
80627.000000
81482.000000
82338.000000
83192.000000
84046.000000
84885.000000
85701.000000
86519.000000
87382.000000
88278.000000
89182.000000
90047.000000
90869.000000
91677.000000
92544.000000
93437.000000
94331.000000
95182.000000
96012.000000
96866.000000
97726.000000
98617.000000
99464.000000
100280.000000
101118.000000
102018.000000
102928.000000
103840.000000
104710.000000
105572.000000
106422.000000
107279.000000
108128.000000
108953.000000
109810.000000
110684.000000
111550.000000
112378.000000
113239.000000
114148.000000
115082.000000
116013.000000
116878.000000
117701.000000
118568.000000
119473.000000
120389.000000
121296.000000
122158.000000
123036.000000
123928.000000
124850.000000
125728.000000
126566.000000
127427.000000
128325.000000
129252.000000
130194.000000
131060.000000
131894.000000
132771.000000
133675.000000
134582.000000
135443.000000
136249.000000
137102.000000
138017.000000
138920.000000
139808.000000
140648.000000
141459.000000
142249.000000
143078.000000
143936.000000
144801.000000
145666.000000
146477.000000
147252.000000
148042.000000
148884.000000
149776.000000
150675.000000
151547.000000
152410.000000
153232.000000
154024.000000
154840.000000
155724.000000
156625.000000
157511.000000
158399.000000
159237.000000
160040.000000
160870.000000
161755.000000
162637.000000
163511.000000
164353.000000
165204.000000
166104.000000
167016.000000
167938.000000
168856.000000
169766.000000
170613.000000
171425.000000
172259.000000
173155.000000
174074.000000
174979.000000
175873.000000
176706.000000
177491.000000
178314.000000
179219.000000
180157.000000
181094.000000
181995.000000
182834.000000
183618.000000
184406.000000
185240.000000
186130.000000
187065.000000
187960.000000
188807.000000
189602.000000
190398.000000
191238.000000
192098.000000
192976.000000
193838.000000
194663.000000
195508.000000
196392.000000
197283.000000
198166.000000
199010.000000
199869.000000
200770.000000
201674.000000
202579.000000
203475.000000
204382.000000
205282.000000
206119.000000
206899.000000
207694.000000
208545.000000
209495.000000
210441.000000
211346.000000
212191.000000
212998.000000
213836.000000
214739.000000
215646.000000
216556.000000
217427.000000
218256.000000
219067.000000
219943.000000
220843.000000
221760.000000
222672.000000
223543.000000
224380.000000
225262.000000
226171.000000
227082.000000
227997.000000
228880.000000
229709.000000
230515.000000
231361.000000
232229.000000
233100.000000
233972.000000
234811.000000
235649.000000
236518.000000
237393.000000
238298.000000
239185.000000
240024.000000
240832.000000
241637.000000
242489.000000
243346.000000
244209.000000
245046.000000
245846.000000
246669.000000
247547.000000
248442.000000
249333.000000
250186.000000
250997.000000
251805.000000
252645.000000
253511.000000
254385.000000
255237.000000
256034.000000
256813.000000
257627.000000
258472.000000
259336.000000
260145.000000
260948.000000
261786.000000
262670.000000
263545.000000
264422.000000
265267.000000
266093.000000
266957.000000
267844.000000
268753.000000
269630.000000
270444.000000
271267.000000
272146.000000
273044.000000
273951.000000
274871.000000
275742.000000
276603.000000
277508.000000
278423.000000
279358.000000
280289.000000
281149.000000
281973.000000
282818.000000
283741.000000
284690.000000
285649.000000
286611.000000
287562.000000
288470.000000
289347.000000
290263.000000
291203.000000
292157.000000
293088.000000
293958.000000
294802.000000
295666.000000
296556.000000
297461.000000
298351.000000
299181.000000
299998.000000
300864.000000
301755.000000
302652.000000
303533.000000
304370.000000
305190.000000
306074.000000
306963.000000
307861.000000
308750.000000
309603.000000
310440.000000
311333.000000
312266.000000
313211.000000
314099.000000
314943.000000
315789.000000
316696.000000
317625.000000
318549.000000
319483.000000
320414.000000
321287.000000
322115.000000
322953.000000
323872.000000
324827.000000
325781.000000
326739.000000
327686.000000
328566.000000
329455.000000
330380.000000
331330.000000
332292.000000
333187.000000
334090.000000
335005.000000
335968.000000
336929.000000
337861.000000
338769.000000
339706.000000
340675.000000
341641.000000
342559.000000
343496.000000
344453.000000
345418.000000
346336.000000
347205.000000
348092.000000
348991.000000
349948.000000
350913.000000
351873.000000
352836.000000
353811.000000
354783.000000
355768.000000
356737.000000
357707.000000
358669.000000
359609.000000
360559.000000
361492.000000
362426.000000
363377.000000
364297.000000
365190.000000
366026.000000
366876.000000
367777.000000
368674.000000
369508.000000
370377.000000
371263.000000
372129.000000
372977.000000
373867.000000
374783.000000
375675.000000
376537.000000
377412.000000
378292.000000
379188.000000
380079.000000
380976.000000
381877.000000
382778.000000
383671.000000
384525.000000
385362.000000
386203.000000
387066.000000
387913.000000
388740.000000
389592.000000
390485.000000
391333.000000
392174.000000
393058.000000
393975.000000
394841.000000
395703.000000
396593.000000
397512.000000
398382.000000
399221.000000
400079.000000
400943.000000
401830.000000
402681.000000
403546.000000
404410.000000
405292.000000
406154.000000
407015.000000
407891.000000
408783.000000
409631.000000
410481.000000
411334.000000
412193.000000
413019.000000
413839.000000
414664.000000
415510.000000
416326.000000
417153.000000
417998.000000
418855.000000
419679.000000
420520.000000
421386.000000
422264.000000
423117.000000
423979.000000
424837.000000
425701.000000
426530.000000
427356.000000
428194.000000
429050.000000
429883.000000
430722.000000
431593.000000
432474.000000
433344.000000
434211.000000
435087.000000
435971.000000
436816.000000
437685.000000
438578.000000
439458.000000
440309.000000
441182.000000
442077.000000
442945.000000
443791.000000
444666.000000
445548.000000
446412.000000
447256.000000
448152.000000
449069.000000
449992.000000
450868.000000
451764.000000
452666.000000
453560.000000
454408.000000
455284.000000
456194.000000
457124.000000
458020.000000
458918.000000
459830.000000
460760.000000
461644.000000
462534.000000
463435.000000
464332.000000
465189.000000
466070.000000
466964.000000
467849.000000
468684.000000
469516.000000
470391.000000
471327.000000
472261.000000
473142.000000
474039.000000
474969.000000
475901.000000
476848.000000
477733.000000
478606.000000
479492.000000
480404.000000
481343.000000
482249.000000
483137.000000
484069.000000
485037.000000
486010.000000
486960.000000
487898.000000
488834.000000
489775.000000
490689.000000
491630.000000
492591.000000
493558.000000
494464.000000
495396.000000
496336.000000
497313.000000
498264.000000
499226.000000
500203.000000
501161.000000
502054.000000
502962.000000
503883.000000
504833.000000
505723.000000
506615.000000
507529.000000
508443.000000
509315.000000
510214.000000
511116.000000
511995.000000
512848.000000
513744.000000
514671.000000
515578.000000
516456.000000
517367.000000
518280.000000
519169.000000
520052.000000
520973.000000
521912.000000
522803.000000
523682.000000
524576.000000
525508.000000
526389.000000
527270.000000
528173.000000
529118.000000
530036.000000
530935.000000
531858.000000
532801.000000
533707.000000
534599.000000
535508.000000
536438.000000
537306.000000
538179.000000
539087.000000
540038.000000
540960.000000
541870.000000
542836.000000
543822.000000
544770.000000
545672.000000
546603.000000
547556.000000
548510.000000
549412.000000
550349.000000
551339.000000
552301.000000
553215.000000
554169.000000
555170.000000
556119.000000
557016.000000
557935.000000
558915.000000
559873.000000
560775.000000
561697.000000
562652.000000
563598.000000
564502.000000
565447.000000
566444.000000
567360.000000
568248.000000
569170.000000
570123.000000
571022.000000
571924.000000
572847.000000
573814.000000
574765.000000
575654.000000
576577.000000
577545.000000
578524.000000
579450.000000
580374.000000
581318.000000
582278.000000
583185.000000
584044.000000
584928.000000
585853.000000
586806.000000
587703.000000
588596.000000
589551.000000
590533.000000
591508.000000
592403.000000
593306.000000
594206.000000
595113.000000
595983.000000
596832.000000
597712.000000
598643.000000
599622.000000
600559.000000
601471.000000
602417.000000
603413.000000
604387.000000
605294.000000
606184.000000
607077.000000
607982.000000
608887.000000
609753.000000
610634.000000
611565.000000
612555.000000
613517.000000
614427.000000
615348.000000
616246.000000
617145.000000
618011.000000
618890.000000
619818.000000
620818.000000
621745.000000
622625.000000
623530.000000
624461.000000
625397.000000
626294.000000
627160.000000
628052.000000
628966.000000
629896.000000
630776.000000
631652.000000
632536.000000
633443.000000
634331.000000
635195.000000
636079.000000
637008.000000
637942.000000
638822.000000
639721.000000
640643.000000
641598.000000
642499.000000
643374.000000
644286.000000
645219.000000
646138.000000
647035.000000
647951.000000
648852.000000
649722.000000
650566.000000
651439.000000
652348.000000
653313.000000
654304.000000
655219.000000
656131.000000
657069.000000
658040.000000
658976.000000
659896.000000
660842.000000
661839.000000
662828.000000
663754.000000
664692.000000
665648.000000
666623.000000
667578.000000
668550.000000
669547.000000
670549.000000
671564.000000
672528.000000
673473.000000
674435.000000
675408.000000
676338.000000
677218.000000
678122.000000
679093.000000
680074.000000
680972.000000
681899.000000
682863.000000
683843.000000
684761.000000
685695.000000
686655.000000
687608.000000
688531.000000
689480.000000
690468.000000
691443.000000
692376.000000
693322.000000
694290.000000
695235.000000
696118.000000
697017.000000
697983.000000
698958.000000
699865.000000
700771.000000
701718.000000
702704.000000
703659.000000
704605.000000
705593.000000
706613.000000
707560.000000
708558.000000
709592.000000
710601.000000
711534.000000
712474.000000
713474.000000
714492.000000
715447.000000
716415.000000
717366.000000
718223.000000
719072.000000
719972.000000
720900.000000
721748.000000
722555.000000
723332.000000
724156.000000
724990.000000
725842.000000
726797.000000
727776.000000
728748.000000
729691.000000
730593.000000
731575.000000
732558.000000
733547.000000
734470.000000
735365.000000
736278.000000
737228.000000
738192.000000
739143.000000
740161.000000
741253.000000
742330.000000
743295.000000
744285.000000
745354.000000
746404.000000
747393.000000
748386.000000
749420.000000
750477.000000
751431.000000
752403.000000
753423.000000
754447.000000
755381.000000
756340.000000
757334.000000
758334.000000
759283.000000
760271.000000
761284.000000
762244.000000
763182.000000
764134.000000
765105.000000
766017.000000
766937.000000
767926.000000
768958.000000
769981.000000
770943.000000
771917.000000
772913.000000
773861.000000
774791.000000
775762.000000
776760.000000
777773.000000
778737.000000
779737.000000
780730.000000
781737.000000
782697.000000
783696.000000
784700.000000
785643.000000
786528.000000
787445.000000
788440.000000
789404.000000
790322.000000
791314.000000
792353.000000
793400.000000
794369.000000
795265.000000
796181.000000
797145.000000
798140.000000
799117.000000
800042.000000
800983.000000
801961.000000
802959.000000
803939.000000
804854.000000
805784.000000
806755.000000
807767.000000
808732.000000
809673.000000
810638.000000
811625.000000
812637.000000
813601.000000
814529.000000
815422.000000
816328.000000
817285.000000
818239.000000
819121.000000
820035.000000
821011.000000
821982.000000
822903.000000
823846.000000
824816.000000
825815.000000
826800.000000
827731.000000
828672.000000
829628.000000
830561.000000
831442.000000
832338.000000
833243.000000
834182.000000
835137.000000
836026.000000
836935.000000
837863.000000
838804.000000
839760.000000
840679.000000
841573.000000
842497.000000
843470.000000
844403.000000
845304.000000
846236.000000
847210.000000
848190.000000
849113.000000
850052.000000
850997.000000
851970.000000
852885.000000
853800.000000
854759.000000
855719.000000
856647.000000
857576.000000
858559.000000
859575.000000
860540.000000
861481.000000
862432.000000
863404.000000
864316.000000
865208.000000
866128.000000
867092.000000
868007.000000
868877.000000
869771.000000
870708.000000
871657.000000
