ECG (ms)
619.000000
1785.000000
2832.000000
3960.000000
5091.000000
6156.000000
7340.000000
8529.000000
9594.000000
10737.000000
11941.000000
13036.000000
14170.000000
15376.000000
16504.000000
17591.000000
18754.000000
19898.000000
21002.000000
22004.000000
23079.000000
24281.000000
25379.000000
26480.000000
27692.000000
28874.000000
29964.000000
31156.000000
32349.000000
33476.000000
34699.000000
35875.000000
36990.000000
38222.000000
39358.000000
40480.000000
41662.000000
42761.000000
43784.000000
44974.000000
46130.000000
47257.000000
48461.000000
49565.000000
50728.000000
51933.000000
53016.000000
54093.000000
55267.000000
56335.000000
57365.000000
58541.000000
59698.000000
60815.000000
62009.000000
63146.000000
64163.000000
65285.000000
66483.000000
67536.000000
68720.000000
69879.000000
70916.000000
72052.000000
73129.000000
74116.000000
75279.000000
76503.000000
77657.000000
78917.000000
80064.000000
81188.000000
82441.000000
83587.000000
84696.000000
85966.000000
87162.000000
88295.000000
89547.000000
90705.000000
91834.000000
93053.000000
94150.000000
95168.000000
96292.000000
97397.000000
98410.000000
99573.000000
100692.000000
101723.000000
102906.000000
104020.000000
105026.000000
106131.000000
107260.000000
108269.000000
109363.000000
110559.000000
111671.000000
112793.000000
113957.000000
115050.000000
116110.000000
117309.000000
118463.000000
119583.000000
120773.000000
121948.000000
123034.000000
124157.000000
125254.000000
126219.000000
127274.000000
128451.000000
129509.000000
130692.000000
131871.000000
132910.000000
134023.000000
135156.000000
136218.000000
137436.000000
138608.000000
139706.000000
140869.000000
141953.000000
142914.000000
143908.000000
144941.000000
145919.000000
147029.000000
148235.000000
149317.000000
150513.000000
151658.000000
152680.000000
153796.000000
154939.000000
155957.000000
157142.000000
158325.000000
159397.000000
160572.000000
161738.000000
162790.000000
163978.000000
165136.000000
166182.000000
167371.000000
168506.000000
169533.000000
170665.000000
171781.000000
172776.000000
173961.000000
175093.000000
176181.000000
177360.000000
178426.000000
179532.000000
180705.000000
181727.000000
182837.000000
183952.000000
184957.000000
186088.000000
187224.000000
188322.000000
189525.000000
190572.000000
191621.000000
192704.000000
193711.000000
194842.000000
195975.000000
196970.000000
198009.000000
199062.000000
200023.000000
201091.000000
202173.000000
203157.000000
204362.000000
205591.000000
206703.000000
207837.000000
209015.000000
210046.000000
211163.000000
212321.000000
213370.000000
214542.000000
215688.000000
216710.000000
217922.000000
219062.000000
220094.000000
221276.000000
222377.000000
223483.000000
224645.000000
225706.000000
226823.000000
227935.000000
228968.000000
230169.000000
231288.000000
232336.000000
233547.000000
234748.000000
235903.000000
237081.000000
238139.000000
239257.000000
240422.000000
241502.000000
242759.000000
243908.000000
245052.000000
246265.000000
247339.000000
248540.000000
249733.000000
250814.000000
252019.000000
253186.000000
254270.000000
255530.000000
256670.000000
257850.000000
259033.000000
260068.000000
261201.000000
262310.000000
263360.000000
264581.000000
265721.000000
266900.000000
268054.000000
269160.000000
270387.000000
271480.000000
272673.000000
273832.000000
274945.000000
276175.000000
277289.000000
278498.000000
279675.000000
280764.000000
281939.000000
283051.000000
284148.000000
285343.000000
286401.000000
287550.000000
288737.000000
289797.000000
290948.000000
292149.000000
293238.000000
294447.000000
295647.000000
296749.000000
297925.000000
299099.000000
300160.000000
301319.000000
302417.000000
303505.000000
304700.000000
305798.000000
306869.000000
308056.000000
309126.000000
310276.000000
311453.000000
312556.000000
313770.000000
314900.000000
315995.000000
317251.000000
318394.000000
319590.000000
320780.000000
321837.000000
323028.000000
324181.000000
325206.000000
326319.000000
327403.000000
328439.000000
329602.000000
330706.000000
331719.000000
332828.000000
333846.000000
334794.000000
335880.000000
336959.000000
337947.000000
339081.000000
340231.000000
341354.000000
342552.000000
343684.000000
344871.000000
346003.000000
347087.000000
348280.000000
349358.000000
350466.000000
351599.000000
352632.000000
353808.000000
354911.000000
356026.000000
357213.000000
358260.000000
359379.000000
360565.000000
361625.000000
362801.000000
363966.000000
365089.000000
366319.000000
367453.000000
368566.000000
369741.000000
370807.000000
371812.000000
372991.000000
374078.000000
375106.000000
376250.000000
377347.000000
378414.000000
379602.000000
380690.000000
381818.000000
383033.000000
384102.000000
385259.000000
386400.000000
387457.000000
388672.000000
389816.000000
390886.000000
392046.000000
393098.000000
394162.000000
395353.000000
396420.000000
397593.000000
398720.000000
399870.000000
401041.000000
402145.000000
403310.000000
404390.000000
405433.000000
406629.000000
407690.000000
408810.000000
410058.000000
411195.000000
412330.000000
413566.000000
414706.000000
415841.000000
417029.000000
418169.000000
419324.000000
420504.000000
421550.000000
422692.000000
423823.000000
424850.000000
425989.000000
427036.000000
428133.000000
429299.000000
430335.000000
431500.000000
432660.000000
433690.000000
434838.000000
435902.000000
436947.000000
438129.000000
439191.000000
440343.000000
441400.000000
442500.000000
443661.000000
444684.000000
445880.000000
447106.000000
448209.000000
449316.000000
450506.000000
451669.000000
452722.000000
453870.000000
455106.000000
456255.000000
457295.000000
458416.000000
459606.000000
460629.000000
461725.000000
462929.000000
464029.000000
465163.000000
466337.000000
467380.000000
468469.000000
469627.000000
470654.000000
471677.000000
472789.000000
473821.000000
474917.000000
476094.000000
477149.000000
478217.000000
479371.000000
480374.000000
481441.000000
482598.000000
483634.000000
484748.000000
485934.000000
487007.000000
488138.000000
489230.000000
490289.000000
491463.000000
492658.000000
493771.000000
494786.000000
495926.000000
497068.000000
498071.000000
499218.000000
500375.000000
501444.000000
502664.000000
503802.000000
504883.000000
506091.000000
507172.000000
508255.000000
509351.000000
510325.000000
511359.000000
512531.000000
513638.000000
514855.000000
516028.000000
517106.000000
518292.000000
519424.000000
520465.000000
521580.000000
522691.000000
523752.000000
524951.000000
526125.000000
527174.000000
528232.000000
529339.000000
530335.000000
531467.000000
532615.000000
533692.000000
534898.000000
536008.000000
537138.000000
538322.000000
539400.000000
540575.000000
541683.000000
542821.000000
544025.000000
545095.000000
546253.000000
547371.000000
548385.000000
549589.000000
550718.000000
551859.000000
553054.000000
554103.000000
555259.000000
556381.000000
557472.000000
558698.000000
559797.000000
560927.000000
562068.000000
563141.000000
564342.000000
565437.000000
566494.000000
567683.000000
568763.000000
569843.000000
571014.000000
572063.000000
573116.000000
574296.000000
575352.000000
576444.000000
577584.000000
578592.000000
579675.000000
580827.000000
581850.000000
582956.000000
584100.000000
585131.000000
586275.000000
587378.000000
588413.000000
589591.000000
590694.000000
591765.000000
592952.000000
594044.000000
595142.000000
596338.000000
597376.000000
598545.000000
599691.000000
600764.000000
602001.000000
603119.000000
604233.000000
605442.000000
606492.000000
607631.000000
608751.000000
609815.000000
611021.000000
612139.000000
613248.000000
614461.000000
615534.000000
616633.000000
617799.000000
618832.000000
619995.000000
621131.000000
622243.000000
623453.000000
624540.000000
625726.000000
626862.000000
627955.000000
629135.000000
630185.000000
631365.000000
632519.000000
633584.000000
634765.000000
635884.000000
636919.000000
638066.000000
639129.000000
640241.000000
641456.000000
642512.000000
643586.000000
644725.000000
645716.000000
646793.000000
647897.000000
648940.000000
650122.000000
651220.000000
652301.000000
653481.000000
654557.000000
655616.000000
656762.000000
657788.000000
658911.000000
660026.000000
661035.000000
662145.000000
663277.000000
664313.000000
665450.000000
666544.000000
667556.000000
668675.000000
669778.000000
670742.000000
671741.000000
672794.000000
673756.000000
674760.000000
675837.000000
676816.000000
677880.000000
678996.000000
679998.000000
681054.000000
682185.000000
683191.000000
684300.000000
685418.000000
686418.000000
687528.000000
688569.000000
689543.000000
690675.000000
691705.000000
692861.000000
693964.000000
694997.000000
696189.000000
697291.000000
698342.000000
699518.000000
700602.000000
701747.000000
702876.000000
703925.000000
705109.000000
706212.000000
707294.000000
708524.000000
709619.000000
710792.000000
712029.000000
713121.000000
714302.000000
715486.000000
716545.000000
717688.000000
718851.000000
719900.000000
721069.000000
722210.000000
723272.000000
724466.000000
725579.000000
726683.000000
727825.000000
728875.000000
729987.000000
731189.000000
732290.000000
733421.000000
734612.000000
735741.000000
736948.000000
738084.000000
739164.000000
740359.000000
741464.000000
742635.000000
743838.000000
744924.000000
746123.000000
747291.000000
748383.000000
749622.000000
750763.000000
751901.000000
753144.000000
754286.000000
755443.000000
756660.000000
757760.000000
758921.000000
760126.000000
761244.000000
762446.000000
763639.000000
764716.000000
765889.000000
767131.000000
768269.000000
769501.000000
770759.000000
771891.000000
773100.000000
774336.000000
775456.000000
776642.000000
777876.000000
778947.000000
780105.000000
781364.000000
782481.000000
783695.000000
784906.000000
786006.000000
787146.000000
788314.000000
789376.000000
790576.000000
791753.000000
792831.000000
794035.000000
795151.000000
796195.000000
797330.000000
798419.000000
799544.000000
800770.000000
801874.000000
803083.000000
804265.000000
805384.000000
806591.000000
807723.000000
808868.000000
810053.000000
811084.000000
812161.000000
813274.000000
814298.000000
815472.000000
816610.000000
817754.000000
818976.000000
820062.000000
821227.000000
822401.000000
823490.000000
824684.000000
825817.000000
826989.000000
828202.000000
829310.000000
830526.000000
831666.000000
832785.000000
834014.000000
835107.000000
836246.000000
837408.000000
838531.000000
839729.000000
840829.000000
841915.000000
843119.000000
844204.000000
845365.000000
846492.000000
847598.000000
848756.000000
849836.000000
850993.000000
852182.000000
853249.000000
854387.000000
855439.000000
856445.000000
857622.000000
858701.000000
859776.000000
860970.000000
862100.000000
863233.000000
864441.000000
865545.000000
866729.000000
867907.000000
868996.000000
870168.000000
871272.000000
872392.000000
873588.000000
874664.000000
875849.000000
877012.000000
878175.000000
879406.000000
880576.000000
881753.000000
882972.000000
884110.000000
885192.000000
886368.000000
887457.000000
888578.000000
889781.000000
890879.000000
891963.000000
893135.000000
894219.000000
895288.000000
896467.000000
897553.000000
898703.000000
899865.000000
900943.000000
902111.000000
903210.000000
904276.000000
905427.000000
906480.000000
907534.000000
908690.000000
909763.000000
910939.000000
912133.000000
913264.000000
914469.000000
915625.000000
916777.000000
917979.000000
919071.000000
920236.000000
921433.000000
922502.000000
923642.000000
924810.000000
925895.000000
927063.000000
928246.000000
929355.000000
930566.000000
931710.000000
932849.000000
934024.000000
935113.000000
936312.000000
937508.000000
938618.000000
939814.000000
940972.000000
942061.000000
943297.000000
944500.000000
945641.000000
946893.000000
948095.000000
949346.000000
950524.000000
951641.000000
952861.000000
953990.000000
955152.000000
956370.000000
957465.000000
958627.000000
959788.000000
960825.000000
961983.000000
963199.000000
964317.000000
965559.000000
966722.000000
967872.000000
969101.000000
970197.000000
971393.000000
972573.000000
973660.000000
974819.000000
975949.000000
977072.000000
978266.000000
979361.000000
980511.000000
981716.000000
982813.000000
984010.000000
985181.000000
986296.000000
987505.000000
988650.000000
989722.000000
990907.000000
992032.000000
993086.000000
994226.000000
995277.000000
996329.000000
997487.000000
998544.000000
999647.000000
1000803.000000
1001810.000000
1002906.000000
1004091.000000
1005142.000000
1006307.000000
1007420.000000
1008542.000000
1009722.000000
1010766.000000
1011883.000000
1013051.000000
1014096.000000
1015208.000000
1016400.000000
1017509.000000
1018727.000000
1019900.000000
1020996.000000
1022149.000000
1023261.000000
1024300.000000
1025503.000000
1026735.000000
1027841.000000
1029026.000000
1030274.000000
1031444.000000
1032662.000000
1033843.000000
1034993.000000
1036263.000000
1037452.000000
1038606.000000
1039841.000000
1040985.000000
1042054.000000
1043223.000000
1044322.000000
1045362.000000
1046451.000000
1047472.000000
1048554.000000
1049774.000000
1050860.000000
1052074.000000
1053219.000000
1054333.000000
1055520.000000
1056634.000000
1057751.000000
1058927.000000
1060026.000000
1061213.000000
1062339.000000
1063448.000000
1064623.000000
1065741.000000
1066839.000000
1068046.000000
1069180.000000
1070258.000000
1071382.000000
1072377.000000
1073514.000000
1074647.000000
1075744.000000
1076920.000000
1077971.000000
1079116.000000
1080269.000000
1081309.000000
1082452.000000
1083564.000000
1084634.000000
1085817.000000
1086918.000000
1088005.000000
1089153.000000
1090171.000000
1091262.000000
1092438.000000
1093462.000000
1094538.000000
1095680.000000
1096695.000000
1097822.000000
1098976.000000
1100063.000000
1101239.000000
1102350.000000
1103328.000000
1104366.000000
1105403.000000
1106357.000000
1107385.000000
1108504.000000
1109519.000000
1110601.000000
1111727.000000
1112749.000000
1113853.000000
1114983.000000
1115983.000000
1117048.000000
1118148.000000
1119162.000000
1120352.000000
1121438.000000
1122518.000000
1123692.000000
1124743.000000
1125837.000000
1126960.000000
1128009.000000
1129164.000000
1130267.000000
1131354.000000
1132510.000000
1133574.000000
1134690.000000
1135803.000000
1136865.000000
1138030.000000
1139116.000000
1140267.000000
1141463.000000
1142500.000000
1143614.000000
1144770.000000
1145836.000000
1146987.000000
1148106.000000
1149157.000000
1150299.000000
1151384.000000
1152454.000000
1153637.000000
1154737.000000
1155929.000000
1157090.000000
1158159.000000
1159303.000000
1160409.000000
1161459.000000
1162631.000000
1163749.000000
1164921.000000
1166129.000000
1167187.000000
1168296.000000
1169462.000000
1170522.000000
1171688.000000
1172805.000000
1173880.000000
1175091.000000
1176182.000000
1177284.000000
1178445.000000
1179466.000000
1180588.000000
1181685.000000
1182768.000000
1183941.000000
1185021.000000
1186130.000000
1187320.000000
1188421.000000
1189592.000000
1190724.000000
1191837.000000
1193007.000000
1194076.000000
