ECG (ms)
753.000000
1781.000000
2823.000000
3823.000000
4780.000000
5642.000000
6629.000000
7575.000000
8493.000000
9402.000000
10336.000000
11249.000000
12170.000000
13115.000000
14049.000000
14968.000000
15938.000000
16946.000000
17857.000000
18754.000000
19632.000000
20544.000000
21434.000000
22370.000000
23325.000000
24259.000000
25182.000000
26159.000000
27085.000000
27945.000000
28904.000000
29846.000000
30841.000000
31838.000000
32780.000000
33713.000000
34687.000000
35628.000000
36510.000000
37494.000000
38467.000000
39416.000000
40292.000000
41195.000000
42166.000000
43114.000000
44083.000000
45020.000000
45879.000000
46837.000000
47782.000000
48772.000000
49747.000000
50612.000000
51525.000000
52510.000000
53478.000000
54440.000000
55379.000000
56334.000000
57323.000000
58312.000000
59271.000000
60240.000000
61220.000000
62255.000000
63289.000000
64278.000000
65168.000000
66165.000000
67162.000000
68166.000000
69117.000000
70060.000000
70951.000000
71946.000000
72971.000000
74001.000000
74967.000000
75920.000000
76879.000000
77802.000000
78715.000000
79694.000000
80701.000000
81715.000000
82722.000000
83766.000000
84787.000000
85727.000000
86675.000000
87639.000000
88576.000000
89488.000000
90463.000000
91463.000000
92419.000000
93377.000000
94372.000000
95335.000000
96283.000000
97283.000000
98280.000000
99217.000000
100171.000000
101137.000000
101997.000000
102985.000000
103947.000000
104872.000000
105771.000000
106732.000000
107745.000000
108731.000000
109703.000000
110685.000000
111668.000000
112541.000000
113510.000000
114532.000000
115567.000000
116566.000000
117554.000000
118544.000000
119549.000000
120528.000000
121480.000000
122438.000000
123335.000000
124364.000000
125351.000000
126295.000000
127246.000000
128223.000000
129182.000000
130059.000000
131114.000000
132138.000000
133113.000000
134099.000000
135077.000000
136009.000000
136986.000000
138023.000000
138999.000000
140012.000000
141078.000000
142126.000000
143112.000000
144086.000000
145068.000000
146033.000000
146986.000000
148016.000000
149016.000000
149971.000000
150939.000000
151904.000000
152783.000000
153742.000000
154666.000000
155635.000000
156580.000000
157578.000000
158665.000000
159726.000000
160718.000000
161712.000000
162675.000000
163547.000000
164542.000000
165540.000000
166575.000000
167570.000000
168622.000000
169731.000000
170757.000000
171765.000000
172776.000000
173769.000000
174766.000000
175775.000000
176754.000000
177722.000000
178762.000000
179759.000000
180782.000000
181826.000000
182815.000000
183830.000000
184850.000000
185852.000000
186866.000000
187926.000000
188978.000000
190058.000000
191140.000000
192150.000000
193180.000000
194245.000000
195239.000000
196242.000000
197195.000000
198071.000000
199084.000000
200019.000000
200981.000000
201988.000000
203040.000000
204060.000000
205105.000000
206124.000000
207096.000000
208085.000000
209029.000000
209967.000000
210924.000000
211792.000000
212779.000000
213721.000000
214693.000000
215642.000000
216626.000000
217700.000000
218771.000000
219903.000000
220987.000000
221994.000000
222968.000000
223861.000000
224830.000000
225772.000000
226742.000000
227708.000000
228664.000000
229677.000000
230631.000000
231599.000000
232585.000000
233537.000000
234529.000000
235472.000000
236410.000000
237420.000000
238398.000000
239363.000000
240333.000000
241198.000000
242225.000000
243217.000000
244179.000000
245167.000000
246169.000000
247148.000000
248172.000000
249155.000000
250139.000000
251111.000000
251987.000000
253008.000000
253982.000000
254936.000000
255910.000000
256914.000000
257866.000000
258849.000000
259835.000000
260771.000000
261615.000000
262604.000000
263531.000000
264468.000000
265438.000000
266362.000000
267304.000000
268285.000000
269251.000000
270190.000000
271181.000000
272192.000000
273185.000000
274210.000000
275186.000000
276055.000000
277056.000000
277933.000000
278900.000000
279829.000000
280739.000000
281648.000000
282643.000000
283658.000000
284631.000000
285634.000000
286708.000000
287725.000000
288742.000000
289748.000000
290722.000000
291704.000000
292739.000000
293767.000000
294760.000000
295801.000000
296811.000000
297775.000000
298738.000000
299617.000000
300584.000000
301558.000000
302548.000000
303527.000000
304554.000000
305588.000000
306639.000000
307699.000000
308694.000000
309670.000000
310626.000000
311490.000000
312544.000000
313503.000000
314465.000000
315460.000000
316453.000000
317422.000000
318423.000000
319388.000000
320313.000000
321267.000000
322191.000000
323096.000000
324091.000000
325159.000000
326243.000000
327330.000000
328435.000000
329508.000000
330609.000000
331699.000000
332759.000000
333859.000000
334925.000000
336002.000000
337025.000000
338054.000000
339149.000000
340236.000000
341321.000000
342449.000000
343500.000000
344533.000000
345573.000000
346585.000000
347585.000000
348613.000000
349596.000000
350492.000000
351539.000000
352486.000000
353359.000000
354389.000000
355341.000000
356284.000000
357203.000000
358151.000000
359097.000000
360018.000000
360972.000000
361925.000000
362782.000000
363759.000000
364689.000000
365594.000000
366484.000000
367413.000000
368330.000000
369266.000000
370246.000000
371208.000000
372153.000000
373129.000000
374097.000000
374976.000000
376016.000000
376902.000000
377805.000000
378821.000000
379745.000000
380713.000000
381722.000000
382686.000000
383706.000000
384716.000000
385675.000000
386641.000000
387524.000000
388520.000000
389498.000000
390371.000000
391339.000000
392304.000000
393251.000000
394165.000000
395133.000000
396057.000000
396982.000000
397946.000000
398919.000000
399842.000000
400800.000000
401680.000000
402656.000000
403626.000000
404609.000000
405546.000000
406505.000000
407489.000000
408495.000000
409508.000000
410474.000000
411439.000000
412413.000000
413397.000000
414482.000000
415526.000000
416525.000000
417538.000000
418504.000000
419488.000000
420462.000000
421426.000000
422446.000000
423465.000000
424433.000000
425427.000000
426422.000000
427370.000000
428248.000000
429257.000000
430195.000000
431142.000000
432118.000000
433075.000000
434030.000000
434997.000000
435928.000000
436777.000000
437769.000000
438623.000000
439591.000000
440524.000000
441370.000000
442339.000000
443270.000000
444182.000000
445141.000000
446084.000000
447027.000000
448016.000000
449005.000000
449975.000000
451008.000000
452026.000000
452985.000000
453953.000000
454800.000000
455737.000000
456620.000000
457551.000000
458482.000000
459488.000000
460520.000000
461560.000000
462627.000000
463655.000000
464643.000000
465672.000000
466641.000000
467584.000000
468543.000000
469405.000000
470300.000000
471272.000000
472213.000000
473143.000000
474070.000000
475033.000000
475996.000000
476942.000000
477923.000000
478845.000000
479813.000000
480740.000000
481686.000000
482664.000000
483620.000000
484627.000000
485697.000000
486737.000000
487732.000000
488726.000000
489633.000000
490549.000000
491391.000000
492326.000000
493265.000000
494199.000000
495121.000000
496137.000000
497155.000000
498125.000000
499119.000000
500053.000000
501024.000000
502010.000000
502952.000000
503921.000000
504906.000000
505833.000000
506804.000000
507761.000000
508680.000000
509610.000000
510515.000000
511430.000000
512420.000000
513415.000000
514378.000000
515389.000000
516406.000000
517367.000000
518355.000000
519339.000000
520214.000000
521242.000000
522138.000000
523127.000000
524082.000000
525012.000000
525985.000000
526954.000000
527983.000000
529073.000000
530176.000000
531246.000000
532328.000000
533367.000000
534339.000000
535336.000000
536376.000000
537393.000000
538467.000000
539538.000000
540534.000000
541536.000000
542503.000000
543384.000000
544409.000000
545283.000000
546275.000000
547242.000000
548173.000000
549112.000000
550061.000000
550921.000000
551949.000000
553003.000000
554031.000000
555028.000000
556072.000000
557106.000000
558111.000000
559131.000000
560126.000000
561022.000000
562072.000000
563072.000000
563970.000000
564978.000000
565936.000000
566868.000000
567797.000000
568754.000000
569681.000000
570629.000000
571582.000000
572428.000000
573399.000000
574328.000000
575165.000000
576109.000000
577027.000000
577923.000000
578832.000000
579779.000000
580733.000000
581677.000000
582617.000000
583556.000000
584405.000000
585377.000000
586322.000000
587266.000000
588267.000000
589257.000000
590129.000000
591181.000000
592123.000000
592976.000000
593959.000000
594819.000000
595793.000000
596657.000000
597640.000000
598613.000000
599563.000000
600479.000000
601423.000000
602334.000000
603293.000000
604220.000000
605206.000000
606247.000000
607276.000000
608328.000000
609441.000000
610530.000000
611621.000000
612712.000000
613724.000000
614783.000000
615838.000000
616854.000000
617899.000000
618931.000000
619864.000000
620949.000000
621987.000000
622904.000000
623972.000000
624992.000000
625878.000000
626824.000000
627889.000000
628869.000000
629820.000000
630831.000000
631816.000000
632689.000000
633670.000000
634510.000000
635393.000000
636385.000000
637344.000000
638274.000000
639190.000000
640153.000000
641102.000000
641956.000000
642954.000000
643807.000000
644801.000000
645772.000000
646712.000000
647674.000000
648548.000000
649589.000000
650520.000000
651460.000000
652416.000000
653268.000000
654269.000000
655208.000000
656060.000000
657084.000000
658029.000000
658986.000000
659986.000000
660971.000000
661931.000000
662929.000000
663894.000000
664850.000000
665835.000000
666788.000000
667735.000000
668721.000000
669589.000000
670543.000000
671547.000000
672426.000000
673321.000000
674288.000000
675229.000000
676090.000000
677064.000000
678007.000000
678865.000000
679845.000000
680683.000000
681554.000000
682473.000000
683373.000000
684272.000000
685249.000000
686240.000000
687237.000000
688254.000000
689220.000000
690202.000000
691143.000000
691988.000000
692983.000000
693828.000000
694801.000000
695726.000000
696555.000000
697549.000000
698403.000000
699287.000000
700266.000000
701191.000000
702042.000000
703018.000000
703858.000000
704844.000000
705768.000000
706601.000000
707556.000000
708491.000000
709357.000000
710356.000000
711250.000000
712129.000000
713106.000000
713961.000000
714900.000000
715813.000000
716671.000000
717632.000000
718599.000000
719617.000000
720596.000000
721597.000000
722604.000000
723559.000000
724531.000000
725509.000000
726399.000000
727409.000000
728303.000000
729284.000000
730212.000000
731085.000000
731974.000000
732955.000000
733882.000000
734838.000000
735872.000000
736943.000000
737987.000000
739050.000000
740136.000000
741140.000000
742132.000000
743027.000000
743949.000000
744955.000000
745946.000000
746927.000000
747884.000000
748857.000000
749722.000000
750632.000000
751615.000000
752487.000000
753479.000000
754469.000000
755464.000000
756355.000000
757364.000000
758302.000000
759153.000000
760068.000000
760970.000000
761915.000000
762830.000000
763782.000000
764707.000000
765677.000000
766702.000000
767713.000000
768759.000000
769870.000000
770936.000000
771979.000000
773067.000000
774135.000000
775154.000000
776200.000000
777253.000000
778258.000000
779298.000000
780292.000000
781286.000000
782366.000000
783393.000000
784330.000000
785415.000000
786454.000000
787447.000000
788482.000000
789503.000000
790419.000000
791483.000000
792454.000000
793407.000000
794439.000000
795430.000000
796439.000000
797414.000000
798311.000000
799332.000000
800216.000000
801194.000000
802151.000000
803035.000000
804018.000000
804987.000000
805948.000000
806904.000000
807843.000000
808666.000000
809560.000000
810519.000000
811457.000000
812463.000000
813394.000000
814341.000000
815404.000000
816346.000000
817273.000000
818294.000000
819277.000000
820164.000000
821188.000000
822259.000000
823281.000000
824355.000000
825373.000000
826303.000000
827291.000000
828282.000000
829369.000000
830402.000000
831315.000000
832342.000000
833324.000000
834218.000000
835285.000000
836287.000000
837258.000000
838248.000000
839272.000000
840276.000000
841263.000000
842247.000000
843134.000000
844165.000000
845158.000000
846043.000000
847050.000000
848002.000000
848875.000000
849886.000000
850855.000000
851756.000000
852778.000000
853742.000000
854631.000000
855655.000000
856554.000000
857539.000000
858501.000000
859461.000000
860334.000000
861330.000000
862315.000000
863310.000000
864264.000000
865244.000000
866171.000000
867105.000000
868054.000000
868990.000000
869865.000000
870841.000000
871771.000000
872641.000000
873654.000000
874666.000000
875658.000000
876662.000000
877636.000000
878495.000000
879429.000000
880335.000000
881229.000000
882216.000000
883076.000000
883951.000000
884919.000000
885841.000000
886750.000000
887714.000000
888653.000000
889582.000000
890528.000000
891375.000000
892275.000000
893239.000000
894065.000000
894972.000000
895892.000000
896724.000000
897603.000000
898592.000000
