ECG (ms)
211.000000
947.000000
1663.000000
2426.000000
3233.000000
3996.000000
4755.000000
5557.000000
6358.000000
7108.000000
7922.000000
8787.000000
9576.000000
10337.000000
11111.000000
11871.000000
12594.000000
13409.000000
14295.000000
15155.000000
16002.000000
16899.000000
17746.000000
18475.000000
19209.000000
19954.000000
20738.000000
21481.000000
22274.000000
23153.000000
23990.000000
24805.000000
25628.000000
26378.000000
27071.000000
27785.000000
28529.000000
29331.000000
30072.000000
30829.000000
31650.000000
32502.000000
33335.000000
34093.000000
34875.000000
35699.000000
36495.000000
37251.000000
38066.000000
38937.000000
39813.000000
40637.000000
41498.000000
42366.000000
43146.000000
43891.000000
44665.000000
45483.000000
46298.000000
47078.000000
47919.000000
48774.000000
49607.000000
50379.000000
51207.000000
52062.000000
52874.000000
53638.000000
54458.000000
55306.000000
56117.000000
56903.000000
57758.000000
58664.000000
59450.000000
60129.000000
60792.000000
61485.000000
62242.000000
63114.000000
63956.000000
64832.000000
65753.000000
66647.000000
67454.000000
68275.000000
69123.000000
69885.000000
70606.000000
71351.000000
72159.000000
72972.000000
73858.000000
74797.000000
75735.000000
76604.000000
77494.000000
78383.000000
79159.000000
79943.000000
80753.000000
81571.000000
82351.000000
83219.000000
84159.000000
85097.000000
85952.000000
86784.000000
87606.000000
88416.000000
89164.000000
89957.000000
90829.000000
91765.000000
92668.000000
93543.000000
94418.000000
95279.000000
96046.000000
96762.000000
97498.000000
98261.000000
99033.000000
99806.000000
100658.000000
101592.000000
102540.000000
103414.000000
104277.000000
105155.000000
106064.000000
106925.000000
107684.000000
108437.000000
109243.000000
110108.000000
110930.000000
111799.000000
112765.000000
113686.000000
114516.000000
115389.000000
116243.000000
117000.000000
117770.000000
118598.000000
119496.000000
120329.000000
121243.000000
122180.000000
123082.000000
123890.000000
124711.000000
125562.000000
126437.000000
127244.000000
128099.000000
129018.000000
129871.000000
130684.000000
131495.000000
132319.000000
133071.000000
133828.000000
134655.000000
135514.000000
136349.000000
137242.000000
138181.000000
139096.000000
139906.000000
140704.000000
141526.000000
142356.000000
143138.000000
143907.000000
144749.000000
145661.000000
146474.000000
147251.000000
148049.000000
148896.000000
149748.000000
150551.000000
151404.000000
152326.000000
153167.000000
153991.000000
154831.000000
155581.000000
156274.000000
156974.000000
157630.000000
158339.000000
159121.000000
159897.000000
160720.000000
161645.000000
162555.000000
163368.000000
164194.000000
164987.000000
165699.000000
166421.000000
167190.000000
168006.000000
168762.000000
169573.000000
170457.000000
171278.000000
172041.000000
172832.000000
173658.000000
174419.000000
175170.000000
175980.000000
176831.000000
177632.000000
178438.000000
179319.000000
180234.000000
181023.000000
181804.000000
182586.000000
183328.000000
184058.000000
184860.000000
185762.000000
186659.000000
187525.000000
188411.000000
189277.000000
190065.000000
190865.000000
191661.000000
192386.000000
193105.000000
193869.000000
194669.000000
195419.000000
196225.000000
197130.000000
198024.000000
198819.000000
199607.000000
200432.000000
201209.000000
201960.000000
202760.000000
203626.000000
204445.000000
205250.000000
206070.000000
206869.000000
207601.000000
208364.000000
209167.000000
209949.000000
210673.000000
211415.000000
212202.000000
212973.000000
213713.000000
214487.000000
215300.000000
216066.000000
216823.000000
217617.000000
218446.000000
219186.000000
219883.000000
220593.000000
221317.000000
222037.000000
222779.000000
223621.000000
224536.000000
225431.000000
226270.000000
227125.000000
227911.000000
228622.000000
229343.000000
230097.000000
230857.000000
231550.000000
232232.000000
232877.000000
233609.000000
234469.000000
235264.000000
236030.000000
236827.000000
237636.000000
238388.000000
239110.000000
239873.000000
240688.000000
241495.000000
242240.000000
243002.000000
243812.000000
244606.000000
245338.000000
246106.000000
246887.000000
247632.000000
248320.000000
249025.000000
249765.000000
250554.000000
251342.000000
252098.000000
252906.000000
253761.000000
254569.000000
255322.000000
256106.000000
256891.000000
257662.000000
258393.000000
259171.000000
259986.000000
260781.000000
261521.000000
262284.000000
263118.000000
263935.000000
264701.000000
265488.000000
266290.000000
267061.000000
267808.000000
268572.000000
269388.000000
270232.000000
271004.000000
271769.000000
272548.000000
273335.000000
274074.000000
274837.000000
275631.000000
276454.000000
277204.000000
277987.000000
278800.000000
279584.000000
280316.000000
281088.000000
281894.000000
282652.000000
283374.000000
284155.000000
284950.000000
285695.000000
286412.000000
287155.000000
287925.000000
288676.000000
289402.000000
290169.000000
290973.000000
291724.000000
292462.000000
293224.000000
293994.000000
294728.000000
295464.000000
296248.000000
297039.000000
297760.000000
298481.000000
299226.000000
299987.000000
300680.000000
301397.000000
302166.000000
302941.000000
303674.000000
304444.000000
305268.000000
306100.000000
306854.000000
307614.000000
308393.000000
309139.000000
309846.000000
310575.000000
311341.000000
312070.000000
312794.000000
313551.000000
314323.000000
315054.000000
315780.000000
316573.000000
317391.000000
318154.000000
318863.000000
319594.000000
320351.000000
321068.000000
321782.000000
322567.000000
323474.000000
324371.000000
325170.000000
326015.000000
326866.000000
327614.000000
328357.000000
329117.000000
329905.000000
330682.000000
331458.000000
332331.000000
333300.000000
334175.000000
334976.000000
335808.000000
336668.000000
337443.000000
338209.000000
339010.000000
339855.000000
340640.000000
341461.000000
342306.000000
343122.000000
343880.000000
344679.000000
345504.000000
346278.000000
347012.000000
347775.000000
348588.000000
349379.000000
350115.000000
350904.000000
351723.000000
352479.000000
353221.000000
353998.000000
354819.000000
355593.000000
356359.000000
357178.000000
358028.000000
358800.000000
359551.000000
360327.000000
361148.000000
361911.000000
362655.000000
363434.000000
364251.000000
365056.000000
365811.000000
366599.000000
367400.000000
368145.000000
368857.000000
369574.000000
370316.000000
371083.000000
371863.000000
372619.000000
373452.000000
374248.000000
374959.000000
375651.000000
376324.000000
377019.000000
377755.000000
378516.000000
379266.000000
379961.000000
380701.000000
381440.000000
382199.000000
382970.000000
383727.000000
384511.000000
385341.000000
386199.000000
386994.000000
387769.000000
388573.000000
389390.000000
390174.000000
390925.000000
391708.000000
392503.000000
393336.000000
394134.000000
394955.000000
395835.000000
396745.000000
397672.000000
398508.000000
399319.000000
400148.000000
400996.000000
401828.000000
402624.000000
403487.000000
404385.000000
405270.000000
406085.000000
406934.000000
407828.000000
408721.000000
409515.000000
410322.000000
411151.000000
411953.000000
412705.000000
413557.000000
414437.000000
415277.000000
416058.000000
416875.000000
417733.000000
418613.000000
419402.000000
420215.000000
421030.000000
421792.000000
422525.000000
423284.000000
424068.000000
424898.000000
425675.000000
426464.000000
427311.000000
428201.000000
429003.000000
429809.000000
430643.000000
431497.000000
432268.000000
433033.000000
433832.000000
434688.000000
435525.000000
436300.000000
437121.000000
437992.000000
438839.000000
439610.000000
440414.000000
441239.000000
442030.000000
442770.000000
443529.000000
444340.000000
445143.000000
445886.000000
446619.000000
447376.000000
448156.000000
448895.000000
449637.000000
450454.000000
451327.000000
452123.000000
452885.000000
453686.000000
454496.000000
455235.000000
455969.000000
456734.000000
457559.000000
458430.000000
459210.000000
459971.000000
460772.000000
461584.000000
462381.000000
463116.000000
463877.000000
464661.000000
465503.000000
466314.000000
467122.000000
467966.000000
468829.000000
469630.000000
470397.000000
471208.000000
472060.000000
472829.000000
473551.000000
474320.000000
475137.000000
475995.000000
476805.000000
477673.000000
478599.000000
479462.000000
480274.000000
481108.000000
481938.000000
482711.000000
483473.000000
484292.000000
485165.000000
486051.000000
486844.000000
487656.000000
488465.000000
489261.000000
490012.000000
490793.000000
491631.000000
492455.000000
493222.000000
494040.000000
494910.000000
495764.000000
496568.000000
497389.000000
498217.000000
498976.000000
499709.000000
500504.000000
501358.000000
502234.000000
503075.000000
503974.000000
504913.000000
505791.000000
506647.000000
507516.000000
508382.000000
509190.000000
510008.000000
510895.000000
511811.000000
512626.000000
513428.000000
514280.000000
515160.000000
515997.000000
516773.000000
517593.000000
518454.000000
519335.000000
520129.000000
520918.000000
521736.000000
522592.000000
523358.000000
524115.000000
524891.000000
525712.000000
526511.000000
527319.000000
528217.000000
529159.000000
530056.000000
530891.000000
531743.000000
532617.000000
533477.000000
534252.000000
535047.000000
535853.000000
536592.000000
537345.000000
538145.000000
538960.000000
539753.000000
540594.000000
541489.000000
542385.000000
543175.000000
543992.000000
544850.000000
545629.000000
546354.000000
547096.000000
547850.000000
548602.000000
549344.000000
550181.000000
551098.000000
551987.000000
552812.000000
553669.000000
554498.000000
555232.000000
555915.000000
556621.000000
557369.000000
558152.000000
558929.000000
559736.000000
560639.000000
561582.000000
562487.000000
563284.000000
564093.000000
564912.000000
565684.000000
566433.000000
567225.000000
568045.000000
568824.000000
569554.000000
570307.000000
571088.000000
571868.000000
572605.000000
573382.000000
574182.000000
574969.000000
575700.000000
576438.000000
577185.000000
577929.000000
578637.000000
579306.000000
579964.000000
580672.000000
581468.000000
582333.000000
583239.000000
584141.000000
584964.000000
585767.000000
586545.000000
587333.000000
588128.000000
588856.000000
589601.000000
590391.000000
591217.000000
592026.000000
592774.000000
593547.000000
594345.000000
595142.000000
595896.000000
596654.000000
597472.000000
598352.000000
599226.000000
599991.000000
600755.000000
601550.000000
602360.000000
603130.000000
603881.000000
604673.000000
605490.000000
606336.000000
607092.000000
607837.000000
608617.000000
609427.000000
610205.000000
610961.000000
611759.000000
612605.000000
613442.000000
614221.000000
615018.000000
615842.000000
616642.000000
617372.000000
618125.000000
618889.000000
619669.000000
620384.000000
621092.000000
621870.000000
622696.000000
623488.000000
624221.000000
624980.000000
625769.000000
626595.000000
627363.000000
628094.000000
628864.000000
629657.000000
630406.000000
631135.000000
631896.000000
632691.000000
633462.000000
634198.000000
634955.000000
635668.000000
636343.000000
637028.000000
637743.000000
638441.000000
639169.000000
639941.000000
