ECG (ms)
602.000000
1324.000000
2038.000000
2734.000000
3446.000000
4182.000000
4939.000000
5701.000000
6457.000000
7223.000000
7978.000000
8739.000000
9476.000000
10222.000000
10959.000000
11710.000000
12453.000000
13179.000000
13912.000000
14658.000000
15409.000000
16145.000000
16897.000000
17649.000000
18393.000000
19125.000000
19895.000000
20681.000000
21454.000000
22207.000000
22920.000000
23607.000000
24264.000000
24912.000000
25565.000000
26247.000000
26956.000000
27681.000000
28454.000000
29246.000000
30025.000000
30768.000000
31530.000000
32292.000000
33060.000000
33789.000000
34516.000000
35237.000000
35960.000000
36677.000000
37408.000000
38169.000000
38945.000000
39720.000000
40471.000000
41216.000000
41974.000000
42734.000000
43500.000000
44277.000000
45052.000000
45824.000000
46555.000000
47298.000000
48060.000000
48838.000000
49612.000000
50392.000000
51139.000000
51844.000000
52550.000000
53274.000000
54024.000000
54781.000000
55520.000000
56258.000000
57025.000000
57798.000000
58566.000000
59309.000000
60006.000000
60681.000000
61342.000000
62012.000000
62680.000000
63371.000000
64087.000000
64830.000000
65601.000000
66370.000000
67142.000000
67918.000000
68661.000000
69402.000000
70167.000000
70952.000000
71752.000000
72549.000000
73337.000000
74126.000000
74917.000000
75672.000000
76439.000000
77220.000000
78016.000000
78773.000000
79520.000000
80294.000000
81091.000000
81897.000000
82701.000000
83499.000000
84302.000000
85096.000000
85861.000000
86630.000000
87406.000000
88189.000000
88985.000000
89762.000000
90537.000000
91329.000000
92124.000000
92911.000000
93666.000000
94427.000000
95196.000000
95979.000000
96748.000000
97521.000000
98329.000000
99145.000000
99966.000000
100753.000000
101546.000000
102352.000000
103147.000000
103947.000000
104715.000000
105482.000000
106270.000000
107083.000000
107896.000000
108678.000000
109461.000000
110251.000000
111025.000000
111765.000000
112465.000000
113145.000000
113816.000000
114490.000000
115181.000000
115906.000000
116638.000000
117374.000000
118100.000000
118831.000000
119562.000000
120291.000000
121022.000000
121754.000000
122478.000000
123195.000000
123936.000000
124676.000000
125422.000000
126157.000000
126869.000000
127583.000000
128314.000000
129063.000000
129820.000000
130568.000000
131307.000000
132016.000000
132719.000000
133435.000000
134166.000000
134908.000000
135656.000000
136396.000000
137118.000000
137833.000000
138547.000000
139266.000000
139984.000000
140690.000000
141398.000000
142115.000000
142854.000000
143582.000000
144308.000000
145051.000000
145797.000000
146534.000000
147269.000000
147983.000000
148694.000000
149410.000000
150102.000000
150805.000000
151516.000000
152234.000000
152924.000000
153626.000000
154325.000000
155029.000000
155727.000000
156421.000000
157139.000000
157859.000000
158572.000000
159274.000000
159974.000000
160662.000000
161346.000000
162040.000000
162736.000000
163417.000000
164109.000000
164795.000000
165482.000000
166167.000000
166854.000000
167540.000000
168219.000000
168889.000000
169550.000000
170200.000000
170836.000000
171460.000000
172073.000000
172687.000000
173318.000000
173952.000000
174602.000000
175281.000000
175966.000000
176662.000000
177380.000000
178093.000000
178794.000000
179483.000000
180180.000000
180870.000000
181551.000000
182224.000000
182913.000000
183623.000000
184323.000000
185042.000000
185787.000000
186542.000000
187299.000000
188053.000000
188777.000000
189478.000000
190185.000000
190894.000000
191589.000000
192295.000000
193008.000000
193736.000000
194468.000000
195197.000000
195899.000000
196593.000000
197312.000000
198021.000000
198734.000000
199428.000000
200134.000000
200840.000000
201546.000000
202256.000000
202946.000000
203645.000000
204354.000000
205069.000000
205776.000000
206471.000000
207188.000000
207898.000000
208606.000000
209298.000000
209978.000000
210656.000000
211320.000000
212002.000000
212692.000000
213387.000000
214066.000000
214756.000000
215460.000000
216181.000000
216889.000000
217581.000000
218271.000000
218964.000000
219650.000000
220327.000000
221014.000000
221705.000000
222403.000000
223102.000000
223799.000000
224520.000000
225237.000000
225963.000000
226679.000000
227390.000000
228090.000000
228785.000000
229459.000000
230126.000000
230788.000000
231454.000000
232109.000000
232768.000000
233430.000000
234081.000000
234733.000000
235393.000000
236052.000000
236692.000000
237321.000000
237943.000000
238567.000000
239200.000000
239850.000000
240516.000000
241196.000000
241886.000000
242565.000000
243252.000000
243944.000000
244637.000000
245327.000000
246028.000000
246758.000000
247509.000000
248266.000000
249001.000000
249732.000000
250452.000000
251172.000000
251906.000000
252638.000000
253350.000000
254058.000000
254773.000000
255469.000000
256154.000000
256829.000000
257518.000000
258214.000000
258926.000000
259622.000000
260313.000000
261012.000000
261708.000000
262412.000000
263104.000000
263804.000000
264495.000000
265188.000000
265858.000000
266529.000000
267210.000000
267883.000000
268571.000000
269289.000000
270012.000000
270733.000000
271444.000000
272172.000000
272898.000000
273622.000000
274334.000000
275048.000000
275756.000000
276457.000000
277151.000000
277844.000000
278524.000000
279219.000000
279916.000000
280612.000000
281309.000000
282008.000000
282704.000000
283401.000000
284108.000000
284799.000000
285498.000000
286200.000000
286899.000000
287602.000000
288315.000000
289018.000000
289721.000000
290404.000000
291070.000000
291719.000000
292357.000000
292988.000000
293624.000000
294273.000000
294934.000000
295593.000000
296265.000000
296954.000000
297646.000000
298361.000000
299088.000000
299799.000000
300496.000000
301175.000000
301834.000000
302473.000000
303095.000000
303714.000000
304349.000000
305009.000000
305686.000000
306406.000000
307150.000000
307919.000000
308683.000000
309429.000000
310177.000000
310939.000000
311679.000000
312381.000000
313042.000000
313694.000000
314354.000000
315037.000000
315749.000000
316463.000000
317163.000000
317888.000000
318622.000000
319356.000000
320087.000000
320805.000000
321533.000000
322255.000000
322939.000000
323643.000000
324342.000000
325050.000000
325745.000000
326447.000000
327152.000000
327857.000000
328575.000000
329296.000000
330021.000000
330736.000000
331462.000000
332180.000000
332903.000000
333598.000000
334292.000000
334981.000000
335681.000000
336377.000000
337058.000000
337746.000000
338447.000000
339159.000000
339857.000000
340549.000000
341250.000000
341952.000000
342654.000000
343358.000000
344047.000000
344730.000000
345420.000000
346121.000000
346811.000000
347505.000000
348186.000000
348861.000000
349543.000000
350218.000000
350882.000000
351544.000000
352201.000000
352858.000000
353519.000000
354196.000000
354880.000000
355558.000000
356230.000000
356885.000000
357539.000000
358197.000000
358870.000000
359541.000000
360219.000000
360898.000000
361581.000000
362256.000000
362928.000000
363618.000000
364321.000000
365033.000000
365739.000000
366436.000000
367124.000000
367801.000000
368472.000000
369126.000000
369781.000000
370431.000000
371087.000000
371765.000000
372447.000000
373142.000000
373817.000000
374470.000000
375113.000000
375763.000000
376414.000000
377067.000000
377729.000000
378424.000000
379133.000000
379864.000000
380596.000000
381334.000000
382058.000000
382769.000000
383457.000000
384158.000000
384874.000000
385597.000000
386304.000000
387004.000000
387699.000000
388428.000000
389178.000000
389919.000000
390680.000000
391437.000000
392184.000000
392907.000000
393626.000000
394356.000000
395095.000000
395839.000000
396577.000000
397304.000000
398052.000000
398799.000000
399551.000000
400279.000000
400987.000000
401690.000000
402408.000000
403135.000000
403859.000000
404561.000000
405256.000000
405954.000000
406648.000000
407320.000000
408004.000000
408706.000000
409412.000000
410134.000000
410868.000000
411592.000000
412312.000000
413027.000000
413737.000000
414434.000000
415137.000000
415837.000000
416543.000000
417267.000000
417993.000000
418721.000000
419417.000000
420116.000000
420827.000000
421545.000000
422267.000000
422993.000000
423709.000000
424397.000000
425058.000000
425702.000000
426344.000000
427005.000000
427670.000000
428355.000000
429059.000000
429754.000000
430471.000000
431197.000000
431925.000000
432630.000000
433343.000000
434060.000000
434776.000000
435477.000000
436188.000000
436905.000000
437609.000000
438325.000000
439054.000000
439800.000000
440543.000000
441302.000000
442050.000000
442758.000000
443469.000000
444182.000000
444890.000000
445590.000000
446285.000000
446966.000000
447642.000000
448338.000000
449072.000000
449816.000000
450548.000000
451280.000000
452024.000000
452768.000000
453497.000000
454194.000000
454915.000000
455637.000000
456378.000000
457131.000000
457840.000000
458545.000000
459286.000000
460058.000000
460845.000000
461629.000000
462409.000000
463143.000000
463873.000000
464613.000000
465357.000000
466106.000000
466848.000000
467555.000000
468267.000000
469010.000000
469766.000000
470507.000000
471253.000000
471985.000000
472692.000000
473401.000000
474104.000000
474801.000000
475490.000000
476172.000000
476861.000000
477538.000000
478205.000000
478857.000000
479498.000000
480143.000000
480798.000000
481459.000000
482136.000000
482820.000000
483515.000000
484197.000000
484890.000000
485595.000000
486295.000000
486999.000000
487688.000000
488382.000000
489078.000000
489781.000000
490477.000000
491179.000000
491878.000000
492561.000000
493242.000000
493933.000000
494610.000000
495289.000000
495984.000000
496695.000000
497409.000000
498128.000000
498854.000000
499568.000000
500278.000000
500989.000000
501690.000000
502381.000000
503059.000000
503731.000000
504400.000000
505085.000000
505778.000000
506476.000000
507178.000000
507888.000000
508583.000000
509276.000000
509979.000000
510695.000000
511422.000000
512155.000000
512877.000000
513594.000000
514304.000000
514990.000000
515670.000000
516348.000000
517038.000000
517748.000000
518472.000000
519193.000000
519899.000000
520610.000000
521331.000000
522062.000000
522792.000000
523518.000000
524219.000000
524902.000000
525588.000000
526296.000000
527016.000000
527748.000000
528503.000000
529237.000000
529958.000000
530660.000000
531346.000000
532008.000000
532661.000000
533316.000000
533987.000000
534651.000000
535335.000000
536042.000000
536746.000000
537467.000000
538212.000000
538970.000000
539719.000000
540438.000000
541147.000000
541855.000000
542568.000000
543282.000000
543999.000000
544718.000000
545424.000000
546147.000000
546901.000000
547655.000000
548401.000000
549169.000000
549939.000000
550717.000000
551483.000000
552252.000000
553017.000000
553781.000000
554558.000000
555284.000000
556015.000000
556754.000000
557515.000000
558305.000000
559104.000000
559906.000000
560692.000000
561454.000000
562187.000000
562923.000000
563683.000000
564450.000000
565192.000000
565908.000000
566649.000000
567396.000000
568137.000000
568884.000000
569622.000000
570338.000000
571036.000000
571725.000000
572426.000000
573131.000000
573837.000000
574531.000000
575229.000000
575937.000000
576663.000000
577383.000000
578112.000000
578855.000000
579602.000000
580347.000000
581061.000000
581776.000000
582496.000000
583228.000000
583935.000000
584658.000000
585366.000000
586106.000000
586864.000000
587631.000000
588396.000000
589131.000000
589838.000000
590562.000000
591280.000000
591968.000000
592633.000000
593289.000000
593961.000000
594647.000000
595343.000000
596038.000000
596733.000000
597448.000000
598171.000000
598896.000000
599620.000000
600329.000000
600711.000000
