ECG (ms)
30.000000
922.000000
1813.000000
2807.000000
3955.000000
5043.000000
5988.000000
6965.000000
7888.000000
8918.000000
10007.000000
11076.000000
12183.000000
13244.000000
14161.000000
15042.000000
16011.000000
17253.000000
18224.000000
19093.000000
19991.000000
21223.000000
22261.000000
23186.000000
24109.000000
25172.000000
26150.000000
26981.000000
27751.000000
28451.000000
29727.000000
30808.000000
31708.000000
32593.000000
33477.000000
34589.000000
35557.000000
36526.000000
37406.000000
38242.000000
39105.000000
40276.000000
41426.000000
42428.000000
43368.000000
44229.000000
45036.000000
46274.000000
47419.000000
48469.000000
49454.000000
50436.000000
51316.000000
52121.000000
52913.000000
53808.000000
55039.000000
56267.000000
57385.000000
58399.000000
59328.000000
60229.000000
61170.000000
62205.000000
63101.000000
64066.000000
64974.000000
65892.000000
66867.000000
67777.000000
68644.000000
69592.000000
70690.000000
71783.000000
72835.000000
73783.000000
74676.000000
75511.000000
76287.000000
77093.000000
78058.000000
79055.000000
79974.000000
80866.000000
81697.000000
82542.000000
83393.000000
84326.000000
85310.000000
86329.000000
87404.000000
88420.000000
89321.000000
90215.000000
91178.000000
92096.000000
92916.000000
93694.000000
94496.000000
95384.000000
96367.000000
97234.000000
98038.000000
98828.000000
99630.000000
100550.000000
101648.000000
102679.000000
103630.000000
104531.000000
105402.000000
106193.000000
106965.000000
107990.000000
108885.000000
109799.000000
110639.000000
111529.000000
112399.000000
113296.000000
114140.000000
115026.000000
116048.000000
117003.000000
117883.000000
118703.000000
119514.000000
120285.000000
121066.000000
121841.000000
122714.000000
123833.000000
124793.000000
125678.000000
126657.000000
127697.000000
128710.000000
129646.000000
130453.000000
131229.000000
131989.000000
132684.000000
133566.000000
134681.000000
135598.000000
136446.000000
137247.000000
138068.000000
138947.000000
140063.000000
141051.000000
141989.000000
143006.000000
144036.000000
144991.000000
145989.000000
146982.000000
147919.000000
148794.000000
149684.000000
150771.000000
151791.000000
152721.000000
153643.000000
154479.000000
155337.000000
156278.000000
157348.000000
158374.000000
159367.000000
160447.000000
161478.000000
162397.000000
163317.000000
164143.000000
164967.000000
166072.000000
167082.000000
168080.000000
169018.000000
169874.000000
170668.000000
171454.000000
172305.000000
173483.000000
174644.000000
175749.000000
176801.000000
177748.000000
178663.000000
179561.000000
180423.000000
181427.000000
182338.000000
183301.000000
184345.000000
185293.000000
186177.000000
187003.000000
187805.000000
188634.000000
189584.000000
190579.000000
191529.000000
192586.000000
193596.000000
194538.000000
195487.000000
196342.000000
197148.000000
197941.000000
198898.000000
199966.000000
200865.000000
201722.000000
202616.000000
203490.000000
204368.000000
205194.000000
206026.000000
206874.000000
207812.000000
208847.000000
209822.000000
210867.000000
211859.000000
212895.000000
213881.000000
214744.000000
215580.000000
216453.000000
217424.000000
218337.000000
219262.000000
220262.000000
221170.000000
222019.000000
222840.000000
223692.000000
224638.000000
225698.000000
226775.000000
227807.000000
228774.000000
229700.000000
230586.000000
231540.000000
232487.000000
233516.000000
234524.000000
235388.000000
236195.000000
236998.000000
238209.000000
239264.000000
240329.000000
241517.000000
242644.000000
243648.000000
244554.000000
245435.000000
246328.000000
247210.000000
248129.000000
249181.000000
250200.000000
251183.000000
252134.000000
253060.000000
253959.000000
254932.000000
255848.000000
256767.000000
257742.000000
258712.000000
259786.000000
260914.000000
261939.000000
262910.000000
263856.000000
264755.000000
265615.000000
266525.000000
267587.000000
268521.000000
269475.000000
270404.000000
271530.000000
272510.000000
273377.000000
274237.000000
275091.000000
276007.000000
277001.000000
277976.000000
278971.000000
279989.000000
280948.000000
281930.000000
282827.000000
283662.000000
284593.000000
285603.000000
286553.000000
287391.000000
288250.000000
289113.000000
290010.000000
291015.000000
291976.000000
292947.000000
293996.000000
295017.000000
295990.000000
297006.000000
297915.000000
298831.000000
299813.000000
300687.000000
301550.000000
302520.000000
303483.000000
304431.000000
305316.000000
306178.000000
307026.000000
307870.000000
308732.000000
309899.000000
311072.000000
312248.000000
313335.000000
314384.000000
315456.000000
316461.000000
317389.000000
318395.000000
319559.000000
320674.000000
321726.000000
322748.000000
323745.000000
324734.000000
325608.000000
326614.000000
327680.000000
328744.000000
329839.000000
330847.000000
331753.000000
332627.000000
333629.000000
334622.000000
335642.000000
336753.000000
337898.000000
339001.000000
340032.000000
340975.000000
341831.000000
342674.000000
343658.000000
344754.000000
345877.000000
347032.000000
348105.000000
349130.000000
350073.000000
350927.000000
351753.000000
352615.000000
353695.000000
354768.000000
355939.000000
357050.000000
358093.000000
359088.000000
360012.000000
360909.000000
361926.000000
362888.000000
363861.000000
364833.000000
365868.000000
367019.000000
368114.000000
369149.000000
370170.000000
371129.000000
372110.000000
373080.000000
373995.000000
374942.000000
375900.000000
376932.000000
377972.000000
379028.000000
380111.000000
381213.000000
382285.000000
383307.000000
384265.000000
385167.000000
386056.000000
387094.000000
388325.000000
389437.000000
390463.000000
391394.000000
392339.000000
393376.000000
394294.000000
395350.000000
396508.000000
397636.000000
398710.000000
399755.000000
400741.000000
401654.000000
402617.000000
403586.000000
404545.000000
405536.000000
406628.000000
407658.000000
408613.000000
409506.000000
410354.000000
411244.000000
412191.000000
413061.000000
413906.000000
414780.000000
415855.000000
416909.000000
417947.000000
418973.000000
419943.000000
420821.000000
421705.000000
422643.000000
423541.000000
424482.000000
425491.000000
426483.000000
427551.000000
428548.000000
429564.000000
430541.000000
431630.000000
432622.000000
433594.000000
434556.000000
435490.000000
436402.000000
437308.000000
438195.000000
439121.000000
440023.000000
441008.000000
442157.000000
443264.000000
444257.000000
445220.000000
446095.000000
446959.000000
447886.000000
448958.000000
449972.000000
450898.000000
451800.000000
452639.000000
453719.000000
454747.000000
455700.000000
456531.000000
457333.000000
458061.000000
458829.000000
460057.000000
460988.000000
461839.000000
462673.000000
463523.000000
464534.000000
465568.000000
466573.000000
467574.000000
468437.000000
469270.000000
470253.000000
471140.000000
472009.000000
473015.000000
474123.000000
475213.000000
476204.000000
477094.000000
477952.000000
478898.000000
480014.000000
481081.000000
482021.000000
482899.000000
483812.000000
484872.000000
485941.000000
486933.000000
487902.000000
488758.000000
489580.000000
490514.000000
491665.000000
492738.000000
493786.000000
494787.000000
495652.000000
496645.000000
497696.000000
498773.000000
499790.000000
500780.000000
501695.000000
502569.000000
503411.000000
504335.000000
505394.000000
506402.000000
507464.000000
508534.000000
509520.000000
510458.000000
511295.000000
512104.000000
513076.000000
514146.000000
515132.000000
516075.000000
517073.000000
518118.000000
519151.000000
520151.000000
521066.000000
521993.000000
522895.000000
523932.000000
524916.000000
525828.000000
526689.000000
527651.000000
528659.000000
529595.000000
530503.000000
531319.000000
532133.000000
532997.000000
534110.000000
535059.000000
535921.000000
536725.000000
537536.000000
538678.000000
539708.000000
540613.000000
541462.000000
542250.000000
543062.000000
543860.000000
544815.000000
545876.000000
546980.000000
547988.000000
548896.000000
549809.000000
550702.000000
551529.000000
552366.000000
553308.000000
554232.000000
555150.000000
556057.000000
557059.000000
558101.000000
559110.000000
560011.000000
560831.000000
561642.000000
562415.000000
563277.000000
564230.000000
565431.000000
566574.000000
567637.000000
568611.000000
569459.000000
570341.000000
571177.000000
572116.000000
573269.000000
574300.000000
575276.000000
576167.000000
577057.000000
577955.000000
578816.000000
579855.000000
580898.000000
581868.000000
582719.000000
583510.000000
584296.000000
585207.000000
586216.000000
587078.000000
587866.000000
588670.000000
589521.000000
590393.000000
591209.000000
592012.000000
592868.000000
594020.000000
594978.000000
595795.000000
596554.000000
597318.000000
598129.000000
599082.000000
600285.000000
601303.000000
602158.000000
602984.000000
603806.000000
605009.000000
606034.000000
606952.000000
607820.000000
608668.000000
609695.000000
610827.000000
611799.000000
612680.000000
613550.000000
614411.000000
615245.000000
616083.000000
616932.000000
617920.000000
619060.000000
620098.000000
621111.000000
622107.000000
623097.000000
623941.000000
624731.000000
625471.000000
626168.000000
627035.000000
628139.000000
629145.000000
630099.000000
630987.000000
631822.000000
632674.000000
633469.000000
634413.000000
635497.000000
636535.000000
637455.000000
638319.000000
639184.000000
640165.000000
640979.000000
641776.000000
642625.000000
643759.000000
644696.000000
645538.000000
646341.000000
647202.000000
648340.000000
649433.000000
650490.000000
651415.000000
652222.000000
653044.000000
654063.000000
655079.000000
655961.000000
656851.000000
657894.000000
658969.000000
659924.000000
660841.000000
661775.000000
662704.000000
663732.000000
664808.000000
665968.000000
667026.000000
668027.000000
668930.000000
669742.000000
670544.000000
671504.000000
672696.000000
673779.000000
674760.000000
675625.000000
676431.000000
677249.000000
678164.000000
679439.000000
680573.000000
681628.000000
682680.000000
683649.000000
684580.000000
685661.000000
686699.000000
687617.000000
688502.000000
689707.000000
690853.000000
691993.000000
693040.000000
694088.000000
695093.000000
696119.000000
697129.000000
698129.000000
699290.000000
700352.000000
701277.000000
702127.000000
702946.000000
704183.000000
705291.000000
706284.000000
707293.000000
708244.000000
709127.000000
709950.000000
710805.000000
711870.000000
712897.000000
713925.000000
714863.000000
715768.000000
716636.000000
717469.000000
718253.000000
719045.000000
719987.000000
721087.000000
722090.000000
722933.000000
723725.000000
724530.000000
725376.000000
726307.000000
727529.000000
728640.000000
729550.000000
730438.000000
731445.000000
732603.000000
733633.000000
734572.000000
735466.000000
736592.000000
737678.000000
738658.000000
739539.000000
740447.000000
741460.000000
742478.000000
743427.000000
744326.000000
745233.000000
746251.000000
747364.000000
748426.000000
749389.000000
750311.000000
751173.000000
752065.000000
753182.000000
754243.000000
755162.000000
756058.000000
757104.000000
758167.000000
759135.000000
760036.000000
761002.000000
762003.000000
762949.000000
763841.000000
764711.000000
765579.000000
766751.000000
767806.000000
768808.000000
769786.000000
770653.000000
771482.000000
772313.000000
773559.000000
774691.000000
775730.000000
776636.000000
777537.000000
778565.000000
779578.000000
780556.000000
781501.000000
782599.000000
783623.000000
784545.000000
785542.000000
786628.000000
787598.000000
788467.000000
789350.000000
790476.000000
791459.000000
792378.000000
793388.000000
794410.000000
795288.000000
796171.000000
797298.000000
798360.000000
799259.000000
800189.000000
801230.000000
802247.000000
803217.000000
804233.000000
805126.000000
805916.000000
806699.000000
807542.000000
808777.000000
809869.000000
810846.000000
811722.000000
812589.000000
813666.000000
814744.000000
815746.000000
816649.000000
817471.000000
818253.000000
819075.000000
820257.000000
821290.000000
822244.000000
823076.000000
823860.000000
824667.000000
825862.000000
826949.000000
827984.000000
829109.000000
830217.000000
831200.000000
832144.000000
833024.000000
833899.000000
835091.000000
836202.000000
837222.000000
838186.000000
839173.000000
840082.000000
840926.000000
841804.000000
842737.000000
843783.000000
844855.000000
845903.000000
846878.000000
847733.000000
848559.000000
849355.000000
850183.000000
850985.000000
851937.000000
853078.000000
854140.000000
855132.000000
856018.000000
856844.000000
857631.000000
858571.000000
859695.000000
860774.000000
861683.000000
862519.000000
863358.000000
864331.000000
865408.000000
866402.000000
867415.000000
868486.000000
869385.000000
870244.000000
871176.000000
872386.000000
873431.000000
874329.000000
875185.000000
876143.000000
877191.000000
878108.000000
878971.000000
879904.000000
880796.000000
881654.000000
882530.000000
883508.000000
884608.000000
885492.000000
886346.000000
887189.000000
888351.000000
889370.000000
890332.000000
891225.000000
892050.000000
892892.000000
893824.000000
894911.000000
895827.000000
896660.000000
897451.000000
898253.000000
899096.000000
900303.000000
901295.000000
902444.000000
903587.000000
904664.000000
905593.000000
906425.000000
907382.000000
908165.000000
908930.000000
910098.000000
911129.000000
912122.000000
913033.000000
913952.000000
914965.000000
916027.000000
916963.000000
917862.000000
918735.000000
919716.000000
920811.000000
921941.000000
922988.000000
923924.000000
924812.000000
925649.000000
926529.000000
927706.000000
928615.000000
929505.000000
930510.000000
931549.000000
932609.000000
933624.000000
934542.000000
935458.000000
936417.000000
937324.000000
938179.000000
939307.000000
940331.000000
941304.000000
942278.000000
943131.000000
943962.000000
944802.000000
945778.000000
946917.000000
947997.000000
949051.000000
950004.000000
950852.000000
951672.000000
952493.000000
953402.000000
954633.000000
955701.000000
956712.000000
957591.000000
958447.000000
959403.000000
960515.000000
961504.000000
962418.000000
963410.000000
964403.000000
965268.000000
966135.000000
967013.000000
967970.000000
968981.000000
970038.000000
971032.000000
971917.000000
972727.000000
973514.000000
974627.000000
975624.000000
976531.000000
977396.000000
978320.000000
979400.000000
980271.000000
981138.000000
982020.000000
982879.000000
983750.000000
984769.000000
985735.000000
986573.000000
987391.000000
988295.000000
989263.000000
990092.000000
990867.000000
991670.000000
992893.000000
993944.000000
994827.000000
995680.000000
996730.000000
997881.000000
998954.000000
999899.000000
1000716.000000
1001526.000000
1002320.000000
1003487.000000
1004554.000000
1005595.000000
1006505.000000
1007366.000000
1008480.000000
1009485.000000
1010513.000000
1011455.000000
1012537.000000
1013608.000000
1014537.000000
1015458.000000
1016396.000000
1017277.000000
1018169.000000
1019176.000000
1020308.000000
1021315.000000
1022219.000000
1023138.000000
1024190.000000
1025153.000000
1026286.000000
1027339.000000
1028241.000000
1029095.000000
1029934.000000
1031101.000000
1032084.000000
1032992.000000
1033917.000000
1034895.000000
1036037.000000
1037204.000000
1038290.000000
1039266.000000
1040124.000000
1040937.000000
1041851.000000
1042933.000000
1043952.000000
1044831.000000
1045660.000000
1046561.000000
1047720.000000
1048795.000000
1049727.000000
1050610.000000
1051451.000000
1052604.000000
1053806.000000
1054888.000000
1055864.000000
1056932.000000
1057979.000000
1059092.000000
1060233.000000
1061276.000000
1062267.000000
1063253.000000
1064206.000000
1065138.000000
1066072.000000
1066966.000000
1067817.000000
1068779.000000
1069816.000000
1070919.000000
1071990.000000
1073002.000000
1073981.000000
1074898.000000
1075734.000000
1076530.000000
1077323.000000
1078330.000000
1079482.000000
1080503.000000
1081411.000000
1082259.000000
1083107.000000
1084233.000000
1085329.000000
1086339.000000
1087215.000000
1088020.000000
1088813.000000
1089843.000000
1091030.000000
1092124.000000
1093060.000000
1093975.000000
1094895.000000
1095838.000000
1096866.000000
1097839.000000
1098699.000000
1099510.000000
1100367.000000
1101549.000000
1102649.000000
1103647.000000
1104653.000000
1105504.000000
1106368.000000
1107424.000000
1108451.000000
1109367.000000
1110234.000000
1111123.000000
1112172.000000
1113150.000000
1114063.000000
1114982.000000
1116035.000000
1117134.000000
1118111.000000
1118957.000000
1119831.000000
1120936.000000
1121966.000000
1122917.000000
1123799.000000
1124732.000000
1125893.000000
1126889.000000
1127796.000000
1128676.000000
1129595.000000
1130600.000000
1131505.000000
1132362.000000
1133292.000000
1134457.000000
1135436.000000
1136364.000000
1137245.000000
1138132.000000
1139253.000000
1140389.000000
1141485.000000
1142503.000000
1143492.000000
1144392.000000
1145253.000000
1146128.000000
1146999.000000
1148240.000000
1149420.000000
1150522.000000
1151457.000000
1152323.000000
1153232.000000
1154170.000000
1155093.000000
1155999.000000
1157085.000000
1158131.000000
1159120.000000
1159989.000000
1160790.000000
1161736.000000
1162896.000000
1163729.000000
1164474.000000
1165662.000000
1166711.000000
1167592.000000
1168466.000000
1169535.000000
1170584.000000
1171535.000000
1172390.000000
1173274.000000
1174438.000000
1175410.000000
1176375.000000
1177346.000000
1178390.000000
1179317.000000
1180194.000000
1181079.000000
1182282.000000
1183315.000000
1184384.000000
1185446.000000
1186369.000000
1187302.000000
1188338.000000
1189399.000000
1190287.000000
1191231.000000
1192416.000000
1193443.000000
1194438.000000
