ECG (ms)
392.000000
1335.000000
2282.000000
3167.000000
4085.000000
5046.000000
5966.000000
6918.000000
7825.000000
8706.000000
9599.000000
10510.000000
11419.000000
12324.000000
13225.000000
14098.000000
15012.000000
15964.000000
16850.000000
17784.000000
18707.000000
19585.000000
20514.000000
21433.000000
22321.000000
23262.000000
24240.000000
25188.000000
26161.000000
27126.000000
28050.000000
28973.000000
29961.000000
30952.000000
31894.000000
32858.000000
33838.000000
34778.000000
35726.000000
36723.000000
37746.000000
38709.000000
39731.000000
40746.000000
41677.000000
42551.000000
43461.000000
44326.000000
45215.000000
46172.000000
47148.000000
48203.000000
49232.000000
50199.000000
51179.000000
52193.000000
53176.000000
54099.000000
55047.000000
56074.000000
57146.000000
58174.000000
59232.000000
60309.000000
61358.000000
62303.000000
63288.000000
64329.000000
65312.000000
66226.000000
67196.000000
68274.000000
69337.000000
70324.000000
71416.000000
72505.000000
73479.000000
74433.000000
75425.000000
76459.000000
77401.000000
78341.000000
79342.000000
80377.000000
81344.000000
82259.000000
83223.000000
84234.000000
85246.000000
86205.000000
87143.000000
88161.000000
89186.000000
90156.000000
91098.000000
92082.000000
93093.000000
94107.000000
95070.000000
96039.000000
97108.000000
98176.000000
99148.000000
100120.000000
101137.000000
102143.000000
103076.000000
104026.000000
105017.000000
106003.000000
106934.000000
107874.000000
108898.000000
109972.000000
110988.000000
111958.000000
112954.000000
113954.000000
114918.000000
115834.000000
116782.000000
117821.000000
118847.000000
119773.000000
120678.000000
121626.000000
122537.000000
123446.000000
124428.000000
125428.000000
126367.000000
127280.000000
128262.000000
129239.000000
130200.000000
131130.000000
132108.000000
133139.000000
134143.000000
135078.000000
136081.000000
137081.000000
138019.000000
138989.000000
139973.000000
140898.000000
141876.000000
142882.000000
143840.000000
144862.000000
145846.000000
146778.000000
147763.000000
148792.000000
149750.000000
150741.000000
151747.000000
152686.000000
153698.000000
154700.000000
155679.000000
156606.000000
157569.000000
158520.000000
159457.000000
160426.000000
161439.000000
162376.000000
163353.000000
164362.000000
165359.000000
166283.000000
167267.000000
168222.000000
169208.000000
170199.000000
171186.000000
172137.000000
173053.000000
174037.000000
175025.000000
175958.000000
176993.000000
177996.000000
178955.000000
179917.000000
180909.000000
181870.000000
182782.000000
183751.000000
184745.000000
185696.000000
186698.000000
187760.000000
188742.000000
189752.000000
190745.000000
191732.000000
192667.000000
193681.000000
194735.000000
195744.000000
196766.000000
197771.000000
198723.000000
199702.000000
200693.000000
201634.000000
202638.000000
203638.000000
204561.000000
205542.000000
206510.000000
207434.000000
208320.000000
209258.000000
210220.000000
211154.000000
212066.000000
213028.000000
213987.000000
214917.000000
215885.000000
216798.000000
217694.000000
218607.000000
219494.000000
220367.000000
221302.000000
222239.000000
223137.000000
224009.000000
224939.000000
225851.000000
226679.000000
227615.000000
228567.000000
229558.000000
230597.000000
231605.000000
232550.000000
233495.000000
234493.000000
235422.000000
236356.000000
237370.000000
238408.000000
239349.000000
240344.000000
241377.000000
242330.000000
243271.000000
244291.000000
245321.000000
246274.000000
247269.000000
248324.000000
249273.000000
250222.000000
251241.000000
252262.000000
253216.000000
254154.000000
255134.000000
256145.000000
257094.000000
258084.000000
259131.000000
260126.000000
261069.000000
262070.000000
263073.000000
264005.000000
264949.000000
265949.000000
266916.000000
267835.000000
268806.000000
269803.000000
270768.000000
271682.000000
272609.000000
273480.000000
274320.000000
275226.000000
276207.000000
277165.000000
278064.000000
278991.000000
279940.000000
280909.000000
281821.000000
282821.000000
283887.000000
284882.000000
285796.000000
286749.000000
287732.000000
288699.000000
289620.000000
290595.000000
291605.000000
292535.000000
293441.000000
294408.000000
295421.000000
296399.000000
297317.000000
298283.000000
299275.000000
300223.000000
301177.000000
302163.000000
303176.000000
304168.000000
305120.000000
306130.000000
307150.000000
308112.000000
309043.000000
310041.000000
311034.000000
311982.000000
312887.000000
313861.000000
314880.000000
315839.000000
316810.000000
317828.000000
318829.000000
319748.000000
320680.000000
321656.000000
322665.000000
323593.000000
324517.000000
325473.000000
326404.000000
327300.000000
328258.000000
329261.000000
330234.000000
331157.000000
332136.000000
333139.000000
334113.000000
335035.000000
336002.000000
336983.000000
337929.000000
338833.000000
339790.000000
340751.000000
341687.000000
342614.000000
343586.000000
344611.000000
345603.000000
346517.000000
347434.000000
348413.000000
349389.000000
350302.000000
351228.000000
352204.000000
353234.000000
354207.000000
355188.000000
356220.000000
357231.000000
358154.000000
359096.000000
360085.000000
361079.000000
361997.000000
362937.000000
363961.000000
365046.000000
366063.000000
366997.000000
367960.000000
368945.000000
369941.000000
370898.000000
371886.000000
372925.000000
373922.000000
374833.000000
375774.000000
376749.000000
377752.000000
378708.000000
379736.000000
380854.000000
381877.000000
382842.000000
383851.000000
384871.000000
385838.000000
386785.000000
387782.000000
388768.000000
389689.000000
390622.000000
391624.000000
392631.000000
393577.000000
394559.000000
395561.000000
396547.000000
397470.000000
398435.000000
399429.000000
400427.000000
401373.000000
402314.000000
403311.000000
404302.000000
405308.000000
406242.000000
407194.000000
408242.000000
409312.000000
410331.000000
411306.000000
412352.000000
413430.000000
414479.000000
415431.000000
416439.000000
417469.000000
418458.000000
419358.000000
420269.000000
421240.000000
422226.000000
423194.000000
424148.000000
425176.000000
426239.000000
427234.000000
428164.000000
429112.000000
430068.000000
430994.000000
431892.000000
432842.000000
433820.000000
434805.000000
435721.000000
436641.000000
437590.000000
438552.000000
439458.000000
440359.000000
441301.000000
442290.000000
443293.000000
444263.000000
445180.000000
446162.000000
447115.000000
448041.000000
448933.000000
449889.000000
450904.000000
451862.000000
452767.000000
453731.000000
454698.000000
455640.000000
456513.000000
457438.000000
458416.000000
459407.000000
460325.000000
461277.000000
462246.000000
463211.000000
464100.000000
465021.000000
465994.000000
466946.000000
467867.000000
468807.000000
469776.000000
470755.000000
471665.000000
472585.000000
473552.000000
474543.000000
475498.000000
476422.000000
477378.000000
478349.000000
479325.000000
480227.000000
481136.000000
482099.000000
483058.000000
483957.000000
484826.000000
485722.000000
486672.000000
487613.000000
488475.000000
489355.000000
490303.000000
491288.000000
492224.000000
493096.000000
494003.000000
494953.000000
495840.000000
496667.000000
497462.000000
498318.000000
499152.000000
500054.000000
501035.000000
502014.000000
502922.000000
503879.000000
504879.000000
505857.000000
506777.000000
507660.000000
508591.000000
509513.000000
510400.000000
511339.000000
512316.000000
513280.000000
514185.000000
515145.000000
516118.000000
517025.000000
517925.000000
518838.000000
519782.000000
520725.000000
521671.000000
522680.000000
523692.000000
524646.000000
525595.000000
526581.000000
527561.000000
528467.000000
529338.000000
530254.000000
531152.000000
532016.000000
532931.000000
533956.000000
534962.000000
535928.000000
536895.000000
537884.000000
538856.000000
539768.000000
540725.000000
541720.000000
542713.000000
543565.000000
544448.000000
545402.000000
546362.000000
547296.000000
548304.000000
549352.000000
550325.000000
551304.000000
552320.000000
553306.000000
554249.000000
555258.000000
556315.000000
557315.000000
558282.000000
559290.000000
560313.000000
561247.000000
562199.000000
563172.000000
564197.000000
565152.000000
566113.000000
567140.000000
568166.000000
569121.000000
570073.000000
571069.000000
572042.000000
572965.000000
573951.000000
574978.000000
576001.000000
576939.000000
577915.000000
578944.000000
579931.000000
580849.000000
581816.000000
582801.000000
583785.000000
584700.000000
585666.000000
586695.000000
587692.000000
588663.000000
589655.000000
590677.000000
591684.000000
592625.000000
593605.000000
594637.000000
595691.000000
596655.000000
597607.000000
598615.000000
599627.000000
600572.000000
601560.000000
602631.000000
603653.000000
604592.000000
605566.000000
606556.000000
607531.000000
608461.000000
609433.000000
610428.000000
611360.000000
612317.000000
613313.000000
614350.000000
615303.000000
616220.000000
617179.000000
618206.000000
619206.000000
620145.000000
621147.000000
622176.000000
623185.000000
624119.000000
625075.000000
626046.000000
626979.000000
627915.000000
628894.000000
629901.000000
630872.000000
631782.000000
632774.000000
633793.000000
634782.000000
635723.000000
636700.000000
637714.000000
638680.000000
639589.000000
640561.000000
641554.000000
642490.000000
643442.000000
644427.000000
645383.000000
646309.000000
647273.000000
648252.000000
649158.000000
650067.000000
651030.000000
652012.000000
652942.000000
653852.000000
654806.000000
655776.000000
656717.000000
657636.000000
658605.000000
659586.000000
660520.000000
661417.000000
662376.000000
663342.000000
664252.000000
665157.000000
666102.000000
667083.000000
668018.000000
668918.000000
669842.000000
670834.000000
671788.000000
672702.000000
673691.000000
674685.000000
675621.000000
676529.000000
677470.000000
678457.000000
679443.000000
680400.000000
681363.000000
682353.000000
683348.000000
684274.000000
685170.000000
686112.000000
687050.000000
687984.000000
688889.000000
689847.000000
690844.000000
691795.000000
692731.000000
693676.000000
694628.000000
695566.000000
696445.000000
697328.000000
698233.000000
699171.000000
700069.000000
700963.000000
701956.000000
702941.000000
703908.000000
704819.000000
705755.000000
706756.000000
707736.000000
708660.000000
709579.000000
710577.000000
711558.000000
712468.000000
713388.000000
714350.000000
715346.000000
716274.000000
717223.000000
718214.000000
719196.000000
720127.000000
721027.000000
721971.000000
722915.000000
723851.000000
724726.000000
725649.000000
726625.000000
727585.000000
728500.000000
729402.000000
730354.000000
731327.000000
732246.000000
733131.000000
734051.000000
735007.000000
735983.000000
736891.000000
737809.000000
738763.000000
739736.000000
740680.000000
741587.000000
742541.000000
743530.000000
744501.000000
745418.000000
746362.000000
747328.000000
748296.000000
749224.000000
750186.000000
751200.000000
752216.000000
753152.000000
754067.000000
755034.000000
756020.000000
756977.000000
757892.000000
758885.000000
759936.000000
760990.000000
761950.000000
762919.000000
763920.000000
764918.000000
765842.000000
766746.000000
767701.000000
768695.000000
769706.000000
770645.000000
771587.000000
772568.000000
773566.000000
774500.000000
775388.000000
776312.000000
777259.000000
778234.000000
779138.000000
780064.000000
781038.000000
782013.000000
782923.000000
783861.000000
784830.000000
785809.000000
786706.000000
787624.000000
788567.000000
789473.000000
790348.000000
791257.000000
792239.000000
793226.000000
794153.000000
795054.000000
796007.000000
796959.000000
797881.000000
798746.000000
799634.000000
800561.000000
801501.000000
802377.000000
803287.000000
804247.000000
805211.000000
806111.000000
807063.000000
808029.000000
808956.000000
809825.000000
810710.000000
811636.000000
812622.000000
813531.000000
814439.000000
815407.000000
816388.000000
817289.000000
818205.000000
819175.000000
820149.000000
821044.000000
821932.000000
822883.000000
823875.000000
824809.000000
825721.000000
826716.000000
827709.000000
828619.000000
829495.000000
830414.000000
831397.000000
832436.000000
833403.000000
834349.000000
835334.000000
836332.000000
837260.000000
838159.000000
839110.000000
840082.000000
841010.000000
841886.000000
842805.000000
843741.000000
844640.000000
845518.000000
846469.000000
847467.000000
848397.000000
849315.000000
850299.000000
851294.000000
852224.000000
853136.000000
854105.000000
855088.000000
856009.000000
856877.000000
857796.000000
858805.000000
859799.000000
860730.000000
861747.000000
862813.000000
863803.000000
864775.000000
865763.000000
866748.000000
867692.000000
868612.000000
869612.000000
870625.000000
871610.000000
872559.000000
873534.000000
874506.000000
875392.000000
876206.000000
877007.000000
877800.000000
878582.000000
879490.000000
880343.000000
881287.000000
882321.000000
883301.000000
884222.000000
885176.000000
886171.000000
887152.000000
888120.000000
889026.000000
889944.000000
890921.000000
891943.000000
892879.000000
893791.000000
894780.000000
895803.000000
896770.000000
897699.000000
898680.000000
899683.000000
900661.000000
901576.000000
902512.000000
903507.000000
904538.000000
905516.000000
906474.000000
907452.000000
908436.000000
909385.000000
910288.000000
911275.000000
912332.000000
913284.000000
914207.000000
915169.000000
916166.000000
917111.000000
918027.000000
919009.000000
920006.000000
920958.000000
921854.000000
922797.000000
923774.000000
924737.000000
925644.000000
926614.000000
927667.000000
928677.000000
929611.000000
930586.000000
931572.000000
932548.000000
933478.000000
934473.000000
935481.000000
936456.000000
937382.000000
938377.000000
939370.000000
940312.000000
941232.000000
942190.000000
943213.000000
944182.000000
945124.000000
946108.000000
947132.000000
948147.000000
949084.000000
950050.000000
951059.000000
952061.000000
952991.000000
953916.000000
954889.000000
955876.000000
956804.000000
957716.000000
958699.000000
959727.000000
960662.000000
961573.000000
962556.000000
963593.000000
964543.000000
965450.000000
966426.000000
967450.000000
968428.000000
969375.000000
970374.000000
971405.000000
972347.000000
973212.000000
974108.000000
975051.000000
975963.000000
976875.000000
977837.000000
978812.000000
979729.000000
980669.000000
981606.000000
982501.000000
983361.000000
984264.000000
985231.000000
986130.000000
987051.000000
988002.000000
988908.000000
989881.000000
990776.000000
991696.000000
992564.000000
993451.000000
994331.000000
995157.000000
996033.000000
996918.000000
997808.000000
998684.000000
999528.000000
1000400.000000
1001316.000000
1002223.000000
1003085.000000
1003908.000000
1004782.000000
1005642.000000
1006446.000000
1007269.000000
1008150.000000
1009100.000000
1010020.000000
1010906.000000
1011864.000000
1012820.000000
1013743.000000
1014618.000000
1015522.000000
1016471.000000
1017439.000000
1018328.000000
1019222.000000
1020191.000000
1021149.000000
1022092.000000
1023000.000000
1023939.000000
1024914.000000
1025878.000000
1026761.000000
1027674.000000
1028651.000000
1029626.000000
1030539.000000
1031506.000000
1032519.000000
1033503.000000
1034430.000000
1035364.000000
1036325.000000
1037329.000000
1038299.000000
1039250.000000
1040130.000000
1041006.000000
1041850.000000
1042766.000000
1043725.000000
1044690.000000
1045574.000000
1046520.000000
1047507.000000
1048511.000000
1049431.000000
1050355.000000
1051315.000000
1052305.000000
1053213.000000
1054162.000000
1055103.000000
1056060.000000
1056953.000000
1057899.000000
1058864.000000
1059820.000000
1060731.000000
1061653.000000
1062638.000000
1063610.000000
1064520.000000
1065445.000000
1066451.000000
1067487.000000
1068431.000000
1069406.000000
1070391.000000
1071364.000000
1072289.000000
1073214.000000
1074162.000000
1075112.000000
1076010.000000
1076992.000000
1077995.000000
1078957.000000
1079849.000000
1080764.000000
1081718.000000
1082666.000000
1083555.000000
1084464.000000
1085434.000000
1086424.000000
1087330.000000
1088235.000000
1089181.000000
1090110.000000
1090965.000000
1091818.000000
1092714.000000
1093605.000000
1094435.000000
1095190.000000
1095945.000000
1096710.000000
1097560.000000
1098514.000000
1099446.000000
1100339.000000
1101184.000000
1102057.000000
1102930.000000
1103797.000000
1104670.000000
1105518.000000
1106423.000000
1107351.000000
1108247.000000
1109140.000000
1110072.000000
1111025.000000
1111953.000000
1112843.000000
1113794.000000
1114771.000000
1115751.000000
1116658.000000
1117558.000000
1118494.000000
1119454.000000
1120312.000000
1121216.000000
1122114.000000
1122989.000000
1123858.000000
1124796.000000
1125694.000000
1126512.000000
1127336.000000
1128100.000000
1128893.000000
1129696.000000
1130489.000000
1131299.000000
1132152.000000
1133017.000000
1133856.000000
1134674.000000
1135514.000000
1136366.000000
1137260.000000
1138118.000000
1138975.000000
1139773.000000
1140606.000000
1141487.000000
1142439.000000
1143398.000000
1144306.000000
1145212.000000
1146159.000000
1147066.000000
1147939.000000
1148856.000000
1149799.000000
1150767.000000
1151725.000000
1152701.000000
1153704.000000
1154651.000000
1155518.000000
1156446.000000
1157340.000000
1158267.000000
1159224.000000
1160161.000000
1161082.000000
1162020.000000
1162939.000000
1163815.000000
1164712.000000
1165645.000000
1166549.000000
1167407.000000
1168226.000000
1169076.000000
1169904.000000
1170710.000000
1171536.000000
1172371.000000
1173221.000000
1174048.000000
1174885.000000
1175741.000000
1176592.000000
1177461.000000
1178332.000000
1179185.000000
1180121.000000
1181084.000000
1182034.000000
1182912.000000
1183842.000000
1184806.000000
1185707.000000
1186608.000000
1187595.000000
1188597.000000
1189532.000000
1190475.000000
1191411.000000
1192339.000000
1193226.000000
1194132.000000
1195137.000000
1196063.000000
1196968.000000
1197915.000000
1198845.000000
1199745.000000
1200651.000000
1201613.000000
1202556.000000
1203408.000000
1204296.000000
1205241.000000
1206057.000000
1206896.000000
1207777.000000
1208690.000000
1209622.000000
1210482.000000
1211440.000000
1212403.000000
1213284.000000
1214181.000000
1215103.000000
1216036.000000
1216925.000000
1217806.000000
1218729.000000
1219658.000000
1220524.000000
1221366.000000
1222262.000000
1223135.000000
1223969.000000
1224906.000000
1225852.000000
1226727.000000
1227602.000000
1228512.000000
1229466.000000
1230344.000000
1231222.000000
1232107.000000
1232994.000000
1233869.000000
1234741.000000
1235689.000000
1236669.000000
1237568.000000
1238470.000000
1239392.000000
1240284.000000
1241152.000000
1242072.000000
1242993.000000
1243880.000000
1244766.000000
1245625.000000
1246515.000000
1247435.000000
1248319.000000
1249242.000000
1250188.000000
1251080.000000
1251986.000000
1252888.000000
1253766.000000
1254592.000000
1255438.000000
1256236.000000
1256996.000000
1257753.000000
1258591.000000
1259570.000000
1260451.000000
1261302.000000
1262230.000000
1263132.000000
1263954.000000
1264850.000000
1265754.000000
1266584.000000
1267420.000000
1268297.000000
1269232.000000
1270200.000000
1271113.000000
1272033.000000
1272987.000000
1273948.000000
1274860.000000
1275848.000000
1276852.000000
1277792.000000
1278724.000000
1279706.000000
1280705.000000
1281672.000000
1282640.000000
1283659.000000
1284650.000000
1285593.000000
1286573.000000
1287556.000000
1288497.000000
1289420.000000
1290360.000000
1291331.000000
1292282.000000
1293183.000000
1294156.000000
1295152.000000
1296087.000000
1296982.000000
1297923.000000
1298904.000000
1299885.000000
1300788.000000
1301759.000000
1302790.000000
1303745.000000
1304688.000000
1305677.000000
1306655.000000
1307596.000000
1308514.000000
1309482.000000
1310450.000000
1311404.000000
1312313.000000
1313254.000000
1314213.000000
1315140.000000
1316024.000000
1316943.000000
1317902.000000
1318850.000000
1319751.000000
1320597.000000
1321428.000000
1322263.000000
1323088.000000
1323912.000000
1324830.000000
1325817.000000
1326761.000000
1327615.000000
1328518.000000
1329486.000000
1330450.000000
1331361.000000
1332257.000000
1333220.000000
1334208.000000
1335216.000000
1336143.000000
1337077.000000
1338054.000000
1339068.000000
1340058.000000
1340979.000000
1341920.000000
1342894.000000
1343892.000000
1344859.000000
1345789.000000
1346775.000000
1347787.000000
1348733.000000
1349637.000000
1350559.000000
1351511.000000
1352468.000000
1353363.000000
1354311.000000
1355283.000000
1356233.000000
1357145.000000
1358014.000000
1358920.000000
1359838.000000
1360783.000000
1361672.000000
1362547.000000
1363491.000000
1364461.000000
1365393.000000
1366261.000000
1367188.000000
1368134.000000
1369078.000000
1369956.000000
1370875.000000
1371879.000000
1372894.000000
1373808.000000
1374745.000000
1375718.000000
1376713.000000
1377617.000000
1378555.000000
1379567.000000
1380555.000000
1381461.000000
1382404.000000
1383446.000000
1384455.000000
1385346.000000
1386216.000000
1387185.000000
1388207.000000
1389219.000000
1390150.000000
1391121.000000
1392138.000000
1393103.000000
1394001.000000
1394934.000000
1395919.000000
1396919.000000
1397853.000000
1398779.000000
1399756.000000
1400767.000000
1401725.000000
1402649.000000
1403596.000000
1404591.000000
1405572.000000
1406500.000000
1407399.000000
1408400.000000
1409382.000000
1410308.000000
1411195.000000
1412139.000000
1413103.000000
1414027.000000
1414916.000000
1415852.000000
1416808.000000
1417766.000000
1418673.000000
1419618.000000
1420606.000000
1421562.000000
1422468.000000
1423378.000000
1424329.000000
1425296.000000
1426177.000000
1427092.000000
1428068.000000
1429019.000000
1429891.000000
1430819.000000
1431808.000000
1432737.000000
1433616.000000
1434452.000000
1435361.000000
1436345.000000
1437391.000000
1438331.000000
1439273.000000
1440264.000000
1441265.000000
1442181.000000
1443062.000000
1443987.000000
1444912.000000
1445789.000000
1446677.000000
1447610.000000
1448550.000000
1449431.000000
1450296.000000
1451234.000000
1452183.000000
1453107.000000
1453979.000000
1454938.000000
1455939.000000
1456892.000000
1457769.000000
1458681.000000
1459632.000000
1460611.000000
1461523.000000
1462499.000000
1463515.000000
1464492.000000
1465409.000000
1466363.000000
1467322.000000
1468231.000000
1469162.000000
1470119.000000
1471073.000000
1471955.000000
1472901.000000
1473882.000000
1474801.000000
1475691.000000
1476663.000000
1477653.000000
1478579.000000
1479466.000000
1480423.000000
1481398.000000
1482375.000000
1483264.000000
1484156.000000
1485067.000000
1485988.000000
1486839.000000
1487763.000000
1488685.000000
1489648.000000
1490561.000000
1491505.000000
1492482.000000
1493402.000000
1494281.000000
1495197.000000
1496139.000000
1497035.000000
1497901.000000
1498821.000000
1499777.000000
1500706.000000
1501589.000000
1502544.000000
1503547.000000
1504509.000000
1505395.000000
1506330.000000
1507260.000000
1508177.000000
1509076.000000
1510085.000000
1511131.000000
1512087.000000
1513072.000000
1514061.000000
1515003.000000
1515928.000000
1516894.000000
1517868.000000
1518757.000000
1519642.000000
1520569.000000
1521509.000000
1522393.000000
1523286.000000
1524226.000000
1525158.000000
1526041.000000
1526966.000000
1527947.000000
1528927.000000
1529875.000000
1530777.000000
1531713.000000
1532654.000000
1533585.000000
1534451.000000
1535343.000000
1536289.000000
1537239.000000
1538123.000000
1539033.000000
1539978.000000
1540943.000000
1541841.000000
1542730.000000
1543683.000000
1544616.000000
1545476.000000
1546352.000000
1547276.000000
1548223.000000
1549086.000000
1549953.000000
1550884.000000
1551836.000000
1552716.000000
1553571.000000
1554486.000000
1555410.000000
1556296.000000
1557179.000000
1558101.000000
1559009.000000
1559860.000000
1560765.000000
1561711.000000
1562637.000000
1563495.000000
1564399.000000
1565354.000000
1566305.000000
1567177.000000
1568094.000000
1569051.000000
1569984.000000
1570848.000000
1571765.000000
1572698.000000
1573612.000000
1574476.000000
1575397.000000
1576343.000000
1577243.000000
1578125.000000
1579062.000000
1580010.000000
1580918.000000
1581785.000000
1582702.000000
1583633.000000
1584548.000000
1585403.000000
1586309.000000
1587217.000000
1588108.000000
1588957.000000
1589877.000000
1590823.000000
1591717.000000
1592569.000000
1593468.000000
1594383.000000
1595276.000000
1596126.000000
1597043.000000
1597992.000000
1598917.000000
1599791.000000
1600716.000000
1601694.000000
1602605.000000
1603477.000000
1604386.000000
1605313.000000
1606259.000000
1607160.000000
1608138.000000
1609118.000000
1610057.000000
1610939.000000
1611882.000000
1612856.000000
1613792.000000
1614693.000000
1615640.000000
1616597.000000
1617473.000000
1618378.000000
1619317.000000
1620254.000000
1621134.000000
1622083.000000
1623042.000000
1623951.000000
1624816.000000
1625744.000000
1626700.000000
1627609.000000
1628528.000000
1629495.000000
1630458.000000
1631353.000000
1632239.000000
1633193.000000
1634152.000000
1635072.000000
1635986.000000
1636938.000000
1637849.000000
1638708.000000
1639654.000000
1640635.000000
1641586.000000
1642472.000000
1643418.000000
1644387.000000
1645289.000000
1646206.000000
1647192.000000
1648198.000000
1649129.000000
1650046.000000
1651003.000000
1651991.000000
1652901.000000
1653746.000000
1654626.000000
1655539.000000
1656479.000000
1657418.000000
1658442.000000
1659467.000000
1660419.000000
1661335.000000
1662277.000000
1663245.000000
1664175.000000
1665046.000000
1665921.000000
1666745.000000
1667522.000000
1668344.000000
1669190.000000
1670019.000000
1670936.000000
1671894.000000
1672844.000000
1673722.000000
1674660.000000
1675604.000000
1676545.000000
1677417.000000
1678311.000000
1679235.000000
1680161.000000
1681019.000000
1681912.000000
1682841.000000
1683806.000000
1684695.000000
1685600.000000
1686541.000000
1687500.000000
1688371.000000
1689247.000000
1690164.000000
1691084.000000
1691941.000000
1692887.000000
1693882.000000
1694819.000000
1695700.000000
1696625.000000
1697552.000000
1698446.000000
1699322.000000
1700261.000000
1701233.000000
1702189.000000
1703122.000000
1704081.000000
1705040.000000
1705958.000000
1706868.000000
1707810.000000
1708758.000000
1709680.000000
1710565.000000
1711512.000000
1712484.000000
1713410.000000
1714281.000000
1715203.000000
1716174.000000
1717130.000000
1718050.000000
1719069.000000
1720065.000000
1720982.000000
1721926.000000
1722889.000000
1723810.000000
1724701.000000
1725636.000000
1726554.000000
1727409.000000
1728301.000000
1729208.000000
1730075.000000
1730945.000000
1731885.000000
1732781.000000
1733664.000000
1734568.000000
1735449.000000
1736274.000000
1737144.000000
1738068.000000
1739025.000000
1739911.000000
1740850.000000
1741776.000000
1742724.000000
1743597.000000
1744500.000000
1745431.000000
1746355.000000
1747229.000000
1748093.000000
1749010.000000
1749869.000000
1750730.000000
1751609.000000
1752531.000000
1753382.000000
1754270.000000
1755243.000000
1756236.000000
1757123.000000
1757988.000000
1758904.000000
1759815.000000
1760669.000000
1761562.000000
1762523.000000
1763444.000000
1764329.000000
1765281.000000
1766132.000000
1766935.000000
1767740.000000
1768582.000000
1769371.000000
1770227.000000
1771124.000000
1772038.000000
1772902.000000
1773793.000000
1774674.000000
1775533.000000
1776368.000000
1777236.000000
1778100.000000
1779034.000000
1780039.000000
1780918.000000
1781753.000000
1782627.000000
1783499.000000
1784379.000000
1785259.000000
1786085.000000
1786971.000000
1787876.000000
1788743.000000
1789636.000000
1790519.000000
1791357.000000
1792146.000000
1792953.000000
1793839.000000
1794746.000000
1795658.000000
1796475.000000
1797281.000000
1798113.000000
1798948.000000
1799807.000000
