ECG (ms)
201.000000
1181.000000
2248.000000
3299.000000
4293.000000
5364.000000
6293.000000
7264.000000
8249.000000
9172.000000
10182.000000
11245.000000
12200.000000
13224.000000
14314.000000
15290.000000
16364.000000
17477.000000
18464.000000
19560.000000
20681.000000
21721.000000
22867.000000
23970.000000
24941.000000
25954.000000
26847.000000
27707.000000
28642.000000
29571.000000
30609.000000
31655.000000
32605.000000
33640.000000
34759.000000
35715.000000
36766.000000
37805.000000
38760.000000
39865.000000
40910.000000
41914.000000
43043.000000
44042.000000
45037.000000
46178.000000
47181.000000
48163.000000
49255.000000
50240.000000
51309.000000
52439.000000
53421.000000
54545.000000
55620.000000
56633.000000
57776.000000
58801.000000
59822.000000
60860.000000
61811.000000
62847.000000
63967.000000
64977.000000
66113.000000
67336.000000
68342.000000
69560.000000
70688.000000
71712.000000
72859.000000
73838.000000
74912.000000
75979.000000
76963.000000
78069.000000
79123.000000
80061.000000
81196.000000
82269.000000
83196.000000
84222.000000
85267.000000
86206.000000
87286.000000
88359.000000
89377.000000
90524.000000
91508.000000
92604.000000
93630.000000
94598.000000
95662.000000
96679.000000
97697.000000
98757.000000
99714.000000
100738.000000
101777.000000
102714.000000
103726.000000
104793.000000
105748.000000
106819.000000
107831.000000
108794.000000
109859.000000
110819.000000
111835.000000
112881.000000
113852.000000
114904.000000
115893.000000
116832.000000
117879.000000
118897.000000
119877.000000
120936.000000
121923.000000
122963.000000
124030.000000
125003.000000
126074.000000
127076.000000
128063.000000
129060.000000
129999.000000
131043.000000
132021.000000
132933.000000
133959.000000
134968.000000
135957.000000
137031.000000
138073.000000
139036.000000
140143.000000
141202.000000
142175.000000
143211.000000
144210.000000
145143.000000
146148.000000
147142.000000
148082.000000
149130.000000
150117.000000
151054.000000
152061.000000
153041.000000
154008.000000
155087.000000
156111.000000
157118.000000
158289.000000
159330.000000
160317.000000
161418.000000
162552.000000
163515.000000
164589.000000
165755.000000
166812.000000
167828.000000
169004.000000
170108.000000
171085.000000
172118.000000
173246.000000
174296.000000
175228.000000
176195.000000
177208.000000
178097.000000
178966.000000
179981.000000
180962.000000
181868.000000
182888.000000
183918.000000
184859.000000
185802.000000
186797.000000
187757.000000
188648.000000
189559.000000
190482.000000
191394.000000
192274.000000
193217.000000
194211.000000
195141.000000
196119.000000
197063.000000
197982.000000
198975.000000
199936.000000
200887.000000
201869.000000
202805.000000
203762.000000
204694.000000
205582.000000
206544.000000
207507.000000
208441.000000
209476.000000
210511.000000
211437.000000
212341.000000
213299.000000
214263.000000
215213.000000
216140.000000
217183.000000
218202.000000
219148.000000
220200.000000
221239.000000
222187.000000
223124.000000
224132.000000
225156.000000
226086.000000
227159.000000
228233.000000
229206.000000
230225.000000
231315.000000
232295.000000
233245.000000
234235.000000
235289.000000
236228.000000
237296.000000
238342.000000
239325.000000
240409.000000
241490.000000
242439.000000
243537.000000
244598.000000
245555.000000
246540.000000
247742.000000
248813.000000
249799.000000
250920.000000
252065.000000
253073.000000
254041.000000
255114.000000
256115.000000
257061.000000
258058.000000
259186.000000
260199.000000
261138.000000
262179.000000
263172.000000
264150.000000
265173.000000
266135.000000
267111.000000
268090.000000
269017.000000
269887.000000
270750.000000
271745.000000
272661.000000
273678.000000
274734.000000
275722.000000
276656.000000
277689.000000
278764.000000
279773.000000
280734.000000
281832.000000
282909.000000
283904.000000
284920.000000
286005.000000
286971.000000
287890.000000
288980.000000
290015.000000
290964.000000
292018.000000
293006.000000
293959.000000
294989.000000
295966.000000
296951.000000
298002.000000
298948.000000
299943.000000
300997.000000
301927.000000
302942.000000
303960.000000
304892.000000
305931.000000
306981.000000
307933.000000
308912.000000
310034.000000
310902.000000
311735.000000
312510.000000
313248.000000
313962.000000
314741.000000
315965.000000
317088.000000
318233.000000
319339.000000
320263.000000
321225.000000
322335.000000
323430.000000
324410.000000
325445.000000
326501.000000
327507.000000
328442.000000
329632.000000
330705.000000
331673.000000
332803.000000
333905.000000
334844.000000
335909.000000
336981.000000
337927.000000
338900.000000
340016.000000
340991.000000
341925.000000
343214.000000
344408.000000
345429.000000
346439.000000
347519.000000
348559.000000
349523.000000
350722.000000
352017.000000
353036.000000
354087.000000
355252.000000
356255.000000
357242.000000
358458.000000
359674.000000
360771.000000
361857.000000
363015.000000
364095.000000
365067.000000
366097.000000
367204.000000
368234.000000
369173.000000
370272.000000
371306.000000
372269.000000
373399.000000
374575.000000
375588.000000
376626.000000
377721.000000
378768.000000
379740.000000
380871.000000
381920.000000
382888.000000
383965.000000
384949.000000
385860.000000
386827.000000
387814.000000
388738.000000
389852.000000
390861.000000
391903.000000
393074.000000
394098.000000
395210.000000
396348.000000
397329.000000
398364.000000
399404.000000
400385.000000
401403.000000
402397.000000
403353.000000
404405.000000
405386.000000
406362.000000
407445.000000
408383.000000
409398.000000
410350.000000
411295.000000
412334.000000
413281.000000
414280.000000
415344.000000
416309.000000
417336.000000
418552.000000
419601.000000
420651.000000
421782.000000
422828.000000
423855.000000
425057.000000
426052.000000
427018.000000
428117.000000
429276.000000
430296.000000
431496.000000
432753.000000
433799.000000
434961.000000
436302.000000
437330.000000
438500.000000
439570.000000
440513.000000
441562.000000
442577.000000
443522.000000
444598.000000
445596.000000
446581.000000
447692.000000
448681.000000
449658.000000
450687.000000
451644.000000
452646.000000
453710.000000
454653.000000
455541.000000
456399.000000
457270.000000
458145.000000
458977.000000
459794.000000
460643.000000
461531.000000
462390.000000
463307.000000
464273.000000
465175.000000
466141.000000
467107.000000
468022.000000
468979.000000
469948.000000
470852.000000
471818.000000
472770.000000
473675.000000
474681.000000
475678.000000
476631.000000
477746.000000
478776.000000
479731.000000
480842.000000
481889.000000
482872.000000
484019.000000
485098.000000
486061.000000
487159.000000
488272.000000
489243.000000
490219.000000
491282.000000
492280.000000
493264.000000
494348.000000
495311.000000
496376.000000
497429.000000
498432.000000
499529.000000
500546.000000
501636.000000
502708.000000
503660.000000
504695.000000
505748.000000
506709.000000
507735.000000
508849.000000
509841.000000
510930.000000
511996.000000
512961.000000
514012.000000
515106.000000
516091.000000
517158.000000
518291.000000
519270.000000
520288.000000
521311.000000
522244.000000
523236.000000
524258.000000
525215.000000
526310.000000
527356.000000
528370.000000
529436.000000
530530.000000
531500.000000
532558.000000
533601.000000
534544.000000
535479.000000
536554.000000
537619.000000
538558.000000
539567.000000
540677.000000
541698.000000
542694.000000
543783.000000
544880.000000
545861.000000
546828.000000
547864.000000
548853.000000
549883.000000
550968.000000
551920.000000
552936.000000
554021.000000
554993.000000
556091.000000
557195.000000
558160.000000
559228.000000
560258.000000
561190.000000
562168.000000
563066.000000
563932.000000
564826.000000
565701.000000
566618.000000
567565.000000
568459.000000
569470.000000
570432.000000
571360.000000
572396.000000
573458.000000
574388.000000
575395.000000
576493.000000
577455.000000
578375.000000
579356.000000
580322.000000
581329.000000
582421.000000
583410.000000
584516.000000
585605.000000
586588.000000
587662.000000
588655.000000
589631.000000
590719.000000
591702.000000
592689.000000
593735.000000
594701.000000
595684.000000
596649.000000
597577.000000
598633.000000
599747.000000
600696.000000
601696.000000
602764.000000
603844.000000
604818.000000
605907.000000
606999.000000
607962.000000
608976.000000
610074.000000
611121.000000
612068.000000
613112.000000
614225.000000
615233.000000
616344.000000
617407.000000
618400.000000
619520.000000
620656.000000
621661.000000
622717.000000
623824.000000
624862.000000
625839.000000
626981.000000
628068.000000
629053.000000
630186.000000
631358.000000
632371.000000
633417.000000
634586.000000
635661.000000
636580.000000
637518.000000
638710.000000
639801.000000
640757.000000
641852.000000
642893.000000
643882.000000
644954.000000
645988.000000
646935.000000
647919.000000
648918.000000
649880.000000
650811.000000
651808.000000
652795.000000
653736.000000
654776.000000
655766.000000
656722.000000
657755.000000
658760.000000
659721.000000
660816.000000
661868.000000
662823.000000
663813.000000
664912.000000
666037.000000
667050.000000
667996.000000
669038.000000
670170.000000
671209.000000
672080.000000
672923.000000
673753.000000
674541.000000
675384.000000
676538.000000
677439.000000
678377.000000
679392.000000
680455.000000
681427.000000
682417.000000
683390.000000
684342.000000
685225.000000
686182.000000
687218.000000
688243.000000
689215.000000
690337.000000
691388.000000
692349.000000
693332.000000
694390.000000
695473.000000
696408.000000
697334.000000
698360.000000
699400.000000
700381.000000
701315.000000
702278.000000
703280.000000
704252.000000
705171.000000
706160.000000
707168.000000
708127.000000
709114.000000
710128.000000
711100.000000
712013.000000
712974.000000
713914.000000
714824.000000
715800.000000
716788.000000
717701.000000
718731.000000
719790.000000
720742.000000
721958.000000
723006.000000
724011.000000
725151.000000
726164.000000
727136.000000
728223.000000
729382.000000
730414.000000
731420.000000
732501.000000
733476.000000
734483.000000
735578.000000
736550.000000
737627.000000
738765.000000
739742.000000
740820.000000
741828.000000
742807.000000
743894.000000
744908.000000
745950.000000
747220.000000
748247.000000
749354.000000
750444.000000
751459.000000
752642.000000
753666.000000
754725.000000
755842.000000
756845.000000
757899.000000
758998.000000
760002.000000
761039.000000
762112.000000
763072.000000
764099.000000
765157.000000
766113.000000
767046.000000
768053.000000
768938.000000
769807.000000
770728.000000
771613.000000
772581.000000
773553.000000
774499.000000
775519.000000
776496.000000
777464.000000
778469.000000
779413.000000
780360.000000
781387.000000
782319.000000
783341.000000
784377.000000
785322.000000
786346.000000
787383.000000
788346.000000
789436.000000
790433.000000
791387.000000
792454.000000
793484.000000
794468.000000
795514.000000
796515.000000
797529.000000
798601.000000
799560.000000
800581.000000
801572.000000
802524.000000
803628.000000
804616.000000
805540.000000
806547.000000
807526.000000
808491.000000
809571.000000
810561.000000
811546.000000
812619.000000
813588.000000
814534.000000
815540.000000
816501.000000
817492.000000
818680.000000
819675.000000
820789.000000
822004.000000
823045.000000
824167.000000
825384.000000
826424.000000
827576.000000
828696.000000
829616.000000
830551.000000
831770.000000
832783.000000
833803.000000
834716.000000
835678.000000
836647.000000
837593.000000
838660.000000
839739.000000
840687.000000
841714.000000
842747.000000
843710.000000
844706.000000
845725.000000
846680.000000
847764.000000
848817.000000
849811.000000
850924.000000
851945.000000
852962.000000
854007.000000
854976.000000
856032.000000
857056.000000
858043.000000
859123.000000
860162.000000
861130.000000
862179.000000
863184.000000
864169.000000
865200.000000
866139.000000
867134.000000
868133.000000
869051.000000
870014.000000
870982.000000
871917.000000
872932.000000
873934.000000
874866.000000
875936.000000
876937.000000
877904.000000
878951.000000
879923.000000
880931.000000
881955.000000
882900.000000
883873.000000
884835.000000
885748.000000
886793.000000
887784.000000
888774.000000
889828.000000
890809.000000
891832.000000
892879.000000
893838.000000
894882.000000
895939.000000
896891.000000
897932.000000
898932.000000
899870.000000
900905.000000
901899.000000
902833.000000
903898.000000
904966.000000
905929.000000
906982.000000
908071.000000
909038.000000
910016.000000
911082.000000
912057.000000
913015.000000
914137.000000
915273.000000
916284.000000
917366.000000
918524.000000
919531.000000
920525.000000
921660.000000
922714.000000
923685.000000
924774.000000
925806.000000
926822.000000
927917.000000
928970.000000
929984.000000
931087.000000
932125.000000
933091.000000
934173.000000
935269.000000
936181.000000
937052.000000
938055.000000
939218.000000
940392.000000
941311.000000
942208.000000
943226.000000
944177.000000
945120.000000
946120.000000
947116.000000
948055.000000
949011.000000
949980.000000
950917.000000
951857.000000
952854.000000
953803.000000
954737.000000
955681.000000
956591.000000
957540.000000
958500.000000
959412.000000
960382.000000
961335.000000
962248.000000
963223.000000
964181.000000
965093.000000
966054.000000
966974.000000
967905.000000
968863.000000
969769.000000
970783.000000
971765.000000
972695.000000
973701.000000
974649.000000
975588.000000
976565.000000
977469.000000
978396.000000
979338.000000
980231.000000
981203.000000
982159.000000
983128.000000
984148.000000
985111.000000
986183.000000
987237.000000
988219.000000
989376.000000
990410.000000
991387.000000
992424.000000
993314.000000
994165.000000
994995.000000
995783.000000
996583.000000
997535.000000
998393.000000
999373.000000
1000329.000000
1001403.000000
1002520.000000
1003531.000000
1004577.000000
1005666.000000
1006649.000000
1007650.000000
1008823.000000
1009913.000000
1010978.000000
1012150.000000
1013180.000000
1014248.000000
1015392.000000
1016414.000000
1017523.000000
1018621.000000
1019610.000000
1020644.000000
1021716.000000
1022677.000000
1023787.000000
1024839.000000
1025821.000000
1026874.000000
1027967.000000
1028896.000000
1029899.000000
1030879.000000
1031811.000000
1032886.000000
1033960.000000
1034969.000000
1036165.000000
1037229.000000
1038333.000000
1039504.000000
1040549.000000
1041701.000000
1042682.000000
1043714.000000
1044758.000000
1045705.000000
1046763.000000
1047764.000000
1048695.000000
1049667.000000
1050631.000000
1051568.000000
1052603.000000
1053602.000000
1054567.000000
1055589.000000
1056548.000000
1057538.000000
1058521.000000
1059451.000000
1060488.000000
1061544.000000
1062492.000000
1063503.000000
1064610.000000
1065581.000000
1066549.000000
1067612.000000
1068576.000000
1069633.000000
1070687.000000
1071636.000000
1072642.000000
1073673.000000
1074628.000000
1075731.000000
1076786.000000
1077760.000000
1078824.000000
1079834.000000
1080787.000000
1081818.000000
1082807.000000
1083768.000000
1084816.000000
1085819.000000
1086862.000000
1087866.000000
1088811.000000
1089806.000000
1090740.000000
1091640.000000
1092570.000000
1093501.000000
1094453.000000
1095416.000000
1096317.000000
1097270.000000
1098220.000000
1099113.000000
1100058.000000
1100986.000000
1101868.000000
1102821.000000
1103775.000000
1104692.000000
1105683.000000
1106742.000000
1107693.000000
1108689.000000
1109692.000000
1110622.000000
1111606.000000
1112493.000000
1113350.000000
1114264.000000
1115128.000000
1116031.000000
1116974.000000
1117857.000000
1118755.000000
1119700.000000
1120595.000000
1121542.000000
1122497.000000
1123422.000000
1124434.000000
1125345.000000
1126294.000000
1127228.000000
1128117.000000
1129094.000000
1130034.000000
1130928.000000
1131902.000000
1132848.000000
1133791.000000
1134804.000000
1135757.000000
1136760.000000
1137692.000000
1138582.000000
1139519.000000
1140445.000000
1141349.000000
1142350.000000
1143312.000000
1144363.000000
1145431.000000
1146356.000000
1147325.000000
1148439.000000
1149568.000000
1150526.000000
1151661.000000
1152834.000000
1153903.000000
1155084.000000
1156184.000000
1157194.000000
1158304.000000
1159396.000000
1160581.000000
1161681.000000
1162643.000000
1163711.000000
1164952.000000
1166033.000000
1167135.000000
1168247.000000
1169253.000000
1170402.000000
1171508.000000
1172498.000000
1173577.000000
1174659.000000
1175622.000000
1176795.000000
1177862.000000
1178783.000000
1179688.000000
1180635.000000
1181516.000000
1182445.000000
1183386.000000
1184310.000000
1185397.000000
1186554.000000
1187542.000000
1188564.000000
1189672.000000
1190669.000000
1191568.000000
1192563.000000
1193619.000000
1194561.000000
1195418.000000
1196271.000000
1197327.000000
1198481.000000
1199562.000000
1200703.000000
1201789.000000
1202770.000000
1203820.000000
1204849.000000
1205829.000000
1206747.000000
1207722.000000
1208752.000000
1209696.000000
1210623.000000
1211597.000000
1212596.000000
1213538.000000
1214711.000000
1215841.000000
1216932.000000
1217982.000000
