ECG (ms)
7.000000
642.000000
1267.000000
1889.000000
2508.000000
3132.000000
3752.000000
4372.000000
4982.000000
5588.000000
6197.000000
6805.000000
7418.000000
8027.000000
8637.000000
9246.000000
9858.000000
10476.000000
11095.000000
11715.000000
12331.000000
12945.000000
13557.000000
14171.000000
14787.000000
15405.000000
16022.000000
16633.000000
17241.000000
17849.000000
18464.000000
19074.000000
19681.000000
20289.000000
20897.000000
21509.000000
22126.000000
22745.000000
23362.000000
23978.000000
24594.000000
25210.000000
25828.000000
26450.000000
27067.000000
27683.000000
28297.000000
28911.000000
29529.000000
30144.000000
30758.000000
31372.000000
31989.000000
32606.000000
33228.000000
33851.000000
34476.000000
35096.000000
35714.000000
36334.000000
36954.000000
37570.000000
38186.000000
38803.000000
39421.000000
40043.000000
40670.000000
41301.000000
41930.000000
42559.000000
43178.000000
43789.000000
44404.000000
45016.000000
45633.000000
46252.000000
46870.000000
47485.000000
48095.000000
48710.000000
49324.000000
49941.000000
50559.000000
51177.000000
51796.000000
52414.000000
53027.000000
53643.000000
54261.000000
54884.000000
55508.000000
56134.000000
56755.000000
57372.000000
57991.000000
58608.000000
59221.000000
59832.000000
60448.000000
61065.000000
61681.000000
62293.000000
62897.000000
63494.000000
64084.000000
64672.000000
65268.000000
65872.000000
66481.000000
67103.000000
67738.000000
68378.000000
69019.000000
69660.000000
70300.000000
70931.000000
71561.000000
72193.000000
72825.000000
73462.000000
74098.000000
74728.000000
75356.000000
75979.000000
76596.000000
77211.000000
77828.000000
78447.000000
79070.000000
79694.000000
80319.000000
80942.000000
81565.000000
82187.000000
82805.000000
83418.000000
84035.000000
84653.000000
85275.000000
85898.000000
86523.000000
87146.000000
87766.000000
88386.000000
89008.000000
89631.000000
90243.000000
90858.000000
91473.000000
92087.000000
92703.000000
93331.000000
93958.000000
94585.000000
95209.000000
95827.000000
96441.000000
97057.000000
97675.000000
98290.000000
98905.000000
99522.000000
100143.000000
100769.000000
101398.000000
102030.000000
102658.000000
103286.000000
103908.000000
104519.000000
105128.000000
105740.000000
106354.000000
106970.000000
107588.000000
108206.000000
108823.000000
109440.000000
110056.000000
110672.000000
111289.000000
111909.000000
112534.000000
113161.000000
113793.000000
114421.000000
115044.000000
115662.000000
116275.000000
116888.000000
117501.000000
118117.000000
118736.000000
119356.000000
119972.000000
120585.000000
121205.000000
121826.000000
122448.000000
123068.000000
123690.000000
124315.000000
124938.000000
125564.000000
126188.000000
126809.000000
127430.000000
128057.000000
128690.000000
129325.000000
129960.000000
130590.000000
131223.000000
131852.000000
132481.000000
133111.000000
133736.000000
134358.000000
134982.000000
135610.000000
136245.000000
136886.000000
137523.000000
138155.000000
138786.000000
139416.000000
140051.000000
140682.000000
141317.000000
141947.000000
142570.000000
143193.000000
143811.000000
144430.000000
145046.000000
145659.000000
146270.000000
146884.000000
147501.000000
148117.000000
148730.000000
149344.000000
149961.000000
150585.000000
151210.000000
151839.000000
152468.000000
153098.000000
153722.000000
154345.000000
154971.000000
155598.000000
156224.000000
156851.000000
157477.000000
158101.000000
158725.000000
159347.000000
159969.000000
160597.000000
161226.000000
161860.000000
162491.000000
163121.000000
163751.000000
164387.000000
165024.000000
165662.000000
166300.000000
166934.000000
167569.000000
168208.000000
168852.000000
169494.000000
170134.000000
170772.000000
171412.000000
172046.000000
172679.000000
173312.000000
173945.000000
174577.000000
175203.000000
175827.000000
176462.000000
177100.000000
177742.000000
178379.000000
179016.000000
179657.000000
180299.000000
180939.000000
181579.000000
182219.000000
182860.000000
183498.000000
184139.000000
184774.000000
185407.000000
186041.000000
186677.000000
187314.000000
187950.000000
188582.000000
189209.000000
189840.000000
190471.000000
191101.000000
191730.000000
192356.000000
192979.000000
193604.000000
194230.000000
194855.000000
195476.000000
196099.000000
196724.000000
197349.000000
197970.000000
198592.000000
199212.000000
199833.000000
200454.000000
201075.000000
201696.000000
202311.000000
202925.000000
203540.000000
204155.000000
204772.000000
205388.000000
206007.000000
206634.000000
207265.000000
207906.000000
208543.000000
209176.000000
209809.000000
210440.000000
211070.000000
211700.000000
212323.000000
212941.000000
213560.000000
214182.000000
214810.000000
215441.000000
216070.000000
216698.000000
217316.000000
217925.000000
218535.000000
219146.000000
219759.000000
220378.000000
221001.000000
221623.000000
222244.000000
222868.000000
223492.000000
224114.000000
224735.000000
225353.000000
225968.000000
226587.000000
227209.000000
227830.000000
228448.000000
229070.000000
229691.000000
230318.000000
230943.000000
231571.000000
232199.000000
232820.000000
233437.000000
234054.000000
234675.000000
235300.000000
235930.000000
236562.000000
237191.000000
237821.000000
238451.000000
239082.000000
239714.000000
240348.000000
240984.000000
241619.000000
242248.000000
242876.000000
243504.000000
244133.000000
244758.000000
245385.000000
246002.000000
246618.000000
247229.000000
247839.000000
248449.000000
249060.000000
249669.000000
250281.000000
250902.000000
251528.000000
252161.000000
252793.000000
253420.000000
254045.000000
254671.000000
255291.000000
255909.000000
256531.000000
257156.000000
257780.000000
258397.000000
259006.000000
259616.000000
260227.000000
260840.000000
261454.000000
262062.000000
262672.000000
263285.000000
263895.000000
264506.000000
265114.000000
265722.000000
266336.000000
266950.000000
267564.000000
268179.000000
268794.000000
269408.000000
270029.000000
270650.000000
271271.000000
271885.000000
272503.000000
273126.000000
273750.000000
274376.000000
275000.000000
275624.000000
276250.000000
276876.000000
277505.000000
278135.000000
278761.000000
279383.000000
280007.000000
280634.000000
281266.000000
281891.000000
282515.000000
283139.000000
283766.000000
284395.000000
285022.000000
285645.000000
286270.000000
286896.000000
287524.000000
288155.000000
288782.000000
289405.000000
290027.000000
290649.000000
291270.000000
291889.000000
292505.000000
293122.000000
293747.000000
294375.000000
295004.000000
295632.000000
296260.000000
296885.000000
297509.000000
298126.000000
298742.000000
299357.000000
299972.000000
300595.000000
301224.000000
301859.000000
302490.000000
303120.000000
303745.000000
304373.000000
305003.000000
305635.000000
306263.000000
306887.000000
307509.000000
308133.000000
308759.000000
309386.000000
310011.000000
310633.000000
311263.000000
311896.000000
312528.000000
313160.000000
313792.000000
314428.000000
315067.000000
315709.000000
316351.000000
316987.000000
317620.000000
318251.000000
318884.000000
319514.000000
320143.000000
320766.000000
321387.000000
322014.000000
322639.000000
323265.000000
323889.000000
324513.000000
325138.000000
325766.000000
326395.000000
327029.000000
327664.000000
328301.000000
328939.000000
329575.000000
330208.000000
330845.000000
331478.000000
332110.000000
332743.000000
333380.000000
334018.000000
334659.000000
335305.000000
335956.000000
336608.000000
337251.000000
337895.000000
338535.000000
339173.000000
339810.000000
340445.000000
341075.000000
341703.000000
342334.000000
342965.000000
343595.000000
344232.000000
344864.000000
345493.000000
346118.000000
346747.000000
347376.000000
348008.000000
348641.000000
349274.000000
349905.000000
350532.000000
351161.000000
351789.000000
352413.000000
353035.000000
353656.000000
354277.000000
354899.000000
355522.000000
356152.000000
356781.000000
357403.000000
358016.000000
358624.000000
359228.000000
359824.000000
360416.000000
361011.000000
361613.000000
362225.000000
362838.000000
363457.000000
364085.000000
364717.000000
365355.000000
365983.000000
366605.000000
367230.000000
367853.000000
368483.000000
369115.000000
369742.000000
370365.000000
370991.000000
371629.000000
372274.000000
372920.000000
373568.000000
374215.000000
374854.000000
375500.000000
376143.000000
376783.000000
377418.000000
378046.000000
378671.000000
379298.000000
379930.000000
380562.000000
381197.000000
381829.000000
382454.000000
383078.000000
383703.000000
384326.000000
384949.000000
385567.000000
386191.000000
386818.000000
387445.000000
388071.000000
388699.000000
389335.000000
389987.000000
390638.000000
391279.000000
391915.000000
392554.000000
393195.000000
393835.000000
394481.000000
395121.000000
395761.000000
396403.000000
397044.000000
397686.000000
398332.000000
398973.000000
399615.000000
400249.000000
400880.000000
401513.000000
402147.000000
402784.000000
403419.000000
404055.000000
404690.000000
405317.000000
405945.000000
406573.000000
407200.000000
407828.000000
408455.000000
409085.000000
409710.000000
410324.000000
410944.000000
411564.000000
412183.000000
412807.000000
413432.000000
414056.000000
414679.000000
415295.000000
415909.000000
416525.000000
417144.000000
417758.000000
418375.000000
418997.000000
419634.000000
420271.000000
420915.000000
421553.000000
422190.000000
422831.000000
423468.000000
424104.000000
424738.000000
425371.000000
426003.000000
426630.000000
427251.000000
427881.000000
428508.000000
429137.000000
429767.000000
430400.000000
431031.000000
431665.000000
432301.000000
432939.000000
433577.000000
434210.000000
434836.000000
435463.000000
436091.000000
436723.000000
437354.000000
437986.000000
438614.000000
439239.000000
439863.000000
440488.000000
441116.000000
441747.000000
442381.000000
443014.000000
443639.000000
444267.000000
444894.000000
445522.000000
446149.000000
446773.000000
447397.000000
448022.000000
448652.000000
449279.000000
449900.000000
450519.000000
451138.000000
451757.000000
452376.000000
452994.000000
453612.000000
454227.000000
454847.000000
455476.000000
456110.000000
456742.000000
457374.000000
458008.000000
458648.000000
459284.000000
459914.000000
460541.000000
461166.000000
461790.000000
462421.000000
463053.000000
463683.000000
464310.000000
464932.000000
465554.000000
466171.000000
466788.000000
467406.000000
468021.000000
468639.000000
469266.000000
469898.000000
470531.000000
471161.000000
471790.000000
472425.000000
473063.000000
473698.000000
474331.000000
474964.000000
475594.000000
476223.000000
476852.000000
477484.000000
478115.000000
478754.000000
479399.000000
480038.000000
480671.000000
481300.000000
481929.000000
482560.000000
483190.000000
483818.000000
484451.000000
485090.000000
485730.000000
486373.000000
487010.000000
487644.000000
488277.000000
488907.000000
489530.000000
490148.000000
490765.000000
491380.000000
491998.000000
492625.000000
493258.000000
493887.000000
494514.000000
495143.000000
495770.000000
496403.000000
497037.000000
497671.000000
498298.000000
498921.000000
499546.000000
500175.000000
500802.000000
501426.000000
502051.000000
502684.000000
503319.000000
503956.000000
504592.000000
505220.000000
505850.000000
506480.000000
507113.000000
507751.000000
508388.000000
509020.000000
509649.000000
510275.000000
510901.000000
511529.000000
512157.000000
512782.000000
513408.000000
514037.000000
514664.000000
515289.000000
515915.000000
516539.000000
517160.000000
517776.000000
518393.000000
519009.000000
519620.000000
520225.000000
520833.000000
521449.000000
522069.000000
522691.000000
523309.000000
523931.000000
524553.000000
525178.000000
525806.000000
526436.000000
527069.000000
527698.000000
528327.000000
528958.000000
529593.000000
530226.000000
530859.000000
531485.000000
532104.000000
532733.000000
533355.000000
533978.000000
534599.000000
535225.000000
535851.000000
536480.000000
537112.000000
537745.000000
538381.000000
539010.000000
539636.000000
540257.000000
540880.000000
541501.000000
542115.000000
542731.000000
543346.000000
543965.000000
544590.000000
545215.000000
545844.000000
546472.000000
547099.000000
547724.000000
548348.000000
548977.000000
549607.000000
550231.000000
550853.000000
551474.000000
552098.000000
552721.000000
553348.000000
553971.000000
554592.000000
555219.000000
555847.000000
556473.000000
557098.000000
557721.000000
558343.000000
558967.000000
559591.000000
560220.000000
560851.000000
561479.000000
562103.000000
562724.000000
563345.000000
563968.000000
564588.000000
565202.000000
565813.000000
566430.000000
567047.000000
567672.000000
568299.000000
568924.000000
569546.000000
570162.000000
570780.000000
571400.000000
572019.000000
572640.000000
573259.000000
573878.000000
574508.000000
575141.000000
575778.000000
576409.000000
577034.000000
577661.000000
578289.000000
578923.000000
579561.000000
580196.000000
580829.000000
581464.000000
582098.000000
582739.000000
583383.000000
584026.000000
584668.000000
585302.000000
585931.000000
586556.000000
587181.000000
587808.000000
588430.000000
589055.000000
589674.000000
590286.000000
590899.000000
591507.000000
592120.000000
592735.000000
593348.000000
593966.000000
594592.000000
595225.000000
595855.000000
596483.000000
597108.000000
597731.000000
598352.000000
598974.000000
599592.000000
600207.000000
600819.000000
601429.000000
602040.000000
602647.000000
603251.000000
603862.000000
604471.000000
605087.000000
605702.000000
606320.000000
606933.000000
607548.000000
608161.000000
608780.000000
609398.000000
610018.000000
610634.000000
611246.000000
611860.000000
612477.000000
613096.000000
613714.000000
614330.000000
614946.000000
615563.000000
616181.000000
616797.000000
617414.000000
618028.000000
618643.000000
619264.000000
619878.000000
620491.000000
621101.000000
621713.000000
622329.000000
622945.000000
623561.000000
624175.000000
624793.000000
625417.000000
626047.000000
626681.000000
627313.000000
627945.000000
628573.000000
629202.000000
629830.000000
630460.000000
631088.000000
631712.000000
632334.000000
632958.000000
633582.000000
634210.000000
634834.000000
635459.000000
636083.000000
636711.000000
637343.000000
637971.000000
638595.000000
639222.000000
639853.000000
640491.000000
641134.000000
641778.000000
642428.000000
643071.000000
643711.000000
644342.000000
644962.000000
645583.000000
646203.000000
646834.000000
647468.000000
648103.000000
648732.000000
649353.000000
649975.000000
650594.000000
651216.000000
651839.000000
652462.000000
653085.000000
653708.000000
654334.000000
654966.000000
655598.000000
656236.000000
656878.000000
657517.000000
658152.000000
658786.000000
659421.000000
660053.000000
660681.000000
661302.000000
661922.000000
662545.000000
663163.000000
663781.000000
664397.000000
665009.000000
665628.000000
666245.000000
666860.000000
667476.000000
668088.000000
668715.000000
669336.000000
669957.000000
670577.000000
671195.000000
671817.000000
672441.000000
673075.000000
673705.000000
674336.000000
674967.000000
675595.000000
676223.000000
676849.000000
677471.000000
678092.000000
678707.000000
679320.000000
679929.000000
680540.000000
681150.000000
681758.000000
682365.000000
682970.000000
683576.000000
684182.000000
684790.000000
685401.000000
686016.000000
686631.000000
687252.000000
687878.000000
688510.000000
689147.000000
689785.000000
690420.000000
691054.000000
691687.000000
692324.000000
692959.000000
693589.000000
694213.000000
694838.000000
695464.000000
696084.000000
696703.000000
697320.000000
697940.000000
698568.000000
699192.000000
699819.000000
700441.000000
701065.000000
701687.000000
702310.000000
702938.000000
703561.000000
704183.000000
704799.000000
705415.000000
706040.000000
706667.000000
707290.000000
707920.000000
708550.000000
709190.000000
709829.000000
710466.000000
711096.000000
711723.000000
712347.000000
712974.000000
713599.000000
714218.000000
714838.000000
715463.000000
716092.000000
716726.000000
717365.000000
718004.000000
718643.000000
719277.000000
719906.000000
720532.000000
721158.000000
721777.000000
722393.000000
723006.000000
723621.000000
724234.000000
724844.000000
725463.000000
726089.000000
726721.000000
727352.000000
727981.000000
728605.000000
729223.000000
729847.000000
730471.000000
731096.000000
731723.000000
732348.000000
732972.000000
733598.000000
734224.000000
734852.000000
735484.000000
736111.000000
736736.000000
737360.000000
737981.000000
738600.000000
739215.000000
739828.000000
740439.000000
741049.000000
741662.000000
742277.000000
742893.000000
743505.000000
744114.000000
744722.000000
745335.000000
745948.000000
746557.000000
747165.000000
747775.000000
748387.000000
749005.000000
749628.000000
750251.000000
750872.000000
751490.000000
752104.000000
752718.000000
753336.000000
753958.000000
754576.000000
755188.000000
755798.000000
756416.000000
757033.000000
757653.000000
758269.000000
758883.000000
759500.000000
760122.000000
760745.000000
761374.000000
762004.000000
762629.000000
763251.000000
763869.000000
764487.000000
765104.000000
765727.000000
766345.000000
766964.000000
767585.000000
768206.000000
768830.000000
769461.000000
770090.000000
770718.000000
771341.000000
771956.000000
772571.000000
773189.000000
773806.000000
774421.000000
775030.000000
775638.000000
776245.000000
776855.000000
777470.000000
778089.000000
778708.000000
779327.000000
779945.000000
780558.000000
781168.000000
781781.000000
782392.000000
783001.000000
783607.000000
784215.000000
784827.000000
785438.000000
786049.000000
786666.000000
787284.000000
787900.000000
788522.000000
789142.000000
789760.000000
790377.000000
790993.000000
791612.000000
792229.000000
792844.000000
793456.000000
794065.000000
794676.000000
795292.000000
795910.000000
796531.000000
797150.000000
797769.000000
798391.000000
799012.000000
799634.000000
800259.000000
800886.000000
801511.000000
802133.000000
802747.000000
803353.000000
803961.000000
804572.000000
805187.000000
805809.000000
806436.000000
807063.000000
807690.000000
808314.000000
808934.000000
809551.000000
810166.000000
810781.000000
811398.000000
812017.000000
812637.000000
813255.000000
813868.000000
814482.000000
815103.000000
815723.000000
816341.000000
816955.000000
817560.000000
818158.000000
818752.000000
819349.000000
819946.000000
820551.000000
821160.000000
821774.000000
822387.000000
823000.000000
823611.000000
824223.000000
824834.000000
825446.000000
826060.000000
826676.000000
827288.000000
827895.000000
828502.000000
829114.000000
829730.000000
830351.000000
830977.000000
831602.000000
832226.000000
832851.000000
833477.000000
834104.000000
834730.000000
835353.000000
835972.000000
836593.000000
837219.000000
837844.000000
838467.000000
839085.000000
839701.000000
840320.000000
840933.000000
841547.000000
842158.000000
842766.000000
843377.000000
843990.000000
844604.000000
845229.000000
845852.000000
846474.000000
847090.000000
847707.000000
848324.000000
848937.000000
849551.000000
850162.000000
850775.000000
851391.000000
852011.000000
852634.000000
853260.000000
853884.000000
854510.000000
855129.000000
855744.000000
856364.000000
856978.000000
857588.000000
858201.000000
858809.000000
859414.000000
860015.000000
860625.000000
861240.000000
861866.000000
862487.000000
863111.000000
863737.000000
864365.000000
864995.000000
865626.000000
866253.000000
866876.000000
867490.000000
868103.000000
868720.000000
869335.000000
869947.000000
870555.000000
871164.000000
871774.000000
872388.000000
873006.000000
873625.000000
874241.000000
874848.000000
875455.000000
876058.000000
876661.000000
877271.000000
877875.000000
878480.000000
879083.000000
879691.000000
880303.000000
880915.000000
881531.000000
882149.000000
882771.000000
883396.000000
884025.000000
884654.000000
885281.000000
885908.000000
886530.000000
887145.000000
887763.000000
888380.000000
888997.000000
889613.000000
890232.000000
890850.000000
891464.000000
892078.000000
892695.000000
893308.000000
893918.000000
894528.000000
895140.000000
895758.000000
896373.000000
896987.000000
897604.000000
898226.000000
898848.000000
899476.000000
900106.000000
900733.000000
901360.000000
901985.000000
902608.000000
903234.000000
903862.000000
904496.000000
905127.000000
905758.000000
906381.000000
907000.000000
907618.000000
908239.000000
908863.000000
909485.000000
910107.000000
910724.000000
911337.000000
911946.000000
912559.000000
913177.000000
913799.000000
914425.000000
915050.000000
915676.000000
916300.000000
916926.000000
917552.000000
918180.000000
918807.000000
919431.000000
920055.000000
920680.000000
921307.000000
921935.000000
922566.000000
923204.000000
923834.000000
924457.000000
925074.000000
925693.000000
926316.000000
926938.000000
927563.000000
928189.000000
928814.000000
929436.000000
930053.000000
930676.000000
931296.000000
931924.000000
932553.000000
933184.000000
933810.000000
934437.000000
935065.000000
935690.000000
936315.000000
936942.000000
937570.000000
938194.000000
938816.000000
939434.000000
940050.000000
940668.000000
941287.000000
941904.000000
942519.000000
943135.000000
943749.000000
944365.000000
944981.000000
945598.000000
946211.000000
946818.000000
947422.000000
948029.000000
948637.000000
949245.000000
949854.000000
950466.000000
951082.000000
951702.000000
952322.000000
952942.000000
953559.000000
954177.000000
954794.000000
955408.000000
956019.000000
956629.000000
957232.000000
957837.000000
958443.000000
959049.000000
959658.000000
960265.000000
960873.000000
961483.000000
962095.000000
962711.000000
963326.000000
963945.000000
964566.000000
965184.000000
965799.000000
966416.000000
967033.000000
967653.000000
968272.000000
968893.000000
969513.000000
970136.000000
970757.000000
971378.000000
972002.000000
972626.000000
973252.000000
973875.000000
974494.000000
975107.000000
975721.000000
976335.000000
976949.000000
977563.000000
978175.000000
978788.000000
979400.000000
980018.000000
980641.000000
981262.000000
981886.000000
982506.000000
983122.000000
983738.000000
984358.000000
984977.000000
985596.000000
986216.000000
986834.000000
987452.000000
988071.000000
988691.000000
989312.000000
989935.000000
990553.000000
991166.000000
991768.000000
992364.000000
992956.000000
993546.000000
994135.000000
994732.000000
995330.000000
995934.000000
996538.000000
997150.000000
997762.000000
998378.000000
999000.000000
999626.000000
1000251.000000
1000875.000000
1001497.000000
1002117.000000
1002738.000000
1003360.000000
1003985.000000
1004612.000000
1005234.000000
1005850.000000
1006459.000000
1007073.000000
1007684.000000
1008294.000000
1008899.000000
1009508.000000
1010126.000000
1010744.000000
1011362.000000
1011980.000000
1012600.000000
1013226.000000
1013850.000000
1014478.000000
1015102.000000
1015722.000000
1016341.000000
1016963.000000
1017585.000000
1018208.000000
1018828.000000
1019445.000000
1020063.000000
1020683.000000
1021305.000000
1021929.000000
1022556.000000
1023180.000000
1023796.000000
1024414.000000
1025031.000000
1025649.000000
1026267.000000
1026879.000000
1027496.000000
1028113.000000
1028734.000000
1029360.000000
1029984.000000
1030605.000000
1031226.000000
1031847.000000
1032467.000000
1033090.000000
1033712.000000
1034329.000000
1034941.000000
1035549.000000
1036156.000000
1036766.000000
1037374.000000
1037980.000000
1038585.000000
1039188.000000
1039797.000000
1040409.000000
1041019.000000
1041629.000000
1042233.000000
1042841.000000
1043453.000000
1044065.000000
1044674.000000
1045282.000000
1045896.000000
1046511.000000
1047132.000000
1047756.000000
1048377.000000
1048993.000000
1049603.000000
1050211.000000
1050816.000000
1051424.000000
1052031.000000
1052636.000000
1053240.000000
1053844.000000
1054452.000000
1055062.000000
1055676.000000
1056297.000000
1056915.000000
1057530.000000
1058141.000000
1058750.000000
1059361.000000
1059971.000000
1060588.000000
1061204.000000
1061821.000000
1062443.000000
1063074.000000
1063705.000000
1064331.000000
1064954.000000
1065576.000000
1066198.000000
1066818.000000
1067439.000000
1068059.000000
1068673.000000
1069282.000000
1069890.000000
1070502.000000
1071114.000000
1071728.000000
1072341.000000
1072951.000000
1073560.000000
1074175.000000
1074789.000000
1075405.000000
1076020.000000
1076634.000000
1077242.000000
1077850.000000
1078460.000000
1079072.000000
1079681.000000
1080291.000000
1080903.000000
1081522.000000
1082140.000000
1082758.000000
1083372.000000
1083987.000000
1084603.000000
1085218.000000
1085829.000000
1086439.000000
1087050.000000
1087665.000000
1088281.000000
1088896.000000
1089510.000000
1090121.000000
1090728.000000
1091338.000000
1091950.000000
1092563.000000
1093177.000000
1093787.000000
1094397.000000
1095011.000000
1095626.000000
1096248.000000
1096873.000000
1097498.000000
1098122.000000
1098749.000000
1099379.000000
1100006.000000
1100630.000000
1101252.000000
1101870.000000
1102490.000000
1103113.000000
1103738.000000
1104364.000000
1104983.000000
1105597.000000
1106207.000000
1106820.000000
1107434.000000
1108050.000000
1108662.000000
1109277.000000
1109889.000000
1110504.000000
1111127.000000
1111749.000000
1112369.000000
1112982.000000
1113590.000000
1114199.000000
1114804.000000
1115407.000000
1116005.000000
1116598.000000
1117190.000000
1117784.000000
1118381.000000
1118986.000000
1119593.000000
1120205.000000
1120819.000000
1121438.000000
1122055.000000
1122670.000000
1123279.000000
1123886.000000
1124495.000000
1125109.000000
1125722.000000
1126334.000000
1126943.000000
1127555.000000
1128170.000000
1128789.000000
1129410.000000
1130030.000000
1130645.000000
1131255.000000
1131870.000000
1132490.000000
1133114.000000
1133742.000000
1134373.000000
1135003.000000
1135633.000000
1136261.000000
1136888.000000
1137520.000000
1138152.000000
1138781.000000
1139409.000000
1140039.000000
1140666.000000
1141293.000000
1141924.000000
1142552.000000
1143174.000000
1143795.000000
1144411.000000
1145026.000000
1145641.000000
1146264.000000
1146892.000000
1147518.000000
1148143.000000
1148767.000000
1149390.000000
1150018.000000
1150649.000000
1151279.000000
1151908.000000
1152535.000000
1153160.000000
1153783.000000
1154410.000000
1155038.000000
1155662.000000
1156284.000000
1156906.000000
1157528.000000
1158153.000000
1158772.000000
1159388.000000
1160003.000000
1160615.000000
1161231.000000
1161851.000000
1162467.000000
1163082.000000
1163693.000000
1164310.000000
1164928.000000
1165550.000000
1166173.000000
1166793.000000
1167411.000000
1168035.000000
1168660.000000
1169286.000000
1169912.000000
1170534.000000
1171159.000000
1171783.000000
1172404.000000
1173022.000000
1173642.000000
1174265.000000
1174892.000000
1175519.000000
1176145.000000
1176764.000000
1177385.000000
1178002.000000
1178620.000000
1179241.000000
1179855.000000
1180467.000000
1181081.000000
1181697.000000
1182315.000000
1182934.000000
1183553.000000
1184170.000000
1184791.000000
1185413.000000
1186039.000000
1186668.000000
1187293.000000
1187915.000000
1188539.000000
1189164.000000
1189790.000000
1190416.000000
1191039.000000
1191662.000000
1192284.000000
1192905.000000
1193536.000000
1194170.000000
1194805.000000
1195440.000000
1196068.000000
1196691.000000
1197308.000000
1197928.000000
1198549.000000
1199167.000000
1199782.000000
1200402.000000
1201025.000000
1201653.000000
1202285.000000
1202914.000000
1203541.000000
1204166.000000
1204791.000000
1205416.000000
1206045.000000
1206671.000000
1207293.000000
1207912.000000
1208535.000000
1209157.000000
1209784.000000
1210413.000000
1211043.000000
1211669.000000
1212287.000000
1212900.000000
1213514.000000
1214131.000000
1214750.000000
1215369.000000
1215983.000000
1216595.000000
1217218.000000
1217845.000000
1218475.000000
1219112.000000
1219747.000000
1220387.000000
1221031.000000
1221669.000000
1222313.000000
1222953.000000
1223592.000000
1224223.000000
1224847.000000
1225476.000000
1226110.000000
1226750.000000
1227379.000000
1227999.000000
1228609.000000
1229220.000000
1229842.000000
1230469.000000
1231103.000000
1231737.000000
1232379.000000
1233023.000000
1233668.000000
1234316.000000
1234963.000000
1235602.000000
1236236.000000
1236865.000000
1237490.000000
1238116.000000
1238739.000000
1239357.000000
1239972.000000
1240589.000000
1241210.000000
1241837.000000
1242468.000000
1243097.000000
1243728.000000
1244365.000000
