ECG (ms)
585.000000
1302.000000
2011.000000
2728.000000
3464.000000
4220.000000
4984.000000
5748.000000
6497.000000
7253.000000
8000.000000
8740.000000
9454.000000
10173.000000
10893.000000
11630.000000
12391.000000
13133.000000
13913.000000
14747.000000
15575.000000
16346.000000
17133.000000
17938.000000
18739.000000
19492.000000
20212.000000
20933.000000
21662.000000
22377.000000
23112.000000
23913.000000
24733.000000
25501.000000
26244.000000
26971.000000
27688.000000
28453.000000
29269.000000
30096.000000
30908.000000
31734.000000
32532.000000
33320.000000
34108.000000
34904.000000
35702.000000
36509.000000
37333.000000
38184.000000
39013.000000
39778.000000
40542.000000
41340.000000
42182.000000
42974.000000
43772.000000
44637.000000
45519.000000
46341.000000
47213.000000
48096.000000
48942.000000
49739.000000
50551.000000
51368.000000
52175.000000
52936.000000
53738.000000
54604.000000
55516.000000
56324.000000
57127.000000
57945.000000
58760.000000
59519.000000
60300.000000
61140.000000
62004.000000
62805.000000
63615.000000
64435.000000
65264.000000
66039.000000
66820.000000
67601.000000
68405.000000
69186.000000
69935.000000
70710.000000
71529.000000
72354.000000
73135.000000
73883.000000
74642.000000
75413.000000
76217.000000
76985.000000
77739.000000
78482.000000
79228.000000
79997.000000
80731.000000
81468.000000
82236.000000
83033.000000
83849.000000
84661.000000
85424.000000
86189.000000
86957.000000
87743.000000
88542.000000
89308.000000
90043.000000
90782.000000
91533.000000
92294.000000
93039.000000
93779.000000
94542.000000
95334.000000
96138.000000
96907.000000
97679.000000
98461.000000
99241.000000
100001.000000
100735.000000
101481.000000
102258.000000
103083.000000
103888.000000
104679.000000
105502.000000
106321.000000
107119.000000
107885.000000
108661.000000
109428.000000
110207.000000
110947.000000
111716.000000
112523.000000
113367.000000
114166.000000
114976.000000
115797.000000
116605.000000
117365.000000
118136.000000
118904.000000
119682.000000
120453.000000
121218.000000
122022.000000
122866.000000
123712.000000
124504.000000
125296.000000
126114.000000
126954.000000
127788.000000
128585.000000
129396.000000
130247.000000
131106.000000
131888.000000
132695.000000
133500.000000
134267.000000
135007.000000
135735.000000
136471.000000
137243.000000
138051.000000
138813.000000
139599.000000
140415.000000
141247.000000
142025.000000
142759.000000
143499.000000
144256.000000
145061.000000
145897.000000
146700.000000
147517.000000
148338.000000
149155.000000
149960.000000
150719.000000
151483.000000
152250.000000
153037.000000
153813.000000
154589.000000
155379.000000
156178.000000
156960.000000
157703.000000
158461.000000
159222.000000
159971.000000
160751.000000
161553.000000
162315.000000
163109.000000
163887.000000
164628.000000
165378.000000
166143.000000
166914.000000
167655.000000
168424.000000
169229.000000
170047.000000
170854.000000
171609.000000
172375.000000
173155.000000
173955.000000
174733.000000
175490.000000
176256.000000
177037.000000
177814.000000
178571.000000
179321.000000
180096.000000
180891.000000
181679.000000
182432.000000
183204.000000
183989.000000
184778.000000
185535.000000
186308.000000
187078.000000
187855.000000
188611.000000
189388.000000
190191.000000
191008.000000
191783.000000
192543.000000
193270.000000
193988.000000
194713.000000
195470.000000
196241.000000
196989.000000
197754.000000
198538.000000
199331.000000
200116.000000
200870.000000
201633.000000
202397.000000
203165.000000
203904.000000
204660.000000
205445.000000
206268.000000
207050.000000
207869.000000
208718.000000
209522.000000
210307.000000
211105.000000
211898.000000
212647.000000
213412.000000
214195.000000
214985.000000
215741.000000
216535.000000
217350.000000
218182.000000
218959.000000
219743.000000
220531.000000
221337.000000
222129.000000
222917.000000
223733.000000
224577.000000
225378.000000
226184.000000
227014.000000
227833.000000
228598.000000
229359.000000
230146.000000
230955.000000
231766.000000
232553.000000
233360.000000
234195.000000
235036.000000
235821.000000
236606.000000
237381.000000
238155.000000
238923.000000
239665.000000
240425.000000
241219.000000
242042.000000
242861.000000
243639.000000
244437.000000
245218.000000
245977.000000
246729.000000
247467.000000
248224.000000
248994.000000
249785.000000
250572.000000
251334.000000
252112.000000
252897.000000
253686.000000
254434.000000
255188.000000
255946.000000
256724.000000
257503.000000
258255.000000
259009.000000
259774.000000
260554.000000
261316.000000
262052.000000
262791.000000
263512.000000
264220.000000
264940.000000
265669.000000
266409.000000
267151.000000
267868.000000
268596.000000
269339.000000
270098.000000
270871.000000
271638.000000
272381.000000
273128.000000
273877.000000
274637.000000
275367.000000
276108.000000
276865.000000
277636.000000
278416.000000
279167.000000
279934.000000
280713.000000
281483.000000
282220.000000
282964.000000
283713.000000
284465.000000
285194.000000
285952.000000
286726.000000
287516.000000
288268.000000
289032.000000
289813.000000
290615.000000
291378.000000
292112.000000
292864.000000
293621.000000
294399.000000
295149.000000
295901.000000
296666.000000
297455.000000
298253.000000
299055.000000
299815.000000
300578.000000
301320.000000
302060.000000
302809.000000
303556.000000
304328.000000
305127.000000
305945.000000
306757.000000
307545.000000
308339.000000
309134.000000
309915.000000
310676.000000
311453.000000
312262.000000
313086.000000
313880.000000
314694.000000
315534.000000
316356.000000
317135.000000
317953.000000
318775.000000
319605.000000
320386.000000
321169.000000
321970.000000
322815.000000
323675.000000
324481.000000
325313.000000
326157.000000
326988.000000
327772.000000
328566.000000
329371.000000
330183.000000
330955.000000
331768.000000
332628.000000
333477.000000
334271.000000
335077.000000
335899.000000
336731.000000
337520.000000
338335.000000
339172.000000
340017.000000
340801.000000
341587.000000
342339.000000
343082.000000
343856.000000
344660.000000
345435.000000
346252.000000
347129.000000
348023.000000
348857.000000
349671.000000
350505.000000
351344.000000
352179.000000
352955.000000
353728.000000
354523.000000
355350.000000
356182.000000
356986.000000
357834.000000
358694.000000
359549.000000
360385.000000
361163.000000
361941.000000
362731.000000
363553.000000
364372.000000
365174.000000
366015.000000
366868.000000
367675.000000
368466.000000
369282.000000
370114.000000
370919.000000
371690.000000
372494.000000
373337.000000
374192.000000
374987.000000
375811.000000
376649.000000
377515.000000
378306.000000
379096.000000
379888.000000
380691.000000
381463.000000
382260.000000
383083.000000
383922.000000
384708.000000
385501.000000
386311.000000
387122.000000
387895.000000
388664.000000
389444.000000
390223.000000
391001.000000
391755.000000
392511.000000
393241.000000
393975.000000
394730.000000
395510.000000
396262.000000
397010.000000
397790.000000
398597.000000
399399.000000
400153.000000
400932.000000
401719.000000
402538.000000
403349.000000
404137.000000
404942.000000
405804.000000
406703.000000
407627.000000
408497.000000
409348.000000
410132.000000
410906.000000
411683.000000
412484.000000
413315.000000
414189.000000
415069.000000
415899.000000
416744.000000
417590.000000
418411.000000
419185.000000
419976.000000
420784.000000
421595.000000
422411.000000
423177.000000
423952.000000
424722.000000
425499.000000
426271.000000
427040.000000
427837.000000
428660.000000
429480.000000
430256.000000
431033.000000
431834.000000
432645.000000
433453.000000
434217.000000
434990.000000
435784.000000
436597.000000
437408.000000
438184.000000
438988.000000
439800.000000
440623.000000
441423.000000
442190.000000
442970.000000
443768.000000
444603.000000
445450.000000
446240.000000
447023.000000
447814.000000
448621.000000
449437.000000
450263.000000
451055.000000
451862.000000
452684.000000
453507.000000
454310.000000
455066.000000
455835.000000
456621.000000
457441.000000
458217.000000
459031.000000
459896.000000
460759.000000
461572.000000
462410.000000
463267.000000
464111.000000
464891.000000
465661.000000
466438.000000
467230.000000
468050.000000
468821.000000
469609.000000
470420.000000
471250.000000
472064.000000
472826.000000
473597.000000
474375.000000
475157.000000
475921.000000
476664.000000
477427.000000
478194.000000
478977.000000
479746.000000
480506.000000
481286.000000
482070.000000
482841.000000
483583.000000
484346.000000
485112.000000
485892.000000
486649.000000
487430.000000
488231.000000
489041.000000
489821.000000
490588.000000
491388.000000
492203.000000
493031.000000
493806.000000
494589.000000
495391.000000
496185.000000
496979.000000
497736.000000
498507.000000
499309.000000
500124.000000
500930.000000
501700.000000
502471.000000
503240.000000
504015.000000
504792.000000
505540.000000
506300.000000
507083.000000
507883.000000
508689.000000
509449.000000
510217.000000
510997.000000
511778.000000
512560.000000
513318.000000
514092.000000
514888.000000
515700.000000
516526.000000
517355.000000
518137.000000
518919.000000
519696.000000
520476.000000
521295.000000
522089.000000
522878.000000
523699.000000
524561.000000
525435.000000
526292.000000
527103.000000
527925.000000
528735.000000
529562.000000
530402.000000
531229.000000
532010.000000
532816.000000
533653.000000
534541.000000
535396.000000
536183.000000
536973.000000
537720.000000
538451.000000
539201.000000
540008.000000
540797.000000
541569.000000
542385.000000
543219.000000
544081.000000
544944.000000
545718.000000
546487.000000
547280.000000
548107.000000
548972.000000
549788.000000
550638.000000
551510.000000
552380.000000
553231.000000
554032.000000
554847.000000
555685.000000
556540.000000
557373.000000
558196.000000
558969.000000
559760.000000
560574.000000
561406.000000
562237.000000
563024.000000
563820.000000
564635.000000
565460.000000
566283.000000
567077.000000
567900.000000
568742.000000
569584.000000
570375.000000
571180.000000
571998.000000
572813.000000
573645.000000
574462.000000
575239.000000
576045.000000
576864.000000
577707.000000
578534.000000
579309.000000
580094.000000
580886.000000
581717.000000
582586.000000
583382.000000
584181.000000
585038.000000
585925.000000
586800.000000
587654.000000
588447.000000
589236.000000
590027.000000
590819.000000
591645.000000
592472.000000
593256.000000
594064.000000
594926.000000
595818.000000
596704.000000
597566.000000
598363.000000
599180.000000
600004.000000
600825.000000
601652.000000
602443.000000
603205.000000
603960.000000
604728.000000
605548.000000
606398.000000
607257.000000
608107.000000
608907.000000
609694.000000
610481.000000
611276.000000
612093.000000
612918.000000
613746.000000
614578.000000
615409.000000
616243.000000
617066.000000
617868.000000
618671.000000
619454.000000
620215.000000
621015.000000
621884.000000
622776.000000
623599.000000
624423.000000
625309.000000
626208.000000
627020.000000
627829.000000
628651.000000
629496.000000
630373.000000
631196.000000
632018.000000
632871.000000
633735.000000
634590.000000
635430.000000
636211.000000
637001.000000
637794.000000
638603.000000
639418.000000
640203.000000
640984.000000
641786.000000
642620.000000
643452.000000
644237.000000
645019.000000
645799.000000
646600.000000
647424.000000
648271.000000
649116.000000
649940.000000
650767.000000
651590.000000
652408.000000
653195.000000
654006.000000
654843.000000
655681.000000
656518.000000
657310.000000
658101.000000
658898.000000
659727.000000
660577.000000
661387.000000
662193.000000
663023.000000
663853.000000
664638.000000
665445.000000
666251.000000
667071.000000
667884.000000
668666.000000
669456.000000
670241.000000
671062.000000
671932.000000
672816.000000
673629.000000
674451.000000
675287.000000
676137.000000
676963.000000
677745.000000
678486.000000
679240.000000
680023.000000
680864.000000
681716.000000
682521.000000
683348.000000
684239.000000
685135.000000
686024.000000
686846.000000
687647.000000
688439.000000
689237.000000
690065.000000
690910.000000
691750.000000
692559.000000
693398.000000
694229.000000
695046.000000
695861.000000
696649.000000
697428.000000
698223.000000
699039.000000
699862.000000
700700.000000
701476.000000
702251.000000
703046.000000
703856.000000
704687.000000
705484.000000
706258.000000
707067.000000
707924.000000
708780.000000
709579.000000
710394.000000
711227.000000
712059.000000
712869.000000
713635.000000
714408.000000
715200.000000
715995.000000
716764.000000
717501.000000
718228.000000
718966.000000
719738.000000
720549.000000
721329.000000
722109.000000
722921.000000
723744.000000
724508.000000
725270.000000
726036.000000
726829.000000
727638.000000
728455.000000
729248.000000
730046.000000
730882.000000
731753.000000
732642.000000
733519.000000
734358.000000
735176.000000
735981.000000
736787.000000
737559.000000
738337.000000
739146.000000
740010.000000
740923.000000
741761.000000
742548.000000
743347.000000
744177.000000
745036.000000
745839.000000
746654.000000
747500.000000
748376.000000
749259.000000
750047.000000
750848.000000
751655.000000
752471.000000
753297.000000
754084.000000
754897.000000
755758.000000
756654.000000
757537.000000
758340.000000
759145.000000
759966.000000
760782.000000
761586.000000
762339.000000
763108.000000
763900.000000
764724.000000
765550.000000
766344.000000
767195.000000
768076.000000
768943.000000
769726.000000
770490.000000
771240.000000
771994.000000
772732.000000
773487.000000
774286.000000
775168.000000
776028.000000
776833.000000
777672.000000
778517.000000
779349.000000
780128.000000
780911.000000
781687.000000
782485.000000
783249.000000
784007.000000
784786.000000
785588.000000
786380.000000
787144.000000
787939.000000
788759.000000
789580.000000
790343.000000
791095.000000
791835.000000
792583.000000
793352.000000
794112.000000
794845.000000
795586.000000
796349.000000
797124.000000
797901.000000
798695.000000
799479.000000
800241.000000
800993.000000
801743.000000
802510.000000
803319.000000
804165.000000
805036.000000
805873.000000
806700.000000
807523.000000
808330.000000
809107.000000
809880.000000
810679.000000
811507.000000
812363.000000
813171.000000
813957.000000
814751.000000
815562.000000
816386.000000
817238.000000
818103.000000
818897.000000
819704.000000
820530.000000
821352.000000
822188.000000
823022.000000
823845.000000
824621.000000
825419.000000
826220.000000
827041.000000
827875.000000
828674.000000
829455.000000
830259.000000
831086.000000
831978.000000
832850.000000
833663.000000
834535.000000
835417.000000
836288.000000
837100.000000
837911.000000
838739.000000
839592.000000
840458.000000
841330.000000
842161.000000
843054.000000
843970.000000
844887.000000
845720.000000
846521.000000
847341.000000
848195.000000
849069.000000
849860.000000
850663.000000
851522.000000
852413.000000
853281.000000
854083.000000
854907.000000
855750.000000
856594.000000
857433.000000
858220.000000
859034.000000
859848.000000
860665.000000
861475.000000
862249.000000
863047.000000
863841.000000
864663.000000
865489.000000
866276.000000
867084.000000
867902.000000
868732.000000
869559.000000
870340.000000
871138.000000
871956.000000
872796.000000
873624.000000
874395.000000
875152.000000
875924.000000
876729.000000
877581.000000
878398.000000
879186.000000
880013.000000
880865.000000
881712.000000
882550.000000
883337.000000
884131.000000
884922.000000
885714.000000
886537.000000
887334.000000
888133.000000
888973.000000
889836.000000
890736.000000
891544.000000
892337.000000
893147.000000
893943.000000
894731.000000
895477.000000
896247.000000
897047.000000
897875.000000
898687.000000
899475.000000
900305.000000
901135.000000
901961.000000
902767.000000
903540.000000
904314.000000
905085.000000
905858.000000
906648.000000
907423.000000
908192.000000
908998.000000
909842.000000
910765.000000
911577.000000
912351.000000
