ECG (ms)
831.000000
1806.000000
2754.000000
3712.000000
4593.000000
5796.000000
6790.000000
7848.000000
8768.000000
10199.000000
11194.000000
12563.000000
13609.000000
14728.000000
15752.000000
16826.000000
17953.000000
19018.000000
20194.000000
21369.000000
22421.000000
23554.000000
24704.000000
25863.000000
26891.000000
27934.000000
28949.000000
29907.000000
30840.000000
31746.000000
32767.000000
33868.000000
34967.000000
36053.000000
37165.000000
38203.000000
39261.000000
40335.000000
41354.000000
42328.000000
43353.000000
44420.000000
45459.000000
46734.000000
47910.000000
48995.000000
50161.000000
51286.000000
52322.000000
53411.000000
54392.000000
55177.000000
56609.000000
57648.000000
58693.000000
59758.000000
60773.000000
61834.000000
62905.000000
64056.000000
65114.000000
66114.000000
67104.000000
68168.000000
69297.000000
70346.000000
71549.000000
72674.000000
73713.000000
74741.000000
75810.000000
76944.000000
77839.000000
79248.000000
80444.000000
81286.000000
82562.000000
83533.000000
84507.000000
85590.000000
86958.000000
88114.000000
88898.000000
90396.000000
91610.000000
92478.000000
93937.000000
95015.000000
96027.000000
97056.000000
98049.000000
99028.000000
100110.000000
101168.000000
102186.000000
103282.000000
104392.000000
105405.000000
106468.000000
107520.000000
108527.000000
109537.000000
110510.000000
111443.000000
112392.000000
113444.000000
115029.000000
116362.000000
117551.000000
118661.000000
119733.000000
120732.000000
121683.000000
122642.000000
123790.000000
124616.000000
126149.000000
127453.000000
128672.000000
129797.000000
130883.000000
131892.000000
132847.000000
133786.000000
134732.000000
135761.000000
136935.000000
138100.000000
139188.000000
140207.000000
141206.000000
142188.000000
143136.000000
144061.000000
144987.000000
145961.000000
147061.000000
148192.000000
149272.000000
150301.000000
151304.000000
152267.000000
153207.000000
154132.000000
155070.000000
156052.000000
157235.000000
158473.000000
159603.000000
160534.000000
161477.000000
162450.000000
163476.000000
164536.000000
165628.000000
166667.000000
167653.000000
168609.000000
169554.000000
170514.000000
171584.000000
172682.000000
173746.000000
174769.000000
175770.000000
176759.000000
177657.000000
178531.000000
179392.000000
180271.000000
181205.000000
182182.000000
183166.000000
184156.000000
185103.000000
186014.000000
186903.000000
187795.000000
188705.000000
189672.000000
190704.000000
191729.000000
192751.000000
193787.000000
194748.000000
195676.000000
196562.000000
197427.000000
198324.000000
199265.000000
200285.000000
201283.000000
202315.000000
203306.000000
204253.000000
205188.000000
206188.000000
207130.000000
208029.000000
208935.000000
209878.000000
210821.000000
211841.000000
212629.000000
213952.000000
215091.000000
216160.000000
216936.000000
218193.000000
219180.000000
220117.000000
221066.000000
222077.000000
222948.000000
224433.000000
225685.000000
226740.000000
227720.000000
228667.000000
229630.000000
230672.000000
231765.000000
232891.000000
233815.000000
235057.000000
236041.000000
237028.000000
238069.000000
239143.000000
240241.000000
241298.000000
242303.000000
243276.000000
244267.000000
245346.000000
246511.000000
247621.000000
248648.000000
249620.000000
250563.000000
251380.000000
252597.000000
253655.000000
254721.000000
255789.000000
256817.000000
257775.000000
258707.000000
259608.000000
260721.000000
261796.000000
262916.000000
263982.000000
265017.000000
265988.000000
266922.000000
267827.000000
268774.000000
269789.000000
270901.000000
271987.000000
273047.000000
274023.000000
274949.000000
275796.000000
276923.000000
277936.000000
279183.000000
280344.000000
281423.000000
282495.000000
283529.000000
284543.000000
285556.000000
286544.000000
287588.000000
288613.000000
289574.000000
290487.000000
291393.000000
292340.000000
293394.000000
294785.000000
296040.000000
297210.000000
298349.000000
299407.000000
300394.000000
301324.000000
302311.000000
303321.000000
304334.000000
305353.000000
306325.000000
307114.000000
308406.000000
309160.000000
310446.000000
311332.000000
312505.000000
313478.000000
314434.000000
315425.000000
316396.000000
317405.000000
318469.000000
319574.000000
320672.000000
321704.000000
322763.000000
323817.000000
324894.000000
326052.000000
327247.000000
328359.000000
329351.000000
330359.000000
331392.000000
332493.000000
333635.000000
334673.000000
335788.000000
336911.000000
338051.000000
339203.000000
340365.000000
341481.000000
342589.000000
343735.000000
344826.000000
345828.000000
346769.000000
347982.000000
349025.000000
350067.000000
351244.000000
352411.000000
353467.000000
354520.000000
355644.000000
356766.000000
357802.000000
358879.000000
360001.000000
361097.000000
362145.000000
363258.000000
364403.000000
365567.000000
366619.000000
367601.000000
368620.000000
369695.000000
370733.000000
371772.000000
372969.000000
374124.000000
375193.000000
376311.000000
377388.000000
378391.000000
379412.000000
380461.000000
381511.000000
382507.000000
383518.000000
384554.000000
385600.000000
386587.000000
387588.000000
388627.000000
389657.000000
390652.000000
391637.000000
392650.000000
393690.000000
394744.000000
395758.000000
396759.000000
397795.000000
398852.000000
399870.000000
400858.000000
401789.000000
402697.000000
403634.000000
404613.000000
405634.000000
406651.000000
407710.000000
408846.000000
410042.000000
411105.000000
412091.000000
413065.000000
414096.000000
415153.000000
416211.000000
417256.000000
418228.000000
419224.000000
420299.000000
421395.000000
422464.000000
423499.000000
424462.000000
425393.000000
426385.000000
427473.000000
428566.000000
429620.000000
430606.000000
431594.000000
432628.000000
433702.000000
434758.000000
435769.000000
436746.000000
437779.000000
438853.000000
439955.000000
441022.000000
442010.000000
442988.000000
444005.000000
445072.000000
446126.000000
447182.000000
448175.000000
449141.000000
450140.000000
451176.000000
452173.000000
453190.000000
454284.000000
455384.000000
456379.000000
457306.000000
458252.000000
459241.000000
460277.000000
461281.000000
462285.000000
463313.000000
464377.000000
465390.000000
466443.000000
467492.000000
468465.000000
469428.000000
470416.000000
471447.000000
472486.000000
473459.000000
474444.000000
475461.000000
476585.000000
477399.000000
478829.000000
480177.000000
481215.000000
482464.000000
483584.000000
484798.000000
485873.000000
486965.000000
488140.000000
489224.000000
490275.000000
491372.000000
492475.000000
493521.000000
494656.000000
495816.000000
496935.000000
497994.000000
499110.000000
500255.000000
501306.000000
502319.000000
503357.000000
504450.000000
505628.000000
506741.000000
507811.000000
508951.000000
510092.000000
511146.000000
512230.000000
513330.000000
514440.000000
515530.000000
516725.000000
517922.000000
519003.000000
520078.000000
521210.000000
522338.000000
523430.000000
524613.000000
525792.000000
526849.000000
527968.000000
529172.000000
530314.000000
531365.000000
532506.000000
533603.000000
534652.000000
535697.000000
536785.000000
537925.000000
538979.000000
540101.000000
541380.000000
542564.000000
543709.000000
544897.000000
546040.000000
547037.000000
548102.000000
549237.000000
550352.000000
551361.000000
552413.000000
553472.000000
554475.000000
555532.000000
556620.000000
557446.000000
558767.000000
559896.000000
561025.000000
562151.000000
563169.000000
564144.000000
565125.000000
566138.000000
567147.000000
568290.000000
569506.000000
570659.000000
571731.000000
572886.000000
574016.000000
575031.000000
576092.000000
577212.000000
578248.000000
579365.000000
580532.000000
581615.000000
582678.000000
583771.000000
584874.000000
585921.000000
587019.000000
588190.000000
589275.000000
590405.000000
591504.000000
592557.000000
593651.000000
594756.000000
595816.000000
596881.000000
597992.000000
599044.000000
600121.000000
601276.000000
602406.000000
603442.000000
604470.000000
605524.000000
606537.000000
607533.000000
608651.000000
609878.000000
611049.000000
612223.000000
613275.000000
614292.000000
615303.000000
616242.000000
617223.000000
618193.000000
619333.000000
620483.000000
621666.000000
622747.000000
623847.000000
624946.000000
625956.000000
626986.000000
628063.000000
629213.000000
630256.000000
631231.000000
632260.000000
633318.000000
634333.000000
635392.000000
636500.000000
637518.000000
638500.000000
639548.000000
640636.000000
641650.000000
642702.000000
643839.000000
645014.000000
646093.000000
647253.000000
648425.000000
649516.000000
650618.000000
651727.000000
652771.000000
653834.000000
654918.000000
655977.000000
657008.000000
658071.000000
659110.000000
660094.000000
661113.000000
662147.000000
663137.000000
664151.000000
665195.000000
666169.000000
667075.000000
668087.000000
669131.000000
670231.000000
671307.000000
672382.000000
673463.000000
674517.000000
675535.000000
676584.000000
677686.000000
678759.000000
679794.000000
680838.000000
681858.000000
682868.000000
683829.000000
684828.000000
685833.000000
686843.000000
687817.000000
688788.000000
689792.000000
690823.000000
691824.000000
692863.000000
693945.000000
695004.000000
696037.000000
697072.000000
698121.000000
699166.000000
700215.000000
701285.000000
702403.000000
703490.000000
704501.000000
705549.000000
706619.000000
707650.000000
708693.000000
709830.000000
710935.000000
712018.000000
713153.000000
714216.000000
715331.000000
716509.000000
717616.000000
718695.000000
719771.000000
720823.000000
721848.000000
722943.000000
724078.000000
725072.000000
726118.000000
727247.000000
728317.000000
729478.000000
730627.000000
731751.000000
732772.000000
733785.000000
734835.000000
736015.000000
737101.000000
738212.000000
739380.000000
740463.000000
741560.000000
742691.000000
743819.000000
744873.000000
745977.000000
746999.000000
747927.000000
748876.000000
749905.000000
751051.000000
752155.000000
753194.000000
754361.000000
755613.000000
756417.000000
757814.000000
759050.000000
760113.000000
761160.000000
762343.000000
763579.000000
764784.000000
765919.000000
766952.000000
768002.000000
769153.000000
770389.000000
771548.000000
772629.000000
773652.000000
774671.000000
775812.000000
777066.000000
778264.000000
779390.000000
780456.000000
781448.000000
782513.000000
783643.000000
784743.000000
785825.000000
786826.000000
787839.000000
788912.000000
790077.000000
791186.000000
792248.000000
793241.000000
794301.000000
795384.000000
796474.000000
797518.000000
798670.000000
799874.000000
801077.000000
802171.000000
803200.000000
804283.000000
805448.000000
806580.000000
807740.000000
808793.000000
809908.000000
811150.000000
812321.000000
813446.000000
814523.000000
815521.000000
816517.000000
817633.000000
818866.000000
819663.000000
821078.000000
822280.000000
823341.000000
824606.000000
825799.000000
826575.000000
827917.000000
829070.000000
830274.000000
831481.000000
832561.000000
833678.000000
835196.000000
836582.000000
837420.000000
838815.000000
840100.000000
841038.000000
842478.000000
843740.000000
844880.000000
845896.000000
846952.000000
848090.000000
849255.000000
850300.000000
851438.000000
852849.000000
853692.000000
855090.000000
856343.000000
857584.000000
858771.000000
859844.000000
861028.000000
862259.000000
863440.000000
864517.000000
865766.000000
867001.000000
868101.000000
869191.000000
870358.000000
871487.000000
872571.000000
873891.000000
875170.000000
876431.000000
877547.000000
878581.000000
879659.000000
881335.000000
882739.000000
883682.000000
885326.000000
886738.000000
887972.000000
889270.000000
890105.000000
891656.000000
893072.000000
893998.000000
895485.000000
896740.000000
897966.000000
899097.000000
900130.000000
901247.000000
902622.000000
903873.000000
904996.000000
906227.000000
907432.000000
908506.000000
909612.000000
910874.000000
912086.000000
913207.000000
914313.000000
915564.000000
916361.000000
917783.000000
918921.000000
920039.000000
921178.000000
922372.000000
923450.000000
924482.000000
925567.000000
927007.000000
928337.000000
929425.000000
930601.000000
931817.000000
933081.000000
934199.000000
935371.000000
936115.000000
937551.000000
938802.000000
940069.000000
941278.000000
942470.000000
943308.000000
944775.000000
946123.000000
947247.000000
948454.000000
949695.000000
950588.000000
952026.000000
953304.000000
954095.000000
955495.000000
956677.000000
957598.000000
959005.000000
960146.000000
961406.000000
962739.000000
963887.000000
965301.000000
966619.000000
967392.000000
968940.000000
970364.000000
971517.000000
972722.000000
974026.000000
974810.000000
976311.000000
977761.000000
979009.000000
980313.000000
981587.000000
982631.000000
983766.000000
984977.000000
986099.000000
987295.000000
988606.000000
989747.000000
990908.000000
992186.000000
993434.000000
994514.000000
