ECG (ms)
59.000000
791.000000
1490.000000
2199.000000
2919.000000
3650.000000
4382.000000
5107.000000
5830.000000
6566.000000
7318.000000
8088.000000
8858.000000
9607.000000
10321.000000
11027.000000
11741.000000
12486.000000
13260.000000
14064.000000
14859.000000
15656.000000
16402.000000
17134.000000
17853.000000
18566.000000
19276.000000
19991.000000
20706.000000
21429.000000
22153.000000
22863.000000
23593.000000
24317.000000
25040.000000
25769.000000
26508.000000
27267.000000
28027.000000
28805.000000
29585.000000
30356.000000
31132.000000
31913.000000
32691.000000
33498.000000
34318.000000
35144.000000
35958.000000
36737.000000
37520.000000
38295.000000
39085.000000
39887.000000
40693.000000
41542.000000
42399.000000
43291.000000
44188.000000
45063.000000
45909.000000
46697.000000
47456.000000
48206.000000
48963.000000
49735.000000
50532.000000
51332.000000
52139.000000
52953.000000
53730.000000
54506.000000
55274.000000
56038.000000
56812.000000
57587.000000
58380.000000
59192.000000
60019.000000
60855.000000
61684.000000
62514.000000
63323.000000
64133.000000
64941.000000
65781.000000
66602.000000
67455.000000
68330.000000
69186.000000
69982.000000
70789.000000
71564.000000
72331.000000
73060.000000
73847.000000
74630.000000
75448.000000
76288.000000
77106.000000
77925.000000
78697.000000
79443.000000
80170.000000
80938.000000
81724.000000
82519.000000
83334.000000
84168.000000
84982.000000
85792.000000
86611.000000
87420.000000
88212.000000
89013.000000
89828.000000
90656.000000
91464.000000
92289.000000
93129.000000
93970.000000
94790.000000
95605.000000
96417.000000
97236.000000
98037.000000
98835.000000
99622.000000
100398.000000
101174.000000
101980.000000
102777.000000
103542.000000
104356.000000
105148.000000
105970.000000
106788.000000
107591.000000
108401.000000
109215.000000
110013.000000
110798.000000
111610.000000
112442.000000
113275.000000
114110.000000
114968.000000
115816.000000
116638.000000
117454.000000
118272.000000
119095.000000
119910.000000
120738.000000
121553.000000
122327.000000
123066.000000
123848.000000
124602.000000
125350.000000
126086.000000
126804.000000
127508.000000
128250.000000
128998.000000
129766.000000
130557.000000
131369.000000
132165.000000
132984.000000
133806.000000
134609.000000
135388.000000
136142.000000
136906.000000
137786.000000
138662.000000
139530.000000
140377.000000
141174.000000
141931.000000
142672.000000
143413.000000
144169.000000
144952.000000
145752.000000
146530.000000
147300.000000
148083.000000
148872.000000
149663.000000
150432.000000
151181.000000
151922.000000
152674.000000
153434.000000
154211.000000
154980.000000
155751.000000
156523.000000
157302.000000
158080.000000
158856.000000
159627.000000
160384.000000
161097.000000
161849.000000
162612.000000
163408.000000
164215.000000
165020.000000
165806.000000
166580.000000
167350.000000
168122.000000
168885.000000
169645.000000
170410.000000
171172.000000
171930.000000
172694.000000
173476.000000
174274.000000
175065.000000
175853.000000
176646.000000
177443.000000
178228.000000
179023.000000
179835.000000
180653.000000
181458.000000
182243.000000
183011.000000
183758.000000
184502.000000
185280.000000
186056.000000
186861.000000
187669.000000
188498.000000
189314.000000
190107.000000
190914.000000
191737.000000
192555.000000
193336.000000
194098.000000
194874.000000
195752.000000
196635.000000
197506.000000
198373.000000
199210.000000
200011.000000
200776.000000
201541.000000
202317.000000
203101.000000
203909.000000
204707.000000
205512.000000
206313.000000
207112.000000
207910.000000
208705.000000
209500.000000
210279.000000
211092.000000
211916.000000
212742.000000
213565.000000
214387.000000
215191.000000
215976.000000
216707.000000
217441.000000
218197.000000
218960.000000
219764.000000
220570.000000
221367.000000
222172.000000
222984.000000
223787.000000
224572.000000
225363.000000
226146.000000
226939.000000
227724.000000
228512.000000
229313.000000
230109.000000
230893.000000
231675.000000
232456.000000
233249.000000
234039.000000
234841.000000
235655.000000
236473.000000
237276.000000
238079.000000
238885.000000
239686.000000
240475.000000
241245.000000
242027.000000
242852.000000
243682.000000
244514.000000
245338.000000
246166.000000
246979.000000
247775.000000
248581.000000
249399.000000
250234.000000
251067.000000
251920.000000
252775.000000
253639.000000
254477.000000
255296.000000
256111.000000
256927.000000
257733.000000
258556.000000
259399.000000
260266.000000
261120.000000
261960.000000
262824.000000
263672.000000
264498.000000
265320.000000
266157.000000
267023.000000
267863.000000
268708.000000
269555.000000
270377.000000
271176.000000
271988.000000
272809.000000
273644.000000
274484.000000
275295.000000
276139.000000
276998.000000
277853.000000
278680.000000
279524.000000
280371.000000
281215.000000
282028.000000
282830.000000
283638.000000
284447.000000
285236.000000
286049.000000
286837.000000
287611.000000
288354.000000
289133.000000
289908.000000
290705.000000
291530.000000
292365.000000
293200.000000
294007.000000
294829.000000
295651.000000
296464.000000
297264.000000
298080.000000
298902.000000
299714.000000
300523.000000
301367.000000
302214.000000
303040.000000
303842.000000
304651.000000
305457.000000
306251.000000
307042.000000
307852.000000
308673.000000
309470.000000
310258.000000
311061.000000
311860.000000
312645.000000
313424.000000
314222.000000
315028.000000
315830.000000
316625.000000
317448.000000
318293.000000
319115.000000
319907.000000
320703.000000
321493.000000
322271.000000
323059.000000
323863.000000
324680.000000
325487.000000
326290.000000
327098.000000
327904.000000
328701.000000
329508.000000
330340.000000
331164.000000
331970.000000
332786.000000
333612.000000
334441.000000
335261.000000
336076.000000
336887.000000
337691.000000
338482.000000
339299.000000
340138.000000
340975.000000
341798.000000
342618.000000
343429.000000
344227.000000
345018.000000
345796.000000
346607.000000
347434.000000
348286.000000
349135.000000
349934.000000
350717.000000
351499.000000
352320.000000
353154.000000
353990.000000
354807.000000
355627.000000
356446.000000
357271.000000
358072.000000
358865.000000
359622.000000
360368.000000
361156.000000
361945.000000
362725.000000
363543.000000
364372.000000
365203.000000
366023.000000
366846.000000
367681.000000
368520.000000
369348.000000
370182.000000
371009.000000
371827.000000
372630.000000
373458.000000
374307.000000
375174.000000
376019.000000
376865.000000
377723.000000
378593.000000
379433.000000
380266.000000
381094.000000
381904.000000
382684.000000
383441.000000
384195.000000
385028.000000
385977.000000
386878.000000
387768.000000
388618.000000
389433.000000
390230.000000
391025.000000
391808.000000
392607.000000
393400.000000
394203.000000
395016.000000
395844.000000
396688.000000
397527.000000
398351.000000
399171.000000
400000.000000
400822.000000
401638.000000
402459.000000
403262.000000
404068.000000
404853.000000
405651.000000
406459.000000
407269.000000
408078.000000
408908.000000
409706.000000
410477.000000
411243.000000
411990.000000
412726.000000
413519.000000
414299.000000
415104.000000
415918.000000
416734.000000
417533.000000
418341.000000
419161.000000
419980.000000
420786.000000
421610.000000
422435.000000
423254.000000
424053.000000
424868.000000
425676.000000
426470.000000
427276.000000
428095.000000
428924.000000
429737.000000
430545.000000
431363.000000
432213.000000
433047.000000
433874.000000
434718.000000
435560.000000
436381.000000
437177.000000
437984.000000
438826.000000
439670.000000
440516.000000
441347.000000
442208.000000
443041.000000
443850.000000
444648.000000
445449.000000
446259.000000
447065.000000
447878.000000
448711.000000
449566.000000
450401.000000
451224.000000
452049.000000
452859.000000
453669.000000
454486.000000
455338.000000
456201.000000
457061.000000
457922.000000
458780.000000
459613.000000
460406.000000
461172.000000
461946.000000
462830.000000
463825.000000
464772.000000
465699.000000
466591.000000
467436.000000
468235.000000
469030.000000
469836.000000
470667.000000
471494.000000
472316.000000
473110.000000
473893.000000
474689.000000
475489.000000
476297.000000
477114.000000
477903.000000
478670.000000
479433.000000
480220.000000
481025.000000
481846.000000
482660.000000
483443.000000
484223.000000
484998.000000
485738.000000
486476.000000
487236.000000
487992.000000
488745.000000
489512.000000
490296.000000
491090.000000
491892.000000
492680.000000
493452.000000
494215.000000
494990.000000
495776.000000
496562.000000
497355.000000
498137.000000
498914.000000
499674.000000
500425.000000
501188.000000
501971.000000
502763.000000
503563.000000
504357.000000
505160.000000
505959.000000
506755.000000
507545.000000
508338.000000
509131.000000
509904.000000
510683.000000
511485.000000
512299.000000
513132.000000
513954.000000
514771.000000
515579.000000
516370.000000
517157.000000
517944.000000
518737.000000
519517.000000
520294.000000
521102.000000
521948.000000
522803.000000
523659.000000
524488.000000
525323.000000
526141.000000
526950.000000
527724.000000
528489.000000
529277.000000
530072.000000
530898.000000
531727.000000
532542.000000
533371.000000
534211.000000
535058.000000
535895.000000
536706.000000
537499.000000
538311.000000
539130.000000
539966.000000
540797.000000
541616.000000
542450.000000
543287.000000
544143.000000
544996.000000
545854.000000
546732.000000
547597.000000
548444.000000
549290.000000
550131.000000
550946.000000
551738.000000
552537.000000
553339.000000
554172.000000
554987.000000
555788.000000
556610.000000
557437.000000
558262.000000
559051.000000
559827.000000
560564.000000
561326.000000
562072.000000
562811.000000
563557.000000
564314.000000
565086.000000
565875.000000
566681.000000
567500.000000
568300.000000
569126.000000
569960.000000
570797.000000
571618.000000
572439.000000
573278.000000
574119.000000
574937.000000
575756.000000
576585.000000
577411.000000
578226.000000
579058.000000
579893.000000
580733.000000
581563.000000
582370.000000
583197.000000
584048.000000
584887.000000
585723.000000
586538.000000
587364.000000
588186.000000
588983.000000
589786.000000
590598.000000
591416.000000
592215.000000
593045.000000
593883.000000
594730.000000
595553.000000
596389.000000
597240.000000
598075.000000
598899.000000
599739.000000
600585.000000
601427.000000
602258.000000
603123.000000
603985.000000
604847.000000
605685.000000
606521.000000
607375.000000
608214.000000
609025.000000
609819.000000
610637.000000
611469.000000
612298.000000
613127.000000
613968.000000
614797.000000
615588.000000
616380.000000
617182.000000
617989.000000
618793.000000
619589.000000
620382.000000
621179.000000
621959.000000
622754.000000
623553.000000
624365.000000
625173.000000
625984.000000
626812.000000
627653.000000
628480.000000
629305.000000
630138.000000
630958.000000
631758.000000
632571.000000
633392.000000
634222.000000
635050.000000
635884.000000
636742.000000
637595.000000
638429.000000
639262.000000
640101.000000
640927.000000
641743.000000
642566.000000
643419.000000
644263.000000
645084.000000
645909.000000
646750.000000
647591.000000
648410.000000
649237.000000
650073.000000
650913.000000
651730.000000
652530.000000
653339.000000
654148.000000
654941.000000
655721.000000
656509.000000
657287.000000
658072.000000
658876.000000
659705.000000
660542.000000
661362.000000
662172.000000
662980.000000
663789.000000
664591.000000
665405.000000
666238.000000
667075.000000
667889.000000
668707.000000
669527.000000
670350.000000
671154.000000
671975.000000
672805.000000
673629.000000
674441.000000
675256.000000
676087.000000
676922.000000
677738.000000
678559.000000
679379.000000
680154.000000
680923.000000
681701.000000
682486.000000
683298.000000
684118.000000
684923.000000
685736.000000
686553.000000
687360.000000
688145.000000
688951.000000
689747.000000
690541.000000
691333.000000
692140.000000
692954.000000
693759.000000
694541.000000
695325.000000
696108.000000
696887.000000
697672.000000
698487.000000
699289.000000
700095.000000
700903.000000
701711.000000
702477.000000
703224.000000
703970.000000
704689.000000
705437.000000
706209.000000
706989.000000
707794.000000
708619.000000
709431.000000
710245.000000
711086.000000
711940.000000
712782.000000
713630.000000
714491.000000
715335.000000
716155.000000
716980.000000
717808.000000
718651.000000
719522.000000
720394.000000
721234.000000
722075.000000
722910.000000
723737.000000
724557.000000
725357.000000
726163.000000
726992.000000
727836.000000
728666.000000
729482.000000
730317.000000
731144.000000
731940.000000
732730.000000
733519.000000
734324.000000
735117.000000
735914.000000
736734.000000
737577.000000
738418.000000
739258.000000
740078.000000
740879.000000
741701.000000
742537.000000
743402.000000
744230.000000
745068.000000
745908.000000
746745.000000
747558.000000
748376.000000
749203.000000
750047.000000
750876.000000
751724.000000
752578.000000
753408.000000
754212.000000
755026.000000
755848.000000
756672.000000
757483.000000
758298.000000
759122.000000
759963.000000
760786.000000
761628.000000
762475.000000
763344.000000
764198.000000
765034.000000
765877.000000
766713.000000
767520.000000
768321.000000
769148.000000
769965.000000
770767.000000
771563.000000
772366.000000
773167.000000
773954.000000
774752.000000
775552.000000
776342.000000
777117.000000
777889.000000
778685.000000
779496.000000
780309.000000
781105.000000
781876.000000
782653.000000
783514.000000
784364.000000
785217.000000
786065.000000
786896.000000
787697.000000
788484.000000
789294.000000
790114.000000
790935.000000
791743.000000
792521.000000
793290.000000
794079.000000
794890.000000
795730.000000
796574.000000
797402.000000
798196.000000
798989.000000
799792.000000
800592.000000
801411.000000
802231.000000
803053.000000
803895.000000
804716.000000
805508.000000
806285.000000
807046.000000
807813.000000
808593.000000
809392.000000
810193.000000
810994.000000
811770.000000
812539.000000
813294.000000
814043.000000
814842.000000
815638.000000
816464.000000
817294.000000
818130.000000
818945.000000
819758.000000
820597.000000
821451.000000
822278.000000
823104.000000
823924.000000
824737.000000
825531.000000
826329.000000
827145.000000
827986.000000
828830.000000
829663.000000
830507.000000
831347.000000
832185.000000
833015.000000
833838.000000
834651.000000
835448.000000
836241.000000
837055.000000
837883.000000
838706.000000
839513.000000
840330.000000
841147.000000
841939.000000
842734.000000
843525.000000
844329.000000
845131.000000
845957.000000
846790.000000
847630.000000
848440.000000
849250.000000
850066.000000
850869.000000
851660.000000
852477.000000
853289.000000
854118.000000
854959.000000
855769.000000
856589.000000
857420.000000
858244.000000
859051.000000
859853.000000
860656.000000
861457.000000
862234.000000
863010.000000
863787.000000
864577.000000
865359.000000
866159.000000
866972.000000
867787.000000
868607.000000
869404.000000
870198.000000
870987.000000
871778.000000
872559.000000
873359.000000
874148.000000
874965.000000
875755.000000
876558.000000
877363.000000
878163.000000
878957.000000
879755.000000
880571.000000
881390.000000
882202.000000
883039.000000
883868.000000
884676.000000
885452.000000
886215.000000
886982.000000
887726.000000
888460.000000
889228.000000
890106.000000
890966.000000
891823.000000
892661.000000
893482.000000
894299.000000
895102.000000
895888.000000
896671.000000
897458.000000
898245.000000
899030.000000
899812.000000
900615.000000
901412.000000
902208.000000
902984.000000
903769.000000
904543.000000
905318.000000
906087.000000
906869.000000
907652.000000
908433.000000
909216.000000
909976.000000
910754.000000
911523.000000
912300.000000
913065.000000
913832.000000
914591.000000
915350.000000
916092.000000
916826.000000
917585.000000
918467.000000
919322.000000
920168.000000
921004.000000
921803.000000
922597.000000
923383.000000
924149.000000
924904.000000
925673.000000
926436.000000
927212.000000
927999.000000
928785.000000
929583.000000
930388.000000
931190.000000
931994.000000
932808.000000
933613.000000
934406.000000
935204.000000
936005.000000
936809.000000
937638.000000
938481.000000
939306.000000
940113.000000
940927.000000
941742.000000
942559.000000
943384.000000
944186.000000
944987.000000
945778.000000
946576.000000
947359.000000
948162.000000
