ECG (ms)
607.000000
1277.000000
1975.000000
2661.000000
3324.000000
4000.000000
4701.000000
5372.000000
6046.000000
6707.000000
7327.000000
7955.000000
8519.000000
9291.000000
9929.000000
10535.000000
11128.000000
11747.000000
12394.000000
13025.000000
13645.000000
14259.000000
14889.000000
15559.000000
16216.000000
16844.000000
17465.000000
18099.000000
18734.000000
19354.000000
19949.000000
20540.000000
21160.000000
21803.000000
22458.000000
23097.000000
23707.000000
24321.000000
24942.000000
25572.000000
26203.000000
26813.000000
27420.000000
28026.000000
28641.000000
29252.000000
29872.000000
30494.000000
31150.000000
31783.000000
32410.000000
33025.000000
33643.000000
34263.000000
34892.000000
35520.000000
36165.000000
36817.000000
37465.000000
38122.000000
38759.000000
39392.000000
40028.000000
40663.000000
41305.000000
41955.000000
42619.000000
43281.000000
43928.000000
44567.000000
45205.000000
45855.000000
46529.000000
47205.000000
47887.000000
48735.000000
49471.000000
50152.000000
50785.000000
51399.000000
52015.000000
52615.000000
53332.000000
54011.000000
54687.000000
55360.000000
56032.000000
56696.000000
57362.000000
57966.000000
58613.000000
59312.000000
60243.000000
61066.000000
61775.000000
62418.000000
63057.000000
63747.000000
64516.000000
65321.000000
66025.000000
66738.000000
67434.000000
68104.000000
68770.000000
69463.000000
70167.000000
70880.000000
71574.000000
72244.000000
72906.000000
73473.000000
74123.000000
74831.000000
75535.000000
76208.000000
76892.000000
77582.000000
78290.000000
78997.000000
79700.000000
80371.000000
81038.000000
81727.000000
82428.000000
83137.000000
83814.000000
84481.000000
85172.000000
85872.000000
86552.000000
87215.000000
87886.000000
88591.000000
89291.000000
89971.000000
90633.000000
91320.000000
92053.000000
92738.000000
93412.000000
94078.000000
94753.000000
95449.000000
96121.000000
96787.000000
97444.000000
98127.000000
98833.000000
99532.000000
100201.000000
100857.000000
101535.000000
102439.000000
103145.000000
103767.000000
104372.000000
104984.000000
105620.000000
106309.000000
107072.000000
107849.000000
108565.000000
109239.000000
109917.000000
110630.000000
111365.000000
112078.000000
112790.000000
113546.000000
114277.000000
114938.000000
115597.000000
116280.000000
116966.000000
117663.000000
118332.000000
119002.000000
119681.000000
120381.000000
121090.000000
121785.000000
122450.000000
123112.000000
123779.000000
124477.000000
125180.000000
125904.000000
126600.000000
127277.000000
127974.000000
128686.000000
129380.000000
130052.000000
130740.000000
131442.000000
132339.000000
133133.000000
133849.000000
134549.000000
135255.000000
135969.000000
136671.000000
137405.000000
138188.000000
138884.000000
139557.000000
140248.000000
140942.000000
141641.000000
142325.000000
142987.000000
143657.000000
144349.000000
145050.000000
145750.000000
146423.000000
147090.000000
147778.000000
148489.000000
149164.000000
149836.000000
150514.000000
151155.000000
151827.000000
152529.000000
153217.000000
153890.000000
154567.000000
155272.000000
155967.000000
156632.000000
157283.000000
157966.000000
158742.000000
159426.000000
160090.000000
160756.000000
161435.000000
162125.000000
162806.000000
163464.000000
164131.000000
164812.000000
165516.000000
166203.000000
166865.000000
167534.000000
168234.000000
168923.000000
169597.000000
170290.000000
170935.000000
171560.000000
172172.000000
172792.000000
173486.000000
174306.000000
175005.000000
175662.000000
176351.000000
177062.000000
177767.000000
178468.000000
179145.000000
179823.000000
180527.000000
181252.000000
181934.000000
182599.000000
183283.000000
183985.000000
184695.000000
185374.000000
186046.000000
186670.000000
187332.000000
188014.000000
188710.000000
189394.000000
190108.000000
190805.000000
191481.000000
192169.000000
192897.000000
193610.000000
194284.000000
194961.000000
195672.000000
196575.000000
197354.000000
198067.000000
198769.000000
199457.000000
200120.000000
200770.000000
201449.000000
202164.000000
202880.000000
203571.000000
204320.000000
205113.000000
205870.000000
206559.000000
207231.000000
207940.000000
208707.000000
209543.000000
210236.000000
210945.000000
211674.000000
212405.000000
213113.000000
213809.000000
214537.000000
215486.000000
216316.000000
217028.000000
217707.000000
218394.000000
219118.000000
219844.000000
220581.000000
221452.000000
222223.000000
222971.000000
223668.000000
224377.000000
225129.000000
226036.000000
226780.000000
227452.000000
228112.000000
228796.000000
229509.000000
230216.000000
230923.000000
231713.000000
232565.000000
233278.000000
233949.000000
234655.000000
235377.000000
236079.000000
236766.000000
237438.000000
238120.000000
238768.000000
239407.000000
240040.000000
240766.000000
241617.000000
242353.000000
243061.000000
243796.000000
244530.000000
245249.000000
245936.000000
246575.000000
247205.000000
247923.000000
248812.000000
249538.000000
250222.000000
250896.000000
251608.000000
252341.000000
253067.000000
253760.000000
254467.000000
255213.000000
256129.000000
256884.000000
257552.000000
258204.000000
258869.000000
259574.000000
260277.000000
261014.000000
261905.000000
262646.000000
263338.000000
264044.000000
264792.000000
265538.000000
266263.000000
266956.000000
267672.000000
268414.000000
269135.000000
269835.000000
270553.000000
271312.000000
272037.000000
272730.000000
273440.000000
274170.000000
274906.000000
275592.000000
276279.000000
277014.000000
277733.000000
278439.000000
279121.000000
279825.000000
280557.000000
281279.000000
281975.000000
282658.000000
283365.000000
284091.000000
284799.000000
285476.000000
286152.000000
286846.000000
287569.000000
288477.000000
289203.000000
289865.000000
290521.000000
291206.000000
291913.000000
292620.000000
293352.000000
294145.000000
294860.000000
295535.000000
296224.000000
296941.000000
297676.000000
298383.000000
299068.000000
299723.000000
300315.000000
300911.000000
301562.000000
302357.000000
303170.000000
304026.000000
304772.000000
305484.000000
306160.000000
306851.000000
307546.000000
308287.000000
308991.000000
309664.000000
310353.000000
311075.000000
311790.000000
312519.000000
313201.000000
313891.000000
314597.000000
315325.000000
316036.000000
316722.000000
317409.000000
318126.000000
318829.000000
319529.000000
320215.000000
320855.000000
321480.000000
322171.000000
322979.000000
323694.000000
324377.000000
325042.000000
325715.000000
326430.000000
327157.000000
327846.000000
328525.000000
329231.000000
329954.000000
330656.000000
331325.000000
331991.000000
332608.000000
333243.000000
333930.000000
334711.000000
335480.000000
336157.000000
336832.000000
337512.000000
338197.000000
338898.000000
339614.000000
340322.000000
340998.000000
341669.000000
342370.000000
343087.000000
343801.000000
344498.000000
345188.000000
345808.000000
346417.000000
347025.000000
347657.000000
348320.000000
349045.000000
349778.000000
350526.000000
351328.000000
352106.000000
352797.000000
353506.000000
354218.000000
354917.000000
355579.000000
356217.000000
356872.000000
357676.000000
358462.000000
359163.000000
359842.000000
360528.000000
361234.000000
361952.000000
362665.000000
363352.000000
364039.000000
364749.000000
365460.000000
366161.000000
366847.000000
367549.000000
368282.000000
369000.000000
369687.000000
370409.000000
371140.000000
371857.000000
372551.000000
373253.000000
373983.000000
374734.000000
375435.000000
376141.000000
376869.000000
377581.000000
378295.000000
379002.000000
379905.000000
380649.000000
381323.000000
381984.000000
382694.000000
383567.000000
384309.000000
385017.000000
385840.000000
386887.000000
387780.000000
388552.000000
389287.000000
390016.000000
390749.000000
391470.000000
392190.000000
392977.000000
393836.000000
394618.000000
395389.000000
396180.000000
396982.000000
397731.000000
398477.000000
399250.000000
400041.000000
400793.000000
401579.000000
402385.000000
403172.000000
403900.000000
404615.000000
405347.000000
406163.000000
406993.000000
407694.000000
408389.000000
409118.000000
409846.000000
410564.000000
411287.000000
411966.000000
412647.000000
413364.000000
414079.000000
414756.000000
415425.000000
416092.000000
416769.000000
417430.000000
418072.000000
418704.000000
419357.000000
420157.000000
420960.000000
421672.000000
422356.000000
423064.000000
423778.000000
424505.000000
425207.000000
425897.000000
426604.000000
427319.000000
428020.000000
428693.000000
429364.000000
430069.000000
430809.000000
431482.000000
432146.000000
432822.000000
433519.000000
434224.000000
434901.000000
435568.000000
436264.000000
436983.000000
437674.000000
438344.000000
439062.000000
439772.000000
440449.000000
441123.000000
441733.000000
442343.000000
442971.000000
443619.000000
444260.000000
444905.000000
445589.000000
446294.000000
446968.000000
447606.000000
448249.000000
448916.000000
449617.000000
450288.000000
450947.000000
451615.000000
452353.000000
453122.000000
453780.000000
454453.000000
455136.000000
455835.000000
456511.000000
457161.000000
457842.000000
458521.000000
459217.000000
459887.000000
460536.000000
461184.000000
461846.000000
462531.000000
463223.000000
463903.000000
464555.000000
465201.000000
465738.000000
466454.000000
467136.000000
467815.000000
468481.000000
469138.000000
469783.000000
470441.000000
471106.000000
471776.000000
472434.000000
473078.000000
473727.000000
474391.000000
475069.000000
475725.000000
476361.000000
476995.000000
477631.000000
478260.000000
478906.000000
479609.000000
480261.000000
480902.000000
481540.000000
482192.000000
482855.000000
483533.000000
484187.000000
484832.000000
485476.000000
486140.000000
486805.000000
487472.000000
488117.000000
488762.000000
489412.000000
490080.000000
490754.000000
491407.000000
492055.000000
492711.000000
493388.000000
494096.000000
494758.000000
495423.000000
496080.000000
496753.000000
497424.000000
498081.000000
498735.000000
499398.000000
500071.000000
500742.000000
501403.000000
502044.000000
502685.000000
503329.000000
503938.000000
504539.000000
505158.000000
505775.000000
506395.000000
507032.000000
507701.000000
508385.000000
509047.000000
509685.000000
510323.000000
510970.000000
511625.000000
512268.000000
512903.000000
513572.000000
514301.000000
515002.000000
515659.000000
516304.000000
516960.000000
517639.000000
518320.000000
519029.000000
519733.000000
520400.000000
521071.000000
521758.000000
522433.000000
523089.000000
523770.000000
524464.000000
525140.000000
525800.000000
526485.000000
527186.000000
527869.000000
528550.000000
529241.000000
530129.000000
530900.000000
531580.000000
532214.000000
532845.000000
533546.000000
534387.000000
535111.000000
535790.000000
536460.000000
537207.000000
537906.000000
538603.000000
539297.000000
539989.000000
540691.000000
541387.000000
542040.000000
542742.000000
543700.000000
544562.000000
545315.000000
545979.000000
546606.000000
547233.000000
547909.000000
548774.000000
549523.000000
550278.000000
550979.000000
551678.000000
552425.000000
553453.000000
554344.000000
555167.000000
555950.000000
556684.000000
557378.000000
558049.000000
558738.000000
559630.000000
560391.000000
561110.000000
561811.000000
562565.000000
563320.000000
564051.000000
564780.000000
565512.000000
566281.000000
567025.000000
567763.000000
568469.000000
569207.000000
569966.000000
570710.000000
571409.000000
572132.000000
572882.000000
573609.000000
574338.000000
575070.000000
575821.000000
576546.000000
577254.000000
577952.000000
578694.000000
579449.000000
580165.000000
580862.000000
581578.000000
582306.000000
583019.000000
583713.000000
584414.000000
585137.000000
586032.000000
586807.000000
587493.000000
588147.000000
588794.000000
589460.000000
590142.000000
590847.000000
591661.000000
592408.000000
593135.000000
593820.000000
594518.000000
595201.000000
595923.000000
596645.000000
597398.000000
598113.000000
598840.000000
599524.000000
600187.000000
600808.000000
601454.000000
602204.000000
603043.000000
603763.000000
604455.000000
605149.000000
605844.000000
606565.000000
607291.000000
607996.000000
608683.000000
609370.000000
610098.000000
610811.000000
611500.000000
612179.000000
612839.000000
613526.000000
614215.000000
614921.000000
615614.000000
616283.000000
616978.000000
617704.000000
618434.000000
619162.000000
619861.000000
620584.000000
621306.000000
621997.000000
622683.000000
623402.000000
624152.000000
624881.000000
625615.000000
626311.000000
627006.000000
627729.000000
628617.000000
629374.000000
630049.000000
