ECG (ms)
769.000000
1648.000000
2609.000000
3624.000000
4576.000000
5538.000000
6562.000000
7518.000000
8511.000000
9562.000000
10490.000000
11331.000000
12146.000000
13279.000000
14351.000000
15440.000000
16478.000000
17556.000000
18631.000000
19682.000000
20694.000000
21756.000000
22801.000000
23758.000000
24782.000000
25827.000000
26839.000000
27770.000000
28753.000000
29782.000000
30810.000000
31821.000000
32826.000000
33862.000000
34888.000000
35825.000000
36799.000000
37787.000000
38799.000000
39728.000000
40665.000000
41682.000000
42721.000000
43661.000000
44552.000000
45500.000000
46445.000000
47421.000000
48307.000000
49247.000000
50264.000000
51299.000000
52310.000000
53358.000000
54362.000000
55301.000000
56314.000000
57343.000000
58357.000000
59299.000000
60285.000000
61337.000000
62373.000000
63354.000000
64290.000000
65297.000000
66293.000000
67204.000000
68173.000000
69180.000000
70132.000000
71079.000000
72066.000000
73058.000000
73954.000000
74897.000000
75868.000000
76838.000000
77790.000000
78814.000000
79829.000000
80803.000000
81809.000000
82814.000000
83743.000000
84726.000000
85674.000000
86567.000000
87521.000000
88494.000000
89395.000000
90346.000000
91322.000000
92258.000000
93157.000000
94044.000000
95007.000000
95819.000000
96643.000000
97570.000000
98413.000000
99223.000000
100230.000000
101153.000000
102056.000000
103008.000000
103951.000000
104833.000000
105769.000000
106707.000000
107569.000000
108469.000000
109409.000000
110301.000000
111221.000000
112188.000000
113187.000000
114151.000000
115132.000000
116150.000000
117160.000000
118108.000000
119080.000000
120067.000000
121037.000000
121928.000000
122867.000000
123811.000000
124737.000000
125623.000000
126589.000000
127573.000000
128499.000000
129473.000000
130457.000000
131390.000000
132307.000000
133236.000000
134108.000000
134894.000000
135938.000000
136940.000000
137854.000000
138846.000000
139832.000000
140736.000000
141675.000000
142627.000000
143514.000000
144485.000000
145488.000000
146459.000000
147406.000000
148394.000000
149388.000000
150314.000000
151301.000000
152297.000000
153229.000000
154205.000000
155211.000000
156214.000000
157143.000000
158095.000000
159031.000000
159837.000000
160641.000000
161651.000000
162519.000000
163400.000000
164328.000000
165247.000000
166098.000000
167018.000000
167906.000000
168715.000000
169671.000000
170623.000000
171518.000000
172473.000000
173447.000000
174364.000000
175341.000000
176295.000000
177167.000000
178037.000000
179025.000000
179876.000000
180792.000000
181751.000000
182661.000000
183564.000000
184520.000000
185472.000000
186375.000000
187342.000000
188328.000000
189242.000000
190195.000000
191162.000000
192097.000000
192980.000000
193910.000000
194859.000000
195760.000000
196730.000000
197740.000000
198729.000000
199644.000000
200627.000000
201621.000000
202615.000000
203532.000000
204503.000000
205487.000000
206480.000000
207388.000000
208329.000000
209308.000000
210280.000000
211192.000000
212091.000000
213037.000000
213982.000000
214879.000000
215842.000000
216864.000000
217887.000000
218877.000000
219931.000000
220962.000000
221932.000000
222946.000000
223916.000000
224822.000000
225782.000000
226764.000000
227695.000000
228693.000000
229722.000000
230667.000000
231623.000000
232651.000000
233664.000000
234620.000000
235600.000000
236596.000000
237537.000000
238480.000000
239478.000000
240465.000000
241394.000000
242405.000000
243422.000000
244345.000000
245353.000000
246379.000000
247373.000000
248308.000000
249332.000000
250414.000000
251452.000000
252507.000000
253579.000000
254633.000000
255575.000000
256589.000000
257615.000000
258551.000000
259514.000000
260526.000000
261546.000000
262491.000000
263534.000000
264702.000000
265755.000000
266786.000000
267820.000000
268766.000000
269774.000000
270839.000000
271801.000000
272815.000000
273857.000000
274788.000000
275808.000000
276875.000000
277821.000000
278827.000000
279917.000000
280961.000000
282002.000000
283075.000000
284071.000000
285076.000000
286109.000000
287136.000000
288057.000000
289050.000000
290088.000000
291017.000000
291983.000000
292943.000000
293937.000000
294827.000000
295800.000000
296777.000000
297730.000000
298655.000000
299624.000000
300577.000000
301463.000000
302414.000000
303316.000000
304193.000000
305163.000000
306147.000000
307061.000000
308068.000000
309073.000000
309984.000000
310971.000000
311915.000000
312823.000000
313782.000000
314722.000000
315601.000000
316541.000000
317468.000000
318325.000000
319256.000000
320203.000000
321173.000000
322074.000000
323043.000000
324023.000000
324936.000000
325903.000000
326889.000000
327800.000000
328763.000000
329738.000000
330651.000000
331598.000000
332579.000000
333512.000000
334439.000000
335399.000000
336368.000000
337273.000000
338216.000000
339162.000000
340048.000000
340987.000000
341943.000000
342872.000000
343811.000000
344795.000000
345784.000000
346716.000000
347713.000000
348727.000000
349712.000000
350701.000000
351768.000000
352823.000000
353807.000000
354856.000000
355932.000000
356945.000000
357945.000000
359019.000000
360090.000000
361076.000000
362104.000000
363156.000000
364180.000000
365133.000000
366160.000000
367208.000000
368189.000000
369205.000000
370251.000000
371272.000000
372262.000000
373310.000000
374334.000000
375281.000000
376301.000000
377355.000000
378355.000000
379308.000000
380325.000000
381344.000000
382294.000000
383312.000000
384373.000000
385419.000000
386439.000000
387516.000000
388575.000000
389558.000000
390609.000000
391646.000000
392609.000000
393646.000000
394708.000000
395684.000000
396717.000000
397752.000000
398695.000000
399690.000000
400689.000000
401613.000000
402591.000000
403587.000000
404583.000000
405516.000000
406538.000000
407577.000000
408561.000000
409619.000000
410652.000000
411621.000000
412648.000000
413661.000000
414606.000000
415624.000000
416627.000000
417566.000000
418584.000000
419589.000000
420531.000000
421505.000000
422497.000000
423456.000000
424414.000000
425422.000000
426445.000000
427401.000000
428417.000000
429407.000000
430352.000000
431353.000000
432362.000000
433318.000000
434331.000000
435343.000000
436295.000000
437295.000000
438302.000000
439257.000000
440266.000000
441282.000000
442230.000000
443238.000000
444303.000000
445266.000000
446230.000000
447226.000000
448242.000000
449173.000000
450157.000000
451136.000000
452116.000000
453093.000000
454049.000000
455070.000000
456073.000000
457011.000000
458030.000000
459102.000000
460185.000000
461185.000000
462237.000000
463364.000000
464410.000000
465422.000000
466481.000000
467512.000000
468469.000000
469435.000000
470391.000000
471275.000000
472208.000000
473192.000000
474098.000000
475092.000000
476170.000000
477160.000000
478200.000000
479271.000000
480233.000000
481259.000000
482265.000000
483221.000000
484251.000000
485335.000000
486366.000000
487356.000000
488348.000000
489290.000000
490255.000000
491264.000000
492178.000000
493095.000000
494075.000000
495087.000000
495991.000000
496949.000000
497925.000000
498819.000000
499765.000000
500705.000000
501585.000000
502463.000000
503441.000000
504374.000000
505272.000000
506243.000000
507227.000000
508174.000000
509174.000000
510129.000000
511037.000000
511974.000000
512890.000000
513755.000000
514669.000000
515619.000000
516541.000000
517431.000000
518398.000000
519350.000000
520250.000000
521218.000000
522174.000000
523096.000000
524069.000000
525053.000000
525965.000000
526935.000000
527926.000000
528828.000000
529774.000000
530739.000000
531663.000000
532602.000000
533546.000000
534507.000000
535419.000000
536374.000000
537359.000000
538264.000000
539203.000000
540182.000000
541123.000000
542059.000000
543071.000000
544070.000000
544975.000000
545920.000000
546846.000000
547714.000000
548658.000000
549608.000000
550516.000000
551434.000000
552411.000000
553361.000000
554284.000000
555309.000000
556328.000000
557256.000000
558260.000000
559285.000000
560218.000000
561252.000000
562299.000000
563304.000000
564398.000000
565439.000000
566454.000000
567504.000000
568553.000000
569500.000000
570485.000000
571527.000000
572512.000000
573458.000000
574452.000000
575475.000000
576426.000000
577526.000000
578607.000000
579542.000000
580531.000000
581560.000000
582509.000000
583507.000000
584532.000000
585508.000000
586573.000000
587688.000000
588662.000000
589703.000000
590758.000000
591778.000000
592813.000000
593874.000000
594817.000000
595832.000000
596893.000000
597848.000000
598890.000000
599921.000000
600929.000000
601985.000000
603057.000000
604052.000000
605093.000000
606144.000000
607125.000000
608117.000000
609121.000000
610092.000000
611032.000000
612004.000000
613001.000000
613951.000000
614981.000000
616025.000000
616984.000000
617993.000000
619005.000000
619989.000000
620967.000000
621971.000000
622957.000000
623952.000000
624923.000000
625866.000000
626854.000000
627837.000000
628774.000000
629777.000000
630764.000000
631708.000000
632695.000000
633660.000000
634532.000000
635475.000000
636429.000000
637326.000000
638286.000000
639299.000000
640245.000000
641200.000000
642202.000000
643198.000000
644126.000000
645143.000000
646179.000000
647103.000000
648097.000000
649140.000000
650087.000000
651051.000000
652077.000000
653122.000000
654071.000000
655075.000000
656137.000000
657143.000000
658101.000000
659131.000000
660210.000000
661165.000000
662186.000000
663220.000000
664268.000000
665265.000000
666304.000000
667279.000000
668251.000000
669270.000000
670301.000000
671252.000000
672301.000000
673334.000000
674322.000000
675345.000000
676319.000000
677242.000000
678215.000000
679192.000000
680117.000000
681119.000000
682184.000000
683166.000000
684239.000000
685328.000000
686281.000000
687276.000000
688265.000000
689206.000000
690235.000000
691283.000000
692241.000000
693245.000000
694275.000000
695306.000000
696422.000000
697539.000000
698507.000000
699543.000000
700595.000000
701543.000000
702560.000000
703550.000000
704507.000000
705521.000000
706522.000000
707442.000000
708432.000000
709442.000000
710457.000000
711432.000000
712472.000000
713515.000000
714492.000000
715361.000000
716157.000000
717163.000000
718149.000000
719149.000000
720173.000000
721133.000000
722178.000000
723242.000000
724306.000000
725315.000000
726370.000000
727429.000000
728378.000000
729362.000000
730397.000000
731433.000000
732391.000000
733405.000000
734420.000000
735357.000000
736348.000000
737311.000000
738232.000000
739218.000000
740188.000000
741118.000000
742116.000000
743096.000000
744057.000000
745019.000000
745959.000000
746836.000000
747786.000000
748750.000000
749684.000000
750692.000000
751732.000000
752692.000000
753673.000000
754725.000000
755784.000000
756715.000000
757713.000000
758703.000000
759674.000000
760649.000000
761697.000000
762732.000000
763681.000000
764728.000000
765762.000000
766693.000000
767693.000000
768751.000000
769729.000000
770711.000000
771721.000000
772738.000000
773671.000000
774684.000000
775730.000000
776683.000000
777708.000000
778703.000000
779656.000000
780651.000000
781644.000000
782579.000000
783575.000000
784589.000000
785537.000000
786547.000000
787509.000000
788416.000000
789371.000000
790342.000000
791245.000000
792187.000000
793167.000000
794131.000000
795055.000000
796055.000000
797064.000000
797977.000000
798953.000000
799955.000000
800868.000000
801820.000000
802805.000000
803769.000000
804671.000000
805634.000000
806634.000000
807550.000000
808530.000000
809553.000000
810507.000000
811524.000000
812543.000000
813463.000000
814449.000000
815487.000000
816420.000000
817461.000000
818533.000000
819494.000000
820523.000000
821575.000000
822511.000000
823523.000000
824488.000000
825452.000000
826463.000000
827466.000000
828423.000000
829438.000000
830434.000000
831377.000000
832372.000000
833378.000000
834327.000000
835329.000000
836302.000000
837264.000000
838267.000000
839258.000000
840199.000000
841199.000000
842201.000000
843166.000000
844191.000000
845213.000000
846185.000000
847199.000000
848197.000000
849131.000000
850099.000000
851093.000000
852058.000000
852986.000000
853979.000000
854988.000000
855956.000000
856972.000000
858030.000000
859141.000000
860106.000000
861133.000000
862172.000000
863139.000000
864100.000000
865096.000000
866105.000000
867065.000000
868112.000000
869144.000000
870130.000000
871160.000000
872185.000000
873134.000000
874139.000000
875123.000000
876060.000000
877048.000000
878041.000000
878954.000000
879939.000000
880992.000000
881941.000000
882948.000000
883924.000000
884854.000000
885819.000000
886821.000000
887728.000000
888641.000000
889598.000000
890557.000000
891467.000000
892448.000000
893473.000000
894404.000000
895421.000000
896514.000000
897494.000000
898568.000000
899629.000000
900573.000000
901563.000000
902574.000000
903505.000000
904463.000000
905461.000000
906453.000000
907362.000000
908346.000000
909348.000000
910279.000000
911276.000000
912294.000000
913211.000000
914182.000000
915183.000000
916104.000000
917058.000000
918040.000000
919043.000000
919975.000000
920987.000000
922002.000000
922931.000000
923935.000000
924941.000000
925854.000000
926825.000000
927826.000000
928784.000000
929693.000000
930683.000000
931694.000000
932610.000000
933578.000000
934556.000000
935501.000000
936491.000000
937492.000000
938533.000000
939494.000000
940523.000000
941569.000000
942502.000000
943471.000000
944443.000000
945393.000000
946315.000000
947294.000000
948305.000000
949251.000000
950242.000000
951229.000000
952127.000000
953109.000000
954155.000000
955097.000000
956135.000000
957185.000000
958166.000000
959188.000000
960257.000000
961216.000000
962177.000000
963226.000000
964251.000000
965192.000000
966253.000000
967382.000000
968385.000000
969464.000000
970525.000000
971533.000000
972586.000000
973661.000000
974730.000000
975726.000000
976792.000000
977866.000000
978818.000000
979830.000000
980867.000000
981810.000000
982824.000000
983868.000000
984804.000000
985755.000000
986762.000000
987759.000000
988694.000000
989705.000000
990741.000000
991693.000000
992720.000000
993760.000000
994691.000000
995692.000000
996703.000000
997620.000000
998624.000000
999661.000000
1000608.000000
1001579.000000
1002543.000000
1003460.000000
1004432.000000
1005402.000000
1006322.000000
1007299.000000
1008265.000000
1009259.000000
1010171.000000
1011121.000000
1012106.000000
1013076.000000
1014044.000000
1015052.000000
1016043.000000
1016960.000000
1017978.000000
1019029.000000
1019988.000000
1021035.000000
1022126.000000
1023098.000000
1024163.000000
1025253.000000
1026241.000000
1027250.000000
1028317.000000
1029369.000000
1030352.000000
1031376.000000
1032411.000000
1033398.000000
1034460.000000
1035497.000000
1036460.000000
1037436.000000
1038446.000000
1039438.000000
1040336.000000
1041291.000000
1042291.000000
1043257.000000
1044165.000000
1045192.000000
1046250.000000
1047182.000000
1048208.000000
1049261.000000
1050215.000000
1051264.000000
1052336.000000
1053293.000000
1054246.000000
1055280.000000
1056345.000000
1057306.000000
1058302.000000
1059328.000000
1060235.000000
1061160.000000
1062116.000000
1063084.000000
1064041.000000
1065072.000000
1066132.000000
1067094.000000
1068073.000000
1069099.000000
1070114.000000
1071061.000000
1072107.000000
1073175.000000
1074158.000000
1075178.000000
1076231.000000
1077232.000000
1078230.000000
1079239.000000
1080189.000000
1081194.000000
1082173.000000
1083135.000000
1084157.000000
1085162.000000
1086144.000000
1087156.000000
1088151.000000
1089121.000000
1090147.000000
1091157.000000
1092096.000000
1093104.000000
1094090.000000
1094981.000000
1095901.000000
1096863.000000
1097803.000000
1098681.000000
1099653.000000
1100647.000000
1101606.000000
1102616.000000
1103612.000000
1104546.000000
1105560.000000
1106541.000000
1107486.000000
1108405.000000
1109376.000000
1110285.000000
1111159.000000
1112110.000000
1113058.000000
1113973.000000
1114952.000000
1115946.000000
1116907.000000
1117850.000000
1118831.000000
1119784.000000
1120689.000000
1121645.000000
1122600.000000
1123526.000000
1124514.000000
1125520.000000
1126440.000000
1127360.000000
1128319.000000
1129296.000000
1130185.000000
1131144.000000
1132133.000000
1133110.000000
1134148.000000
1135186.000000
1136183.000000
1137247.000000
1138316.000000
1139279.000000
1140352.000000
1141456.000000
1142467.000000
1143421.000000
1144467.000000
1145547.000000
1146502.000000
1147481.000000
1148463.000000
1149441.000000
1150395.000000
1151441.000000
1152494.000000
1153450.000000
1154563.000000
1155654.000000
1156663.000000
1157735.000000
1158791.000000
1159775.000000
1160810.000000
1161854.000000
1162893.000000
1163883.000000
1164807.000000
1165818.000000
1166848.000000
1167817.000000
1168901.000000
1170104.000000
1171161.000000
1172093.000000
1173097.000000
1174080.000000
1175019.000000
1176056.000000
1177095.000000
1178052.000000
1179092.000000
1180208.000000
1181173.000000
1182204.000000
1183235.000000
1184171.000000
1185194.000000
1186253.000000
1187201.000000
1188195.000000
1189182.000000
1190126.000000
1191100.000000
1192111.000000
1193121.000000
1194057.000000
1195052.000000
1196058.000000
1196988.000000
1198003.000000
1199021.000000
1199949.000000
1200994.000000
1202014.000000
1202945.000000
1203913.000000
