ECG (ms)
239.000000
910.000000
1595.000000
2275.000000
2970.000000
3648.000000
4318.000000
4989.000000
5667.000000
6345.000000
7018.000000
7684.000000
8346.000000
9005.000000
9660.000000
10327.000000
10985.000000
11645.000000
12297.000000
12954.000000
13605.000000
14263.000000
14931.000000
15606.000000
16307.000000
17009.000000
17710.000000
18418.000000
19122.000000
19811.000000
20490.000000
21152.000000
21807.000000
22451.000000
23099.000000
23741.000000
24357.000000
24955.000000
25557.000000
26192.000000
26853.000000
27529.000000
28231.000000
28946.000000
29641.000000
30334.000000
31024.000000
31709.000000
32387.000000
33049.000000
33710.000000
34374.000000
35056.000000
35734.000000
36411.000000
37094.000000
37779.000000
38468.000000
39160.000000
39839.000000
40521.000000
41197.000000
41862.000000
42523.000000
43184.000000
43846.000000
44514.000000
45206.000000
45908.000000
46599.000000
47295.000000
47999.000000
48711.000000
49424.000000
50107.000000
50764.000000
51419.000000
52077.000000
52742.000000
53413.000000
54085.000000
54752.000000
55423.000000
56106.000000
56801.000000
57491.000000
58184.000000
58861.000000
59523.000000
60181.000000
60832.000000
61480.000000
62135.000000
62791.000000
63440.000000
64096.000000
64761.000000
65466.000000
66165.000000
66865.000000
67570.000000
68290.000000
69022.000000
69776.000000
70526.000000
71234.000000
71911.000000
72583.000000
73250.000000
73933.000000
74596.000000
75255.000000
75914.000000
76580.000000
77261.000000
77949.000000
78637.000000
79324.000000
80026.000000
80729.000000
81433.000000
82107.000000
82774.000000
83436.000000
84094.000000
84738.000000
85376.000000
86020.000000
86672.000000
87334.000000
87997.000000
88652.000000
89311.000000
89971.000000
90620.000000
91242.000000
91845.000000
92442.000000
93049.000000
93668.000000
94298.000000
94945.000000
95590.000000
96227.000000
96866.000000
97511.000000
98157.000000
98793.000000
99431.000000
100065.000000
100706.000000
101360.000000
102028.000000
102697.000000
103383.000000
104072.000000
104764.000000
105433.000000
106097.000000
106753.000000
107406.000000
108067.000000
108723.000000
109376.000000
110026.000000
110683.000000
111347.000000
112014.000000
112668.000000
113314.000000
113957.000000
114593.000000
115235.000000
115880.000000
116535.000000
117186.000000
117857.000000
118538.000000
119213.000000
119893.000000
120572.000000
121264.000000
121939.000000
122609.000000
123268.000000
123923.000000
124582.000000
125242.000000
125898.000000
126548.000000
127202.000000
127857.000000
128527.000000
129195.000000
129851.000000
130503.000000
131160.000000
131852.000000
132547.000000
133215.000000
133880.000000
134546.000000
135221.000000
135876.000000
136525.000000
137172.000000
137816.000000
138466.000000
139110.000000
139758.000000
140416.000000
141092.000000
141778.000000
142461.000000
143129.000000
143783.000000
144428.000000
145076.000000
145728.000000
146384.000000
147033.000000
147687.000000
148339.000000
148996.000000
149659.000000
150346.000000
151024.000000
151700.000000
152376.000000
153072.000000
153764.000000
154437.000000
155104.000000
155785.000000
156455.000000
157130.000000
157790.000000
158450.000000
159107.000000
159775.000000
160441.000000
161102.000000
161761.000000
162427.000000
163100.000000
163794.000000
164467.000000
165141.000000
165811.000000
166484.000000
167160.000000
167831.000000
168501.000000
169175.000000
169844.000000
170511.000000
171166.000000
171821.000000
172477.000000
173133.000000
173788.000000
174438.000000
175095.000000
175744.000000
176394.000000
177034.000000
177671.000000
178299.000000
178919.000000
179542.000000
180166.000000
180794.000000
181433.000000
182078.000000
182733.000000
183418.000000
184114.000000
184824.000000
185512.000000
186192.000000
186866.000000
187521.000000
188173.000000
188823.000000
189473.000000
190122.000000
190766.000000
191405.000000
192043.000000
192687.000000
193334.000000
193987.000000
194639.000000
195280.000000
195923.000000
196566.000000
197213.000000
197857.000000
198503.000000
199160.000000
199821.000000
200504.000000
201195.000000
201872.000000
202530.000000
203180.000000
203822.000000
204451.000000
205075.000000
205695.000000
206325.000000
206975.000000
207637.000000
208308.000000
208977.000000
209648.000000
210328.000000
210988.000000
211649.000000
212305.000000
212963.000000
213608.000000
214252.000000
214897.000000
215554.000000
216204.000000
216854.000000
217518.000000
218180.000000
218840.000000
219491.000000
220136.000000
220785.000000
221424.000000
222065.000000
222711.000000
223375.000000
224045.000000
224713.000000
225373.000000
226034.000000
226693.000000
227355.000000
228024.000000
228692.000000
229351.000000
230005.000000
230678.000000
231362.000000
232042.000000
232724.000000
233403.000000
234060.000000
234711.000000
235358.000000
236006.000000
236665.000000
237319.000000
237986.000000
238645.000000
239309.000000
239978.000000
240651.000000
241310.000000
241963.000000
242619.000000
243288.000000
243947.000000
244605.000000
245260.000000
245913.000000
246573.000000
247231.000000
247894.000000
248544.000000
249199.000000
249850.000000
250514.000000
251179.000000
251852.000000
252522.000000
253205.000000
253876.000000
254543.000000
255204.000000
255861.000000
256510.000000
257147.000000
257783.000000
258419.000000
259051.000000
259670.000000
260266.000000
260860.000000
261459.000000
262068.000000
262685.000000
263321.000000
263968.000000
264610.000000
265266.000000
265929.000000
266597.000000
267274.000000
267937.000000
268589.000000
269246.000000
269916.000000
270588.000000
271252.000000
271916.000000
272567.000000
273208.000000
273845.000000
274485.000000
275129.000000
275783.000000
276437.000000
277087.000000
277735.000000
278394.000000
279070.000000
279747.000000
280425.000000
281098.000000
281777.000000
282449.000000
283116.000000
283779.000000
284441.000000
285096.000000
285754.000000
286407.000000
287059.000000
287704.000000
288347.000000
288986.000000
289635.000000
290297.000000
290980.000000
291682.000000
292359.000000
293029.000000
293698.000000
294364.000000
295029.000000
295677.000000
296321.000000
296967.000000
297617.000000
298280.000000
298947.000000
299596.000000
300249.000000
300895.000000
301539.000000
302190.000000
302841.000000
303488.000000
304130.000000
304774.000000
305417.000000
306068.000000
306716.000000
307373.000000
308033.000000
308680.000000
309328.000000
309982.000000
310647.000000
311320.000000
312002.000000
312676.000000
313338.000000
313990.000000
314645.000000
315304.000000
315957.000000
316612.000000
317257.000000
317899.000000
318537.000000
319180.000000
319826.000000
320487.000000
321155.000000
321826.000000
322488.000000
323150.000000
323799.000000
324443.000000
325089.000000
325727.000000
326365.000000
327001.000000
327638.000000
328275.000000
328916.000000
329560.000000
330222.000000
330894.000000
331563.000000
332225.000000
332876.000000
333527.000000
334173.000000
334807.000000
335435.000000
336067.000000
336702.000000
337335.000000
337967.000000
338602.000000
339235.000000
339883.000000
340553.000000
341221.000000
341897.000000
342557.000000
343213.000000
343853.000000
344496.000000
345134.000000
345777.000000
346417.000000
347053.000000
347690.000000
348331.000000
348977.000000
349648.000000
350317.000000
350979.000000
351627.000000
352274.000000
352926.000000
353591.000000
354253.000000
354909.000000
355553.000000
356196.000000
356838.000000
357490.000000
358138.000000
358790.000000
359455.000000
360124.000000
360808.000000
361487.000000
362161.000000
362825.000000
363481.000000
364147.000000
364799.000000
365440.000000
366070.000000
366699.000000
367332.000000
367977.000000
368624.000000
369275.000000
369926.000000
370594.000000
371258.000000
371907.000000
372545.000000
373181.000000
373823.000000
374471.000000
375121.000000
375779.000000
376442.000000
377128.000000
377808.000000
378480.000000
379146.000000
379814.000000
380495.000000
381156.000000
381804.000000
382444.000000
383085.000000
383727.000000
384360.000000
384981.000000
385604.000000
386224.000000
386860.000000
387512.000000
388179.000000
388843.000000
389505.000000
390165.000000
390816.000000
391461.000000
392100.000000
392746.000000
393389.000000
394020.000000
394651.000000
395287.000000
395934.000000
396572.000000
397207.000000
397832.000000
398458.000000
399093.000000
399736.000000
400374.000000
401014.000000
401641.000000
402252.000000
402843.000000
403422.000000
404007.000000
404610.000000
405228.000000
405853.000000
406498.000000
407141.000000
407764.000000
408388.000000
409009.000000
409634.000000
410255.000000
410874.000000
411497.000000
412128.000000
412763.000000
413409.000000
414062.000000
414711.000000
415380.000000
416036.000000
416694.000000
417361.000000
418013.000000
418677.000000
419326.000000
419969.000000
420618.000000
421271.000000
421925.000000
422568.000000
423209.000000
423839.000000
424469.000000
425107.000000
425756.000000
426408.000000
427058.000000
427714.000000
428370.000000
429034.000000
429686.000000
430331.000000
430968.000000
431607.000000
432245.000000
432878.000000
433499.000000
434114.000000
434745.000000
435368.000000
436004.000000
436649.000000
437291.000000
437935.000000
438594.000000
439258.000000
439922.000000
440570.000000
441207.000000
441842.000000
442485.000000
443126.000000
443757.000000
444383.000000
445006.000000
445639.000000
446285.000000
446941.000000
447593.000000
448245.000000
448918.000000
449606.000000
450288.000000
450942.000000
451590.000000
452232.000000
452880.000000
453529.000000
454180.000000
454822.000000
455466.000000
456108.000000
456759.000000
457418.000000
458090.000000
458769.000000
459441.000000
460116.000000
460779.000000
461439.000000
462099.000000
462760.000000
463419.000000
464075.000000
464723.000000
465373.000000
466022.000000
466683.000000
467337.000000
467994.000000
468651.000000
469320.000000
469988.000000
470659.000000
471320.000000
471974.000000
472625.000000
473275.000000
473921.000000
474563.000000
475210.000000
475865.000000
476542.000000
477200.000000
477818.000000
478420.000000
479035.000000
479668.000000
480313.000000
480963.000000
481632.000000
482316.000000
482988.000000
483646.000000
484298.000000
484956.000000
485620.000000
486278.000000
486926.000000
487568.000000
488209.000000
488846.000000
489484.000000
490129.000000
490763.000000
491397.000000
492030.000000
492673.000000
493326.000000
493989.000000
494651.000000
495313.000000
495978.000000
496645.000000
497313.000000
497965.000000
498610.000000
499255.000000
499901.000000
500549.000000
501203.000000
501852.000000
502497.000000
503150.000000
503818.000000
504496.000000
505160.000000
505822.000000
506479.000000
507138.000000
507801.000000
508477.000000
509156.000000
509818.000000
510472.000000
511122.000000
511764.000000
512399.000000
513041.000000
513688.000000
514354.000000
515031.000000
515702.000000
516365.000000
517020.000000
517681.000000
518339.000000
518993.000000
519649.000000
520302.000000
520950.000000
521596.000000
522248.000000
522900.000000
523563.000000
524227.000000
524883.000000
525530.000000
526168.000000
526814.000000
527456.000000
528097.000000
528737.000000
529381.000000
530041.000000
530728.000000
531413.000000
532084.000000
532744.000000
533394.000000
534049.000000
534708.000000
535357.000000
535996.000000
536632.000000
537273.000000
537931.000000
538599.000000
539252.000000
539896.000000
540532.000000
541174.000000
541827.000000
542475.000000
543118.000000
543760.000000
544411.000000
545081.000000
545758.000000
546433.000000
547087.000000
547728.000000
548359.000000
549003.000000
549657.000000
550323.000000
550981.000000
551637.000000
552287.000000
552942.000000
553612.000000
554277.000000
554940.000000
555599.000000
556266.000000
556931.000000
557581.000000
558225.000000
558865.000000
559508.000000
560149.000000
560788.000000
561422.000000
562061.000000
562709.000000
563368.000000
564024.000000
564672.000000
565319.000000
565971.000000
566628.000000
567272.000000
567914.000000
568547.000000
569185.000000
569823.000000
570456.000000
571090.000000
571731.000000
572380.000000
573030.000000
573671.000000
574307.000000
574944.000000
575568.000000
576187.000000
576814.000000
577442.000000
578084.000000
578723.000000
579364.000000
580006.000000
580653.000000
581316.000000
581986.000000
582645.000000
583304.000000
583958.000000
584617.000000
585274.000000
585925.000000
586572.000000
587223.000000
587864.000000
588491.000000
589117.000000
589744.000000
590373.000000
591002.000000
591651.000000
592306.000000
592971.000000
593648.000000
594348.000000
595047.000000
595728.000000
596397.000000
597049.000000
597693.000000
598337.000000
598981.000000
599640.000000
600302.000000
600963.000000
601619.000000
602283.000000
602951.000000
603635.000000
604313.000000
604981.000000
605635.000000
606288.000000
606948.000000
607598.000000
608249.000000
608891.000000
609536.000000
610182.000000
610831.000000
611480.000000
612122.000000
612762.000000
613417.000000
614073.000000
614738.000000
615396.000000
616045.000000
616696.000000
617344.000000
617998.000000
618638.000000
619280.000000
619934.000000
620593.000000
621262.000000
621922.000000
622582.000000
623241.000000
623902.000000
624556.000000
625203.000000
625851.000000
626499.000000
627150.000000
627800.000000
628443.000000
629085.000000
629731.000000
630387.000000
631035.000000
631687.000000
632345.000000
633007.000000
633685.000000
634352.000000
635005.000000
635643.000000
636280.000000
636923.000000
637573.000000
638225.000000
638873.000000
639518.000000
640173.000000
640850.000000
641535.000000
642213.000000
642887.000000
643558.000000
644226.000000
644895.000000
645539.000000
646206.000000
646888.000000
647565.000000
648239.000000
648917.000000
649596.000000
650293.000000
650965.000000
651622.000000
652277.000000
652928.000000
653574.000000
654216.000000
654857.000000
655500.000000
656141.000000
656786.000000
657434.000000
658079.000000
658735.000000
659398.000000
660060.000000
660713.000000
661364.000000
662025.000000
662685.000000
663350.000000
664005.000000
664659.000000
665312.000000
665970.000000
666617.000000
667254.000000
667901.000000
668551.000000
669209.000000
669877.000000
670544.000000
671206.000000
671861.000000
672502.000000
673137.000000
673763.000000
674388.000000
675010.000000
675629.000000
676251.000000
676875.000000
677501.000000
678134.000000
678786.000000
679443.000000
680110.000000
680771.000000
681442.000000
682126.000000
682794.000000
683449.000000
684106.000000
684757.000000
685397.000000
686025.000000
686647.000000
687272.000000
687907.000000
688551.000000
689205.000000
689869.000000
690545.000000
691231.000000
691922.000000
692598.000000
693264.000000
693925.000000
694586.000000
695249.000000
695905.000000
696553.000000
697213.000000
697876.000000
698556.000000
699227.000000
699900.000000
700584.000000
701272.000000
701951.000000
702617.000000
703276.000000
703945.000000
704607.000000
705266.000000
705916.000000
706550.000000
707161.000000
707756.000000
708349.000000
708953.000000
709572.000000
710210.000000
710864.000000
711516.000000
712168.000000
712827.000000
713504.000000
714187.000000
714889.000000
715580.000000
716264.000000
716935.000000
717594.000000
718243.000000
718891.000000
719537.000000
720201.000000
720874.000000
721566.000000
722252.000000
722954.000000
723635.000000
724304.000000
724974.000000
725646.000000
726311.000000
726970.000000
727630.000000
728291.000000
728965.000000
729640.000000
730311.000000
730995.000000
731695.000000
732394.000000
733085.000000
733794.000000
734487.000000
735175.000000
735858.000000
736547.000000
737237.000000
737932.000000
738610.000000
739272.000000
739946.000000
740629.000000
741312.000000
741985.000000
742651.000000
743322.000000
744002.000000
744677.000000
745348.000000
746019.000000
746709.000000
747394.000000
748077.000000
748757.000000
749435.000000
750100.000000
750757.000000
751400.000000
752049.000000
752692.000000
753328.000000
753964.000000
754598.000000
755238.000000
755887.000000
756557.000000
757230.000000
757895.000000
758566.000000
759243.000000
759923.000000
760592.000000
761250.000000
761913.000000
762576.000000
763249.000000
763925.000000
764604.000000
765280.000000
765938.000000
766593.000000
767248.000000
767901.000000
768561.000000
769222.000000
769889.000000
770565.000000
771237.000000
771902.000000
772564.000000
773219.000000
773878.000000
774541.000000
775224.000000
775891.000000
776563.000000
777240.000000
777916.000000
778595.000000
779261.000000
779922.000000
780574.000000
781220.000000
781869.000000
782522.000000
783186.000000
783847.000000
784496.000000
785144.000000
785791.000000
786439.000000
787089.000000
787745.000000
788419.000000
789089.000000
789751.000000
790400.000000
791042.000000
791675.000000
792309.000000
792952.000000
793604.000000
794274.000000
794935.000000
795587.000000
796249.000000
796913.000000
797570.000000
798219.000000
798867.000000
799509.000000
800146.000000
800773.000000
801395.000000
802017.000000
802646.000000
803293.000000
803950.000000
804609.000000
805262.000000
805929.000000
806607.000000
807276.000000
807939.000000
808593.000000
809255.000000
809911.000000
810569.000000
811223.000000
811874.000000
812523.000000
813164.000000
813801.000000
814438.000000
815069.000000
815695.000000
816327.000000
816963.000000
817600.000000
818248.000000
818908.000000
819589.000000
820263.000000
820937.000000
821609.000000
822275.000000
822956.000000
823626.000000
824276.000000
824917.000000
825558.000000
826198.000000
826843.000000
827481.000000
828109.000000
828744.000000
829406.000000
830073.000000
830737.000000
831391.000000
832042.000000
832699.000000
833366.000000
834028.000000
834680.000000
835332.000000
835986.000000
836627.000000
837266.000000
837904.000000
838546.000000
839190.000000
839835.000000
840476.000000
841122.000000
841775.000000
842436.000000
843089.000000
843727.000000
844372.000000
845014.000000
845656.000000
846287.000000
846917.000000
847554.000000
848195.000000
848850.000000
849494.000000
850137.000000
850785.000000
851437.000000
852094.000000
852738.000000
853382.000000
854014.000000
854641.000000
855260.000000
855871.000000
856473.000000
857081.000000
857688.000000
858308.000000
858965.000000
859656.000000
860367.000000
861068.000000
861762.000000
862430.000000
863083.000000
863724.000000
864368.000000
865005.000000
865641.000000
866274.000000
866908.000000
867559.000000
868210.000000
868862.000000
869513.000000
870158.000000
870819.000000
871484.000000
872122.000000
872734.000000
873332.000000
873931.000000
874546.000000
875174.000000
875811.000000
876455.000000
877099.000000
877742.000000
878379.000000
879017.000000
879658.000000
880302.000000
880935.000000
881575.000000
882212.000000
882851.000000
883490.000000
884127.000000
884766.000000
885416.000000
886069.000000
886718.000000
887367.000000
888023.000000
888675.000000
889315.000000
889958.000000
890599.000000
891235.000000
891880.000000
892534.000000
893187.000000
893832.000000
894472.000000
895119.000000
895770.000000
896434.000000
897092.000000
897751.000000
898413.000000
899077.000000
899735.000000
900382.000000
901014.000000
901634.000000
902248.000000
902856.000000
903468.000000
904086.000000
904716.000000
905370.000000
906072.000000
906767.000000
907451.000000
908146.000000
908832.000000
909510.000000
910167.000000
910817.000000
911469.000000
912126.000000
912772.000000
913418.000000
914068.000000
914724.000000
915377.000000
916035.000000
916695.000000
917353.000000
918008.000000
918654.000000
919297.000000
919938.000000
920585.000000
921230.000000
921872.000000
922521.000000
923182.000000
923856.000000
924535.000000
925204.000000
925864.000000
926516.000000
927162.000000
927805.000000
928445.000000
929081.000000
929731.000000
930391.000000
931041.000000
931691.000000
932340.000000
932989.000000
933635.000000
934277.000000
934915.000000
935557.000000
936227.000000
936912.000000
937599.000000
938269.000000
938942.000000
939601.000000
940246.000000
940887.000000
941522.000000
942158.000000
942786.000000
