ECG (ms)
366.000000
999.000000
1672.000000
2379.000000
3110.000000
3827.000000
4528.000000
5234.000000
5972.000000
6712.000000
7443.000000
8164.000000
8881.000000
9609.000000
10347.000000
11045.000000
11732.000000
12462.000000
13210.000000
13916.000000
14597.000000
15267.000000
15971.000000
16738.000000
17469.000000
18170.000000
18891.000000
19631.000000
20381.000000
21100.000000
21821.000000
22579.000000
23408.000000
24171.000000
24873.000000
25576.000000
26299.000000
27067.000000
27805.000000
28517.000000
29213.000000
29916.000000
30640.000000
31347.000000
32042.000000
32781.000000
33516.000000
34230.000000
34927.000000
35615.000000
36351.000000
37105.000000
37803.000000
38469.000000
39134.000000
39825.000000
40562.000000
41284.000000
41997.000000
42728.000000
43480.000000
44207.000000
44899.000000
45564.000000
46234.000000
46920.000000
47599.000000
48274.000000
48948.000000
49642.000000
50347.000000
51031.000000
51700.000000
52389.000000
53105.000000
53823.000000
54539.000000
55234.000000
55938.000000
56641.000000
57328.000000
58001.000000
58692.000000
59404.000000
60160.000000
60887.000000
61573.000000
62238.000000
62927.000000
63634.000000
64390.000000
65138.000000
65855.000000
66558.000000
67264.000000
67994.000000
68699.000000
69388.000000
70054.000000
70733.000000
71452.000000
72175.000000
72897.000000
73583.000000
74274.000000
75009.000000
75765.000000
76504.000000
77202.000000
77895.000000
78625.000000
79378.000000
80130.000000
80858.000000
81587.000000
82323.000000
83038.000000
83734.000000
84412.000000
85115.000000
85835.000000
86525.000000
87194.000000
87866.000000
88545.000000
89242.000000
89928.000000
90598.000000
91270.000000
91968.000000
92715.000000
93427.000000
94114.000000
94794.000000
95468.000000
96158.000000
96837.000000
97507.000000
98155.000000
98817.000000
99498.000000
100197.000000
100876.000000
101540.000000
102186.000000
102830.000000
103486.000000
104191.000000
104890.000000
105567.000000
106223.000000
106901.000000
107608.000000
108319.000000
109015.000000
109686.000000
110382.000000
111167.000000
111955.000000
112662.000000
113382.000000
114120.000000
114923.000000
115674.000000
116382.000000
117104.000000
117839.000000
118545.000000
119247.000000
119955.000000
120695.000000
121449.000000
122163.000000
122877.000000
123571.000000
124303.000000
125050.000000
125777.000000
126483.000000
127178.000000
127883.000000
128617.000000
129317.000000
129997.000000
130660.000000
131356.000000
132071.000000
132778.000000
133461.000000
134130.000000
134824.000000
135540.000000
136245.000000
136935.000000
137620.000000
138326.000000
139052.000000
139746.000000
140427.000000
141114.000000
141831.000000
142552.000000
143242.000000
143917.000000
144610.000000
145331.000000
146030.000000
146691.000000
147341.000000
148005.000000
148696.000000
149393.000000
150063.000000
150714.000000
151378.000000
152040.000000
152728.000000
153429.000000
154122.000000
154800.000000
155504.000000
156235.000000
156970.000000
157660.000000
158327.000000
158996.000000
159681.000000
160435.000000
161219.000000
161978.000000
162694.000000
163412.000000
164181.000000
164965.000000
165686.000000
166369.000000
167048.000000
167749.000000
168467.000000
169159.000000
169832.000000
170529.000000
171312.000000
172122.000000
172864.000000
173569.000000
174304.000000
175054.000000
175798.000000
176503.000000
177203.000000
177914.000000
178675.000000
179437.000000
180222.000000
180960.000000
181684.000000
182390.000000
183100.000000
183858.000000
184625.000000
185352.000000
186031.000000
186680.000000
187315.000000
187972.000000
188681.000000
189408.000000
190123.000000
190901.000000
191728.000000
192529.000000
193293.000000
194044.000000
194801.000000
195522.000000
196269.000000
197032.000000
197778.000000
198506.000000
199219.000000
199913.000000
200610.000000
201319.000000
202055.000000
202787.000000
203478.000000
204156.000000
204839.000000
205508.000000
206159.000000
206781.000000
207405.000000
208055.000000
208724.000000
209416.000000
210149.000000
210928.000000
211698.000000
212423.000000
213131.000000
213866.000000
214607.000000
215347.000000
216068.000000
216797.000000
217555.000000
218308.000000
219011.000000
219702.000000
220412.000000
221142.000000
221859.000000
222558.000000
223253.000000
223962.000000
224675.000000
225364.000000
226036.000000
226727.000000
227432.000000
228134.000000
228818.000000
229501.000000
230206.000000
230926.000000
231621.000000
232295.000000
232976.000000
233670.000000
234375.000000
235059.000000
235724.000000
236394.000000
237090.000000
237804.000000
238511.000000
239189.000000
239888.000000
240608.000000
241326.000000
242026.000000
242706.000000
243403.000000
244135.000000
244826.000000
245501.000000
246163.000000
246846.000000
247545.000000
248249.000000
248954.000000
249657.000000
250363.000000
251087.000000
251780.000000
252463.000000
253145.000000
253845.000000
254591.000000
255353.000000
256093.000000
256799.000000
257492.000000
258223.000000
259013.000000
259802.000000
260544.000000
261242.000000
261940.000000
262659.000000
263376.000000
264076.000000
264757.000000
265457.000000
266155.000000
266837.000000
267497.000000
268160.000000
268834.000000
269524.000000
270202.000000
270889.000000
271565.000000
272238.000000
272928.000000
273612.000000
274287.000000
274961.000000
275667.000000
276396.000000
277098.000000
277778.000000
278483.000000
279217.000000
279940.000000
280639.000000
281334.000000
282069.000000
282823.000000
283544.000000
284242.000000
284956.000000
285675.000000
286379.000000
287065.000000
287740.000000
288440.000000
289158.000000
289874.000000
290565.000000
291274.000000
292013.000000
292737.000000
293425.000000
294095.000000
294784.000000
295499.000000
296203.000000
296879.000000
297538.000000
298214.000000
298906.000000
299633.000000
300331.000000
301006.000000
301686.000000
302372.000000
303063.000000
303738.000000
304401.000000
305108.000000
305863.000000
306631.000000
307353.000000
308048.000000
308780.000000
309520.000000
310209.000000
310889.000000
311577.000000
312293.000000
313019.000000
313727.000000
314408.000000
315098.000000
315797.000000
316482.000000
317160.000000
317816.000000
318494.000000
319196.000000
319880.000000
320544.000000
321188.000000
321843.000000
322518.000000
323187.000000
323847.000000
324490.000000
325132.000000
325781.000000
326443.000000
327109.000000
327761.000000
328408.000000
329075.000000
329752.000000
330420.000000
331065.000000
331722.000000
332394.000000
333067.000000
333720.000000
334363.000000
335001.000000
335636.000000
336271.000000
336911.000000
337547.000000
338193.000000
338850.000000
339498.000000
340134.000000
340769.000000
341414.000000
342071.000000
342726.000000
343375.000000
344022.000000
344686.000000
345346.000000
346007.000000
346653.000000
347298.000000
347968.000000
348679.000000
349372.000000
350054.000000
350721.000000
351404.000000
352094.000000
352750.000000
353391.000000
354021.000000
354679.000000
355406.000000
356123.000000
356813.000000
357489.000000
358170.000000
358834.000000
359490.000000
360130.000000
360776.000000
361432.000000
362077.000000
362715.000000
363385.000000
364071.000000
364755.000000
365419.000000
366073.000000
366747.000000
367423.000000
368084.000000
368731.000000
369382.000000
370048.000000
370722.000000
371395.000000
372050.000000
372703.000000
373370.000000
374052.000000
374737.000000
375432.000000
376109.000000
376772.000000
377447.000000
378150.000000
378899.000000
379623.000000
380322.000000
381026.000000
381736.000000
382466.000000
383150.000000
383844.000000
384577.000000
385379.000000
386150.000000
386875.000000
387629.000000
388399.000000
389127.000000
389813.000000
390483.000000
391156.000000
391853.000000
392593.000000
393303.000000
394026.000000
395039.000000
395951.000000
396697.000000
397376.000000
398049.000000
398739.000000
399441.000000
400128.000000
400801.000000
401494.000000
402235.000000
402977.000000
403669.000000
404318.000000
404990.000000
405672.000000
406347.000000
407039.000000
407752.000000
408477.000000
409168.000000
409835.000000
410527.000000
411251.000000
411975.000000
412675.000000
413381.000000
414162.000000
414967.000000
415735.000000
416478.000000
417222.000000
417937.000000
418674.000000
419386.000000
420132.000000
420851.000000
421544.000000
422237.000000
422970.000000
423745.000000
424519.000000
425246.000000
425955.000000
426753.000000
427561.000000
428300.000000
428996.000000
429670.000000
430349.000000
431067.000000
431977.000000
432873.000000
433636.000000
434338.000000
435042.000000
435769.000000
436497.000000
437212.000000
437976.000000
438747.000000
439558.000000
440318.000000
441073.000000
441777.000000
442455.000000
443132.000000
443809.000000
444522.000000
445283.000000
446043.000000
446786.000000
447567.000000
448367.000000
449088.000000
449793.000000
450477.000000
451243.000000
452033.000000
452791.000000
453534.000000
454252.000000
454957.000000
455700.000000
456399.000000
457099.000000
457863.000000
458620.000000
459355.000000
460046.000000
460720.000000
461397.000000
462107.000000
462875.000000
463601.000000
464294.000000
464980.000000
465688.000000
466436.000000
467150.000000
467865.000000
468628.000000
469395.000000
470106.000000
470796.000000
471482.000000
472234.000000
473058.000000
474128.000000
474962.000000
475671.000000
476332.000000
476996.000000
477728.000000
478509.000000
479205.000000
479835.000000
480455.000000
481085.000000
481778.000000
482561.000000
483609.000000
484503.000000
485291.000000
486089.000000
486884.000000
487612.000000
488298.000000
488979.000000
489681.000000
490428.000000
491243.000000
492004.000000
492720.000000
493421.000000
494189.000000
495003.000000
495823.000000
496594.000000
497305.000000
498026.000000
498750.000000
499458.000000
500159.000000
500878.000000
501641.000000
502361.000000
503088.000000
503824.000000
504574.000000
505288.000000
505977.000000
506656.000000
507377.000000
508107.000000
508877.000000
509613.000000
510332.000000
511073.000000
511815.000000
512548.000000
513274.000000
513994.000000
514717.000000
515433.000000
516138.000000
516848.000000
517576.000000
518325.000000
519029.000000
519715.000000
520391.000000
521080.000000
521793.000000
522495.000000
523194.000000
523904.000000
524625.000000
525367.000000
526091.000000
526813.000000
527508.000000
528206.000000
528901.000000
529578.000000
530260.000000
530946.000000
531635.000000
532322.000000
533013.000000
533738.000000
534474.000000
535212.000000
535929.000000
536642.000000
537340.000000
538024.000000
538716.000000
539402.000000
540077.000000
540779.000000
541507.000000
542225.000000
542968.000000
543675.000000
544343.000000
544990.000000
545633.000000
546342.000000
547193.000000
548157.000000
548948.000000
549657.000000
550325.000000
550998.000000
551671.000000
552349.000000
553012.000000
553678.000000
554404.000000
555382.000000
556369.000000
557309.000000
558069.000000
558778.000000
559484.000000
560202.000000
560875.000000
561531.000000
562186.000000
562868.000000
563572.000000
564262.000000
564935.000000
565642.000000
566365.000000
567078.000000
567814.000000
568575.000000
569353.000000
570088.000000
570796.000000
571486.000000
572194.000000
572877.000000
573548.000000
574213.000000
574895.000000
575593.000000
576268.000000
576926.000000
577595.000000
578285.000000
578945.000000
579583.000000
580196.000000
580808.000000
581441.000000
582082.000000
582743.000000
583430.000000
584137.000000
584830.000000
585494.000000
586175.000000
586865.000000
587574.000000
588248.000000
588903.000000
589563.000000
590239.000000
590954.000000
591668.000000
592394.000000
593138.000000
593855.000000
594541.000000
595248.000000
595961.000000
596673.000000
597435.000000
598185.000000
598935.000000
599618.000000
600272.000000
