ECG (ms)
425.000000
1520.000000
2539.000000
3625.000000
4590.000000
5541.000000
6490.000000
7398.000000
8309.000000
9296.000000
10286.000000
11303.000000
12339.000000
13316.000000
14317.000000
15293.000000
16231.000000
17201.000000
18175.000000
19149.000000
20160.000000
21247.000000
22217.000000
23159.000000
24081.000000
24973.000000
25870.000000
26840.000000
27826.000000
28864.000000
29878.000000
30820.000000
31786.000000
32754.000000
33683.000000
34647.000000
35656.000000
36618.000000
37646.000000
38649.000000
39622.000000
40613.000000
41644.000000
42615.000000
43602.000000
44622.000000
45606.000000
46600.000000
47586.000000
48560.000000
49513.000000
50426.000000
51389.000000
52320.000000
53248.000000
54218.000000
55206.000000
56132.000000
57010.000000
57899.000000
58852.000000
59849.000000
60844.000000
61845.000000
62925.000000
64008.000000
64969.000000
65916.000000
66854.000000
67806.000000
68745.000000
69680.000000
70592.000000
71502.000000
72384.000000
73251.000000
74122.000000
74990.000000
75846.000000
76715.000000
77600.000000
78455.000000
79347.000000
80259.000000
81147.000000
82060.000000
82968.000000
83867.000000
84772.000000
85676.000000
86558.000000
87462.000000
88381.000000
89272.000000
90204.000000
91189.000000
92181.000000
93174.000000
94117.000000
95006.000000
95900.000000
96784.000000
97644.000000
98562.000000
99473.000000
100400.000000
101315.000000
102227.000000
103144.000000
104027.000000
104986.000000
105976.000000
106944.000000
107883.000000
108875.000000
109886.000000
110847.000000
111855.000000
112835.000000
113778.000000
114730.000000
115726.000000
116662.000000
117602.000000
118541.000000
119491.000000
120497.000000
121503.000000
122505.000000
123518.000000
124521.000000
125494.000000
126423.000000
127397.000000
128388.000000
129321.000000
130268.000000
131222.000000
132124.000000
133064.000000
133998.000000
134902.000000
135832.000000
136766.000000
137670.000000
138623.000000
139555.000000
140471.000000
141429.000000
142405.000000
143356.000000
144355.000000
145317.000000
146296.000000
147277.000000
148222.000000
149174.000000
150118.000000
151032.000000
151985.000000
152949.000000
153886.000000
154795.000000
155755.000000
156674.000000
157604.000000
158553.000000
159490.000000
160437.000000
161446.000000
162442.000000
163427.000000
164387.000000
165388.000000
166340.000000
167279.000000
168229.000000
169211.000000
170207.000000
171167.000000
172144.000000
173143.000000
174077.000000
175017.000000
175971.000000
176912.000000
177854.000000
178824.000000
179738.000000
180706.000000
181656.000000
182554.000000
183479.000000
184421.000000
185333.000000
186257.000000
187177.000000
188141.000000
189088.000000
190045.000000
190961.000000
191900.000000
192818.000000
193743.000000
194730.000000
195741.000000
196770.000000
197848.000000
198900.000000
199851.000000
200813.000000
201819.000000
202738.000000
203682.000000
204627.000000
205542.000000
206550.000000
207570.000000
208596.000000
209619.000000
210637.000000
211602.000000
212573.000000
213570.000000
214483.000000
215397.000000
216328.000000
217278.000000
218248.000000
219249.000000
220159.000000
221098.000000
222034.000000
222956.000000
223870.000000
224788.000000
225681.000000
226576.000000
227519.000000
228443.000000
229377.000000
230363.000000
231279.000000
232226.000000
233215.000000
234154.000000
235094.000000
236109.000000
237110.000000
238109.000000
239128.000000
240120.000000
241111.000000
242151.000000
243122.000000
244131.000000
245067.000000
245958.000000
246875.000000
247825.000000
248733.000000
249723.000000
250793.000000
251773.000000
252777.000000
253814.000000
254810.000000
255799.000000
256783.000000
257702.000000
258625.000000
259526.000000
260425.000000
261331.000000
262253.000000
263157.000000
264092.000000
264999.000000
265906.000000
266820.000000
267715.000000
268618.000000
269535.000000
270435.000000
271350.000000
272280.000000
273172.000000
274083.000000
274994.000000
275907.000000
276804.000000
277737.000000
278647.000000
279552.000000
280460.000000
281349.000000
282250.000000
283163.000000
284047.000000
284935.000000
285894.000000
286889.000000
287877.000000
288865.000000
289805.000000
290781.000000
291801.000000
292757.000000
293699.000000
294700.000000
295647.000000
296607.000000
297536.000000
298464.000000
299375.000000
300265.000000
301178.000000
302151.000000
303149.000000
304102.000000
305076.000000
306017.000000
306946.000000
307944.000000
308987.000000
309994.000000
311040.000000
312059.000000
313068.000000
314048.000000
314997.000000
315906.000000
316817.000000
317716.000000
318652.000000
319640.000000
320712.000000
321797.000000
322816.000000
323876.000000
324883.000000
325884.000000
326875.000000
327817.000000
328771.000000
329721.000000
330627.000000
331585.000000
332592.000000
333530.000000
334576.000000
335633.000000
336630.000000
337611.000000
338637.000000
339597.000000
340554.000000
341490.000000
342418.000000
343370.000000
344318.000000
345263.000000
346253.000000
347262.000000
348208.000000
349147.000000
350075.000000
350995.000000
351927.000000
352871.000000
353836.000000
354761.000000
355697.000000
356704.000000
357652.000000
358673.000000
360010.000000
361116.000000
362122.000000
363135.000000
364096.000000
365130.000000
366215.000000
367240.000000
368386.000000
369576.000000
370702.000000
371903.000000
373016.000000
374119.000000
375189.000000
376232.000000
377218.000000
378196.000000
379144.000000
380148.000000
381432.000000
382693.000000
383863.000000
384983.000000
386012.000000
387040.000000
388096.000000
389197.000000
390360.000000
391535.000000
392687.000000
393758.000000
394754.000000
395780.000000
396811.000000
397775.000000
398758.000000
399792.000000
400780.000000
401802.000000
402845.000000
403992.000000
405075.000000
406115.000000
407247.000000
408311.000000
409319.000000
410276.000000
411200.000000
412150.000000
413126.000000
414240.000000
415430.000000
416644.000000
417764.000000
418812.000000
419792.000000
420786.000000
421729.000000
422675.000000
423644.000000
424579.000000
425545.000000
426520.000000
427477.000000
428477.000000
429471.000000
430466.000000
431438.000000
432399.000000
433390.000000
434361.000000
435350.000000
436354.000000
437324.000000
438353.000000
439387.000000
440408.000000
441385.000000
442373.000000
443311.000000
444263.000000
445213.000000
446137.000000
447098.000000
448102.000000
449182.000000
450379.000000
451497.000000
452532.000000
453475.000000
454465.000000
455405.000000
456347.000000
457366.000000
458426.000000
459585.000000
460634.000000
461652.000000
462573.000000
463511.000000
464467.000000
465453.000000
466523.000000
467993.000000
469310.000000
470493.000000
471640.000000
472726.000000
473737.000000
474792.000000
475839.000000
476870.000000
477894.000000
479219.000000
480423.000000
481432.000000
482420.000000
483335.000000
484297.000000
485322.000000
486413.000000
487604.000000
488836.000000
489970.000000
491098.000000
492186.000000
493198.000000
494223.000000
495269.000000
496332.000000
497315.000000
498328.000000
499316.000000
500244.000000
501194.000000
502141.000000
503034.000000
503946.000000
504908.000000
505914.000000
506901.000000
507906.000000
509011.000000
510040.000000
511079.000000
512194.000000
513305.000000
514372.000000
515420.000000
516478.000000
517446.000000
518394.000000
519349.000000
520254.000000
521190.000000
522140.000000
523068.000000
524031.000000
525076.000000
526085.000000
527058.000000
528007.000000
528968.000000
529902.000000
530866.000000
531850.000000
532843.000000
533894.000000
534942.000000
535897.000000
536840.000000
537788.000000
538766.000000
539747.000000
540726.000000
541729.000000
542662.000000
543602.000000
544553.000000
545478.000000
546436.000000
547474.000000
548440.000000
549436.000000
550431.000000
551398.000000
552356.000000
553379.000000
554383.000000
555338.000000
556344.000000
557307.000000
558230.000000
559189.000000
560141.000000
561118.000000
562068.000000
563027.000000
563968.000000
564904.000000
565852.000000
566854.000000
567848.000000
568866.000000
569881.000000
570799.000000
571713.000000
572623.000000
573525.000000
574444.000000
575412.000000
576334.000000
577258.000000
578219.000000
579230.000000
580207.000000
581168.000000
582156.000000
583119.000000
584021.000000
584940.000000
585838.000000
586737.000000
587654.000000
588581.000000
589531.000000
590443.000000
591350.000000
592363.000000
593315.000000
594266.000000
595207.000000
596106.000000
597036.000000
598021.000000
599015.000000
599989.000000
600943.000000
601897.000000
602844.000000
603773.000000
604676.000000
605592.000000
606507.000000
607476.000000
608417.000000
609393.000000
610375.000000
611502.000000
612607.000000
613734.000000
614875.000000
615954.000000
616955.000000
617959.000000
618941.000000
619902.000000
620881.000000
621972.000000
623060.000000
624076.000000
625115.000000
626109.000000
627105.000000
628209.000000
629332.000000
630382.000000
631367.000000
632354.000000
633291.000000
634277.000000
635280.000000
636268.000000
637281.000000
638432.000000
639487.000000
640528.000000
641554.000000
642603.000000
643623.000000
644633.000000
645667.000000
646703.000000
647672.000000
648631.000000
649606.000000
650568.000000
651514.000000
652491.000000
653461.000000
654445.000000
655446.000000
656423.000000
657365.000000
658321.000000
659248.000000
660223.000000
661221.000000
662302.000000
663379.000000
664596.000000
665787.000000
666857.000000
667931.000000
669018.000000
670037.000000
671028.000000
672037.000000
673074.000000
674091.000000
675074.000000
676140.000000
677171.000000
678223.000000
679269.000000
680244.000000
681261.000000
682380.000000
683443.000000
684575.000000
685693.000000
686705.000000
687694.000000
688725.000000
689673.000000
690630.000000
691602.000000
692572.000000
693527.000000
694524.000000
695482.000000
696446.000000
697462.000000
698642.000000
699902.000000
701136.000000
702242.000000
703354.000000
704447.000000
705498.000000
706601.000000
707723.000000
708783.000000
709889.000000
710959.000000
711921.000000
712909.000000
713858.000000
714825.000000
715777.000000
716851.000000
717867.000000
718914.000000
719993.000000
721042.000000
722021.000000
723042.000000
723993.000000
724983.000000
726006.000000
727009.000000
728001.000000
729021.000000
730057.000000
731068.000000
732075.000000
733121.000000
734153.000000
735194.000000
736191.000000
737193.000000
738186.000000
739125.000000
740116.000000
741144.000000
742153.000000
743138.000000
744136.000000
745126.000000
746116.000000
747021.000000
748036.000000
749183.000000
750454.000000
751570.000000
752698.000000
753844.000000
754954.000000
756060.000000
757152.000000
758178.000000
759209.000000
760240.000000
761268.000000
762330.000000
763417.000000
764463.000000
765504.000000
766471.000000
767396.000000
768353.000000
769311.000000
770268.000000
771245.000000
772179.000000
773166.000000
774168.000000
775080.000000
776041.000000
777035.000000
778024.000000
779045.000000
780063.000000
781049.000000
782027.000000
782980.000000
783885.000000
784819.000000
785762.000000
786665.000000
787588.000000
788693.000000
789957.000000
791076.000000
792184.000000
793251.000000
794348.000000
795516.000000
796733.000000
797841.000000
798952.000000
800135.000000
801139.000000
802105.000000
803079.000000
804029.000000
805121.000000
806250.000000
807405.000000
808645.000000
809683.000000
810675.000000
811643.000000
812590.000000
813581.000000
814562.000000
815496.000000
816456.000000
817461.000000
818391.000000
819376.000000
820371.000000
821341.000000
822375.000000
823550.000000
824679.000000
825780.000000
826845.000000
827839.000000
828827.000000
829842.000000
830933.000000
831972.000000
833097.000000
834145.000000
835178.000000
836163.000000
837108.000000
838088.000000
839113.000000
840128.000000
841209.000000
842352.000000
843406.000000
844571.000000
845761.000000
846880.000000
847928.000000
848909.000000
849943.000000
851107.000000
852250.000000
853388.000000
854451.000000
855614.000000
856905.000000
857987.000000
858970.000000
859934.000000
860855.000000
861825.000000
862900.000000
863898.000000
864938.000000
865945.000000
866904.000000
867920.000000
868944.000000
869899.000000
870876.000000
871808.000000
872728.000000
873699.000000
874757.000000
875738.000000
876755.000000
877786.000000
878789.000000
879823.000000
880879.000000
881922.000000
883017.000000
884101.000000
885141.000000
886195.000000
887237.000000
888217.000000
889187.000000
890196.000000
891241.000000
892397.000000
893554.000000
894575.000000
895549.000000
896502.000000
897458.000000
898456.000000
899440.000000
900491.000000
