ECG (ms)
246.000000
1039.000000
1793.000000
2525.000000
3243.000000
3904.000000
4548.000000
5211.000000
5888.000000
6596.000000
7333.000000
8047.000000
8754.000000
9537.000000
10354.000000
11134.000000
11872.000000
12616.000000
13343.000000
14086.000000
14837.000000
15627.000000
16401.000000
17252.000000
18146.000000
19004.000000
19805.000000
20560.000000
21317.000000
22093.000000
22893.000000
23643.000000
24379.000000
25104.000000
25824.000000
26537.000000
27274.000000
28058.000000
28860.000000
29624.000000
30354.000000
31113.000000
31898.000000
32707.000000
33518.000000
34276.000000
35045.000000
35803.000000
36556.000000
37283.000000
37974.000000
38686.000000
39441.000000
40231.000000
40974.000000
41697.000000
42455.000000
43250.000000
44050.000000
44806.000000
45577.000000
46390.000000
47190.000000
47950.000000
48734.000000
49539.000000
50332.000000
51083.000000
51843.000000
52614.000000
53393.000000
54133.000000
54897.000000
55673.000000
56461.000000
57201.000000
57931.000000
58693.000000
59487.000000
60273.000000
61077.000000
61873.000000
62615.000000
63325.000000
64044.000000
64743.000000
65420.000000
66121.000000
66851.000000
67662.000000
68535.000000
69382.000000
70189.000000
70927.000000
71644.000000
72395.000000
73205.000000
74034.000000
74816.000000
75556.000000
76315.000000
77105.000000
77885.000000
78625.000000
79369.000000
80119.000000
80877.000000
81605.000000
82308.000000
83033.000000
83801.000000
84596.000000
85353.000000
86098.000000
86871.000000
87677.000000
88477.000000
89216.000000
89950.000000
90688.000000
91427.000000
92116.000000
92799.000000
93497.000000
94229.000000
95011.000000
95784.000000
96536.000000
97322.000000
98116.000000
98910.000000
99656.000000
100362.000000
101071.000000
101817.000000
102609.000000
103443.000000
104276.000000
105051.000000
105801.000000
106581.000000
107383.000000
108203.000000
108987.000000
109708.000000
110414.000000
111145.000000
111898.000000
112687.000000
113470.000000
114215.000000
114988.000000
115812.000000
116646.000000
117429.000000
118161.000000
118906.000000
119673.000000
120460.000000
121210.000000
121984.000000
122785.000000
123587.000000
124377.000000
125109.000000
125845.000000
126605.000000
127382.000000
128164.000000
128905.000000
129635.000000
130377.000000
131154.000000
131916.000000
132628.000000
133312.000000
133964.000000
134667.000000
135441.000000
136171.000000
136900.000000
137656.000000
138474.000000
139323.000000
140113.000000
140834.000000
141528.000000
142233.000000
142981.000000
143749.000000
144496.000000
145230.000000
145995.000000
146837.000000
147674.000000
148445.000000
149228.000000
150036.000000
150875.000000
151661.000000
152446.000000
153296.000000
154200.000000
155045.000000
155790.000000
156512.000000
157233.000000
157969.000000
158696.000000
159459.000000
160255.000000
161086.000000
161868.000000
162681.000000
163512.000000
164315.000000
165088.000000
165861.000000
166654.000000
167459.000000
168214.000000
168974.000000
169747.000000
170546.000000
171298.000000
172044.000000
172813.000000
173588.000000
174317.000000
175064.000000
175819.000000
176581.000000
177302.000000
178035.000000
178745.000000
179422.000000
180110.000000
180793.000000
181487.000000
182210.000000
182969.000000
183748.000000
184498.000000
185237.000000
185986.000000
186742.000000
187497.000000
188224.000000
188936.000000
189684.000000
190461.000000
191256.000000
192018.000000
192731.000000
193435.000000
194159.000000
194894.000000
195642.000000
196378.000000
197096.000000
197845.000000
198657.000000
199429.000000
200154.000000
200905.000000
201668.000000
202399.000000
203110.000000
203841.000000
204588.000000
205375.000000
206149.000000
206874.000000
207592.000000
208347.000000
209128.000000
209935.000000
210730.000000
211481.000000
212250.000000
213021.000000
213806.000000
214619.000000
215414.000000
216156.000000
216888.000000
217646.000000
218435.000000
219239.000000
219997.000000
220737.000000
221504.000000
222307.000000
223126.000000
223875.000000
224616.000000
225360.000000
226119.000000
226853.000000
227613.000000
228437.000000
229328.000000
230141.000000
230946.000000
231746.000000
232566.000000
233367.000000
234123.000000
234847.000000
235586.000000
236332.000000
237089.000000
237817.000000
238511.000000
239203.000000
239902.000000
240639.000000
241372.000000
242114.000000
242905.000000
243723.000000
244526.000000
245303.000000
246100.000000
246887.000000
247622.000000
248350.000000
249113.000000
249881.000000
250632.000000
251409.000000
252176.000000
252918.000000
253630.000000
254386.000000
255245.000000
256129.000000
256986.000000
257757.000000
258517.000000
259310.000000
260118.000000
260901.000000
261649.000000
262429.000000
263240.000000
264085.000000
264915.000000
265707.000000
266530.000000
267417.000000
268304.000000
269110.000000
269913.000000
270698.000000
271463.000000
272182.000000
272899.000000
273656.000000
274476.000000
275278.000000
276015.000000
276780.000000
277569.000000
278286.000000
278979.000000
279693.000000
280413.000000
281102.000000
281819.000000
282575.000000
283331.000000
284148.000000
285030.000000
285909.000000
286701.000000
287484.000000
288295.000000
289125.000000
289910.000000
290656.000000
291433.000000
292264.000000
293125.000000
293961.000000
294802.000000
295620.000000
296409.000000
297131.000000
297871.000000
298665.000000
299559.000000
300405.000000
301237.000000
302110.000000
303021.000000
303845.000000
304614.000000
305413.000000
306267.000000
307125.000000
307932.000000
308694.000000
309488.000000
310326.000000
311116.000000
311927.000000
312780.000000
313666.000000
314508.000000
315336.000000
316185.000000
317056.000000
317929.000000
318726.000000
319553.000000
320429.000000
321277.000000
322047.000000
322772.000000
323505.000000
324271.000000
325021.000000
325726.000000
326451.000000
327144.000000
327844.000000
328554.000000
329251.000000
329978.000000
330744.000000
331529.000000
332284.000000
333050.000000
333830.000000
334617.000000
335332.000000
336063.000000
336804.000000
337573.000000
338315.000000
339040.000000
339788.000000
340561.000000
341322.000000
342039.000000
342759.000000
343489.000000
344228.000000
344934.000000
345631.000000
346349.000000
347121.000000
347847.000000
348550.000000
349271.000000
350030.000000
350751.000000
351436.000000
352130.000000
352864.000000
353636.000000
354394.000000
355109.000000
355830.000000
356563.000000
357327.000000
358068.000000
358798.000000
359551.000000
360352.000000
361127.000000
361831.000000
362523.000000
363225.000000
363958.000000
364661.000000
365336.000000
366048.000000
366799.000000
367576.000000
368316.000000
369060.000000
369834.000000
370625.000000
371388.000000
372109.000000
372823.000000
373552.000000
374295.000000
375016.000000
375704.000000
376394.000000
377100.000000
377833.000000
378560.000000
379269.000000
379980.000000
380700.000000
381458.000000
382244.000000
382957.000000
383652.000000
384327.000000
384979.000000
385655.000000
386386.000000
387114.000000
387859.000000
388647.000000
389488.000000
390328.000000
391088.000000
391815.000000
392553.000000
393320.000000
394076.000000
394808.000000
395554.000000
396354.000000
397158.000000
397965.000000
398719.000000
399473.000000
400239.000000
401007.000000
401750.000000
402521.000000
403335.000000
404169.000000
404943.000000
405717.000000
406510.000000
407323.000000
408119.000000
408843.000000
409558.000000
410292.000000
411067.000000
411850.000000
412604.000000
413429.000000
414303.000000
415171.000000
415961.000000
416733.000000
417524.000000
418325.000000
419096.000000
419836.000000
420575.000000
421350.000000
422148.000000
422926.000000
423668.000000
424407.000000
425163.000000
425980.000000
426778.000000
427519.000000
428280.000000
429050.000000
429840.000000
430598.000000
431352.000000
432111.000000
432862.000000
433608.000000
434379.000000
435219.000000
436080.000000
436851.000000
437617.000000
438419.000000
439229.000000
439991.000000
440752.000000
441541.000000
442353.000000
443126.000000
443864.000000
444611.000000
445355.000000
446084.000000
446773.000000
447443.000000
448116.000000
448824.000000
449531.000000
450232.000000
450962.000000
451721.000000
452486.000000
453207.000000
453944.000000
454697.000000
455455.000000
456189.000000
456893.000000
457604.000000
458324.000000
459050.000000
459748.000000
460446.000000
461157.000000
461892.000000
462636.000000
463331.000000
464020.000000
464742.000000
465493.000000
466226.000000
466935.000000
467639.000000
468311.000000
468977.000000
469679.000000
470378.000000
471096.000000
471855.000000
472611.000000
473322.000000
474067.000000
474800.000000
475535.000000
476289.000000
477084.000000
477868.000000
478604.000000
479354.000000
480117.000000
480839.000000
481590.000000
482362.000000
483163.000000
483904.000000
484676.000000
485467.000000
486287.000000
487123.000000
487954.000000
488725.000000
489490.000000
490240.000000
490963.000000
491727.000000
492540.000000
493388.000000
494319.000000
495287.000000
496176.000000
497031.000000
497872.000000
498624.000000
499354.000000
500044.000000
500730.000000
501433.000000
502154.000000
502871.000000
503627.000000
504403.000000
505157.000000
505890.000000
506626.000000
507350.000000
508033.000000
508740.000000
509485.000000
510277.000000
511055.000000
511831.000000
512629.000000
513447.000000
514271.000000
515029.000000
515774.000000
516542.000000
517329.000000
518096.000000
518827.000000
519553.000000
520287.000000
521041.000000
521805.000000
522545.000000
523318.000000
524124.000000
524909.000000
525666.000000
526471.000000
527312.000000
528130.000000
528960.000000
529819.000000
530690.000000
531501.000000
532256.000000
532991.000000
533725.000000
534407.000000
535089.000000
535798.000000
536504.000000
537237.000000
537989.000000
538697.000000
539469.000000
540262.000000
541005.000000
541790.000000
542582.000000
543375.000000
544120.000000
544867.000000
545631.000000
546425.000000
547202.000000
547949.000000
548695.000000
549465.000000
550268.000000
551090.000000
551915.000000
552650.000000
553356.000000
554062.000000
554776.000000
555519.000000
556304.000000
557053.000000
557797.000000
558585.000000
559394.000000
560174.000000
560908.000000
561652.000000
562431.000000
563183.000000
563890.000000
564578.000000
565269.000000
565972.000000
566688.000000
567397.000000
568114.000000
568855.000000
569611.000000
570330.000000
571067.000000
571799.000000
572496.000000
573191.000000
573902.000000
574652.000000
575373.000000
576099.000000
576855.000000
577589.000000
578312.000000
579039.000000
579763.000000
580496.000000
581205.000000
581931.000000
582646.000000
583332.000000
584060.000000
584837.000000
585613.000000
586336.000000
587048.000000
587757.000000
588477.000000
589194.000000
589967.000000
590774.000000
591558.000000
592372.000000
593200.000000
593956.000000
594716.000000
595492.000000
596213.000000
596937.000000
597691.000000
598469.000000
599202.000000
599923.000000
600656.000000
