ECG (ms)
663.000000
1653.000000
2603.000000
3646.000000
4789.000000
5996.000000
7201.000000
8326.000000
9417.000000
10487.000000
11477.000000
12448.000000
13445.000000
14507.000000
15697.000000
16884.000000
18019.000000
19087.000000
20107.000000
21138.000000
22216.000000
23274.000000
24344.000000
25462.000000
26603.000000
27704.000000
28804.000000
29864.000000
30840.000000
31800.000000
32797.000000
33884.000000
34910.000000
35976.000000
37077.000000
38139.000000
39107.000000
40075.000000
41051.000000
41988.000000
42983.000000
44097.000000
45192.000000
46161.000000
47121.000000
48109.000000
49082.000000
50006.000000
50970.000000
51982.000000
52962.000000
53904.000000
54854.000000
55805.000000
56752.000000
57664.000000
58570.000000
59528.000000
60497.000000
61419.000000
62317.000000
63228.000000
64135.000000
65027.000000
65896.000000
66801.000000
67762.000000
68693.000000
69600.000000
70539.000000
71516.000000
72473.000000
73371.000000
74264.000000
75198.000000
76172.000000
77096.000000
78041.000000
79045.000000
80078.000000
81045.000000
81996.000000
82989.000000
83963.000000
84887.000000
85807.000000
86775.000000
87742.000000
88730.000000
89675.000000
90638.000000
91646.000000
92647.000000
93575.000000
94483.000000
95405.000000
96354.000000
97323.000000
98269.000000
99237.000000
100252.000000
101278.000000
102230.000000
103158.000000
104123.000000
105081.000000
106015.000000
106904.000000
107831.000000
108825.000000
109850.000000
110885.000000
111885.000000
112816.000000
113740.000000
114680.000000
115625.000000
116569.000000
117481.000000
118461.000000
119447.000000
120447.000000
121385.000000
122326.000000
123294.000000
124276.000000
125205.000000
126137.000000
127137.000000
128152.000000
129132.000000
130083.000000
131094.000000
132166.000000
133252.000000
134255.000000
135246.000000
136265.000000
137292.000000
138283.000000
139256.000000
140302.000000
141394.000000
142495.000000
143500.000000
144525.000000
145555.000000
146614.000000
147622.000000
148637.000000
149717.000000
150806.000000
151837.000000
152805.000000
153794.000000
154841.000000
155865.000000
156861.000000
157912.000000
159019.000000
160087.000000
161075.000000
162067.000000
163076.000000
164092.000000
165073.000000
166065.000000
167113.000000
168183.000000
169240.000000
170234.000000
171250.000000
172328.000000
173450.000000
174491.000000
175565.000000
176617.000000
177662.000000
178634.000000
179612.000000
180663.000000
181776.000000
182828.000000
183829.000000
184869.000000
185917.000000
186967.000000
187962.000000
188919.000000
189916.000000
190956.000000
192013.000000
193013.000000
193982.000000
195018.000000
196070.000000
197049.000000
197970.000000
198918.000000
199960.000000
201076.000000
202125.000000
203222.000000
204346.000000
205367.000000
206317.000000
207286.000000
208251.000000
209166.000000
210092.000000
211107.000000
212186.000000
213191.000000
214206.000000
215295.000000
216329.000000
217289.000000
218218.000000
219184.000000
220189.000000
221148.000000
222109.000000
223133.000000
224176.000000
225095.000000
225950.000000
226825.000000
227803.000000
228778.000000
229723.000000
230735.000000
231789.000000
232842.000000
233823.000000
234841.000000
235906.000000
236924.000000
237888.000000
238899.000000
239988.000000
241104.000000
242137.000000
243199.000000
244278.000000
245331.000000
246283.000000
247241.000000
248253.000000
249287.000000
250295.000000
251285.000000
252356.000000
253468.000000
254554.000000
255562.000000
256580.000000
257583.000000
258533.000000
259491.000000
260562.000000
261656.000000
262612.000000
263547.000000
264500.000000
265454.000000
266378.000000
267346.000000
268373.000000
269426.000000
270409.000000
271416.000000
272422.000000
273405.000000
274308.000000
275199.000000
276095.000000
277018.000000
277913.000000
278816.000000
279792.000000
280829.000000
281803.000000
282797.000000
283849.000000
284901.000000
285849.000000
286783.000000
287724.000000
288595.000000
289408.000000
290246.000000
291162.000000
292110.000000
293183.000000
294324.000000
295419.000000
296423.000000
297425.000000
298478.000000
299502.000000
300438.000000
301403.000000
302426.000000
303493.000000
304486.000000
305553.000000
306638.000000
307648.000000
308626.000000
309642.000000
310701.000000
311739.000000
312722.000000
313791.000000
314866.000000
315862.000000
316799.000000
317780.000000
318798.000000
319815.000000
320770.000000
321759.000000
322824.000000
323879.000000
324934.000000
325899.000000
326884.000000
327866.000000
328818.000000
329718.000000
330623.000000
331586.000000
332587.000000
333629.000000
334729.000000
335744.000000
336721.000000
337703.000000
338656.000000
339555.000000
340451.000000
341414.000000
342407.000000
343369.000000
344308.000000
345288.000000
346250.000000
347206.000000
348116.000000
349057.000000
350024.000000
350969.000000
351864.000000
352774.000000
353716.000000
354674.000000
355584.000000
356523.000000
357447.000000
358326.000000
359213.000000
360128.000000
361053.000000
361940.000000
362845.000000
363760.000000
364660.000000
365531.000000
366419.000000
367330.000000
368265.000000
369143.000000
370012.000000
370928.000000
371830.000000
372699.000000
373574.000000
374494.000000
375439.000000
376381.000000
377283.000000
378192.000000
379127.000000
380061.000000
380942.000000
381831.000000
382723.000000
383614.000000
384502.000000
385412.000000
386366.000000
387372.000000
388331.000000
389253.000000
390206.000000
391190.000000
392153.000000
393072.000000
393972.000000
394909.000000
395877.000000
396831.000000
397778.000000
398768.000000
399767.000000
400719.000000
401624.000000
402571.000000
403518.000000
404469.000000
405390.000000
406380.000000
407408.000000
408377.000000
409362.000000
410348.000000
411325.000000
412248.000000
413166.000000
414120.000000
415102.000000
416036.000000
416993.000000
417984.000000
418980.000000
419924.000000
420905.000000
421918.000000
422867.000000
423763.000000
424693.000000
425633.000000
426591.000000
427503.000000
428501.000000
429532.000000
430502.000000
431442.000000
432406.000000
433393.000000
434326.000000
435218.000000
436144.000000
437093.000000
438082.000000
439022.000000
439986.000000
440987.000000
441988.000000
442916.000000
443877.000000
444838.000000
445802.000000
446714.000000
447619.000000
448581.000000
449624.000000
450627.000000
451561.000000
452548.000000
453559.000000
454524.000000
455435.000000
456367.000000
457338.000000
458328.000000
459269.000000
460230.000000
461242.000000
462229.000000
463136.000000
464016.000000
464883.000000
465810.000000
466820.000000
467858.000000
468836.000000
469773.000000
470635.000000
471501.000000
472391.000000
473348.000000
474386.000000
475408.000000
476396.000000
477308.000000
478228.000000
479169.000000
480137.000000
481124.000000
482116.000000
483046.000000
483989.000000
484967.000000
485964.000000
486965.000000
487908.000000
488817.000000
489746.000000
490701.000000
491691.000000
492694.000000
493679.000000
494689.000000
495665.000000
496607.000000
497487.000000
498356.000000
499241.000000
500164.000000
501109.000000
502065.000000
503030.000000
504047.000000
505058.000000
506064.000000
506995.000000
507915.000000
508848.000000
509806.000000
510750.000000
511684.000000
512648.000000
513651.000000
514640.000000
515554.000000
516478.000000
517407.000000
518354.000000
519268.000000
520187.000000
521130.000000
522118.000000
523108.000000
524033.000000
525023.000000
525996.000000
526931.000000
527844.000000
528795.000000
529748.000000
530683.000000
531609.000000
532585.000000
533590.000000
534557.000000
535490.000000
536430.000000
537366.000000
538277.000000
539159.000000
540066.000000
540999.000000
541965.000000
542904.000000
543803.000000
544729.000000
545665.000000
546566.000000
547445.000000
548356.000000
549326.000000
550327.000000
551270.000000
552258.000000
553316.000000
554393.000000
555414.000000
556354.000000
557297.000000
558253.000000
559248.000000
560198.000000
561131.000000
562096.000000
563059.000000
563956.000000
564871.000000
565802.000000
566779.000000
567729.000000
568676.000000
569679.000000
570701.000000
571650.000000
572615.000000
573612.000000
574604.000000
575520.000000
576439.000000
577410.000000
578403.000000
579346.000000
580254.000000
581202.000000
582184.000000
583146.000000
584063.000000
584951.000000
585874.000000
586808.000000
587751.000000
588659.000000
589576.000000
590528.000000
591461.000000
592366.000000
593308.000000
594288.000000
595245.000000
596133.000000
597041.000000
597976.000000
598898.000000
599782.000000
600666.000000
601589.000000
602549.000000
603481.000000
604451.000000
605441.000000
606431.000000
607393.000000
608303.000000
609233.000000
610176.000000
611145.000000
612098.000000
612982.000000
613907.000000
614876.000000
615871.000000
616844.000000
617887.000000
618929.000000
619966.000000
620920.000000
621898.000000
622838.000000
623704.000000
624527.000000
625377.000000
626270.000000
627251.000000
628321.000000
629427.000000
630466.000000
631469.000000
632492.000000
633514.000000
634473.000000
635475.000000
636553.000000
637703.000000
638742.000000
639805.000000
640874.000000
641882.000000
642821.000000
643790.000000
644815.000000
645963.000000
647014.000000
648021.000000
649046.000000
650081.000000
651122.000000
652105.000000
653125.000000
654127.000000
655146.000000
656088.000000
657104.000000
658136.000000
659100.000000
660038.000000
660995.000000
661947.000000
662902.000000
663830.000000
664848.000000
665869.000000
666850.000000
667795.000000
668749.000000
669712.000000
670667.000000
671588.000000
672571.000000
673601.000000
674592.000000
675545.000000
676521.000000
677495.000000
678440.000000
679379.000000
680340.000000
681333.000000
682287.000000
683225.000000
684211.000000
685183.000000
686114.000000
687041.000000
688029.000000
689071.000000
690055.000000
691059.000000
692078.000000
693071.000000
694022.000000
694991.000000
696015.000000
696999.000000
697957.000000
698955.000000
699998.000000
701023.000000
701990.000000
703018.000000
704036.000000
704988.000000
705943.000000
706903.000000
707884.000000
708824.000000
709802.000000
710859.000000
711918.000000
712887.000000
713844.000000
714834.000000
715828.000000
716785.000000
717738.000000
718732.000000
719724.000000
720709.000000
721638.000000
722602.000000
723574.000000
724530.000000
725436.000000
726351.000000
727292.000000
728274.000000
729240.000000
730238.000000
731261.000000
732256.000000
733166.000000
734060.000000
734955.000000
735864.000000
736744.000000
737656.000000
738652.000000
739660.000000
740647.000000
741669.000000
742669.000000
743651.000000
744545.000000
745420.000000
746279.000000
747134.000000
747986.000000
748919.000000
749972.000000
750993.000000
751959.000000
752935.000000
753901.000000
754808.000000
755685.000000
756587.000000
757495.000000
758397.000000
759277.000000
760180.000000
761113.000000
762034.000000
762909.000000
763801.000000
764702.000000
765595.000000
766456.000000
767323.000000
768184.000000
769031.000000
769887.000000
770787.000000
771735.000000
772650.000000
773534.000000
774433.000000
775325.000000
776213.000000
777073.000000
777944.000000
778821.000000
779659.000000
780457.000000
781281.000000
782192.000000
783072.000000
784012.000000
784987.000000
785967.000000
786905.000000
787812.000000
788724.000000
789648.000000
790562.000000
791493.000000
792523.000000
793610.000000
794594.000000
795578.000000
796590.000000
797558.000000
798480.000000
799491.000000
800552.000000
801606.000000
802620.000000
803670.000000
804740.000000
805716.000000
806705.000000
807708.000000
808691.000000
809630.000000
810628.000000
811672.000000
812645.000000
813626.000000
814633.000000
815642.000000
816589.000000
817535.000000
818523.000000
819532.000000
820551.000000
821523.000000
822528.000000
823522.000000
824515.000000
825424.000000
826373.000000
827337.000000
828322.000000
829278.000000
830292.000000
831385.000000
832514.000000
833592.000000
834602.000000
835654.000000
836721.000000
837687.000000
838597.000000
839451.000000
840361.000000
841362.000000
842329.000000
843361.000000
844454.000000
845537.000000
846564.000000
847546.000000
848600.000000
849723.000000
850829.000000
851881.000000
852943.000000
854035.000000
855056.000000
856011.000000
857035.000000
858133.000000
859260.000000
860360.000000
861382.000000
862429.000000
863445.000000
864499.000000
865492.000000
866536.000000
867630.000000
868744.000000
869760.000000
870740.000000
871621.000000
872469.000000
873372.000000
874332.000000
875289.000000
876316.000000
877438.000000
878466.000000
879410.000000
880291.000000
881117.000000
881968.000000
882889.000000
883819.000000
884742.000000
885877.000000
887037.000000
888095.000000
889084.000000
890116.000000
891189.000000
892195.000000
893181.000000
894236.000000
895362.000000
896458.000000
897522.000000
898686.000000
899821.000000
900847.000000
901897.000000
902927.000000
903946.000000
904944.000000
906065.000000
907257.000000
908381.000000
909525.000000
910641.000000
911663.000000
912622.000000
913602.000000
914575.000000
915541.000000
916472.000000
917497.000000
918594.000000
919644.000000
