ECG (ms)
-6.000000
673.000000
1332.000000
2021.000000
2714.000000
3369.000000
4012.000000
4666.000000
5348.000000
6047.000000
6770.000000
7491.000000
8196.000000
8909.000000
9600.000000
10270.000000
10922.000000
11590.000000
12282.000000
12993.000000
13723.000000
14463.000000
15244.000000
16066.000000
16846.000000
17588.000000
18333.000000
19034.000000
19694.000000
20348.000000
21016.000000
21702.000000
22409.000000
23109.000000
23776.000000
24452.000000
25105.000000
25759.000000
26420.000000
27075.000000
27736.000000
28434.000000
29175.000000
29909.000000
30628.000000
31353.000000
32089.000000
32816.000000
33534.000000
34267.000000
34988.000000
35702.000000
36425.000000
37129.000000
37817.000000
38470.000000
39114.000000
39793.000000
40521.000000
41263.000000
42005.000000
42743.000000
43498.000000
44248.000000
44959.000000
45657.000000
46341.000000
46995.000000
47634.000000
48287.000000
49006.000000
49716.000000
50422.000000
51115.000000
51816.000000
52517.000000
53217.000000
53924.000000
54634.000000
55341.000000
56027.000000
56690.000000
57357.000000
58071.000000
58820.000000
59596.000000
60392.000000
61170.000000
61910.000000
62619.000000
63295.000000
63959.000000
64665.000000
65432.000000
66224.000000
67008.000000
67782.000000
68536.000000
69255.000000
69952.000000
70626.000000
71284.000000
71948.000000
72655.000000
73412.000000
74184.000000
74945.000000
75692.000000
76427.000000
77132.000000
77824.000000
78498.000000
79171.000000
79841.000000
80541.000000
81285.000000
82034.000000
82760.000000
83462.000000
84144.000000
84814.000000
85470.000000
86130.000000
86812.000000
87504.000000
88214.000000
88947.000000
89677.000000
90383.000000
91058.000000
91713.000000
92349.000000
92991.000000
93652.000000
94325.000000
94988.000000
95633.000000
96255.000000
96864.000000
97476.000000
98086.000000
98701.000000
99317.000000
99987.000000
100718.000000
101465.000000
102225.000000
102967.000000
103682.000000
104370.000000
105033.000000
105687.000000
106344.000000
107039.000000
107778.000000
108563.000000
109341.000000
110090.000000
110815.000000
111512.000000
112195.000000
112868.000000
113543.000000
114257.000000
115012.000000
115789.000000
116562.000000
117320.000000
118040.000000
118723.000000
119391.000000
120064.000000
120743.000000
121468.000000
122257.000000
123065.000000
123838.000000
124574.000000
125282.000000
125964.000000
126630.000000
127286.000000
127924.000000
128553.000000
129209.000000
129915.000000
130665.000000
131423.000000
132150.000000
132858.000000
133546.000000
134222.000000
134894.000000
135577.000000
136294.000000
137054.000000
137836.000000
138624.000000
139390.000000
140131.000000
140871.000000
141574.000000
142250.000000
142900.000000
143536.000000
144180.000000
144869.000000
145609.000000
146367.000000
147106.000000
147827.000000
148532.000000
149220.000000
149893.000000
150566.000000
151270.000000
152010.000000
152767.000000
153521.000000
154262.000000
154992.000000
155702.000000
156400.000000
157080.000000
157750.000000
158437.000000
159168.000000
159939.000000
160714.000000
161435.000000
162125.000000
162788.000000
163441.000000
164110.000000
164836.000000
165607.000000
166377.000000
167121.000000
167852.000000
168575.000000
169270.000000
169948.000000
170626.000000
171342.000000
172133.000000
172912.000000
173662.000000
174379.000000
175070.000000
175737.000000
176380.000000
177014.000000
177664.000000
178355.000000
179101.000000
179866.000000
180620.000000
181350.000000
182040.000000
182720.000000
183394.000000
184053.000000
184699.000000
185337.000000
185982.000000
186646.000000
187358.000000
188100.000000
188842.000000
189587.000000
190312.000000
191005.000000
191664.000000
192309.000000
192950.000000
193621.000000
194333.000000
195064.000000
195799.000000
196525.000000
197248.000000
197953.000000
198641.000000
199320.000000
200017.000000
200784.000000
201579.000000
202373.000000
203141.000000
203872.000000
204584.000000
205260.000000
205914.000000
206555.000000
207186.000000
207842.000000
208562.000000
209314.000000
210057.000000
210767.000000
211444.000000
212106.000000
212747.000000
213376.000000
214010.000000
214681.000000
215405.000000
216157.000000
216914.000000
217656.000000
218371.000000
219067.000000
219745.000000
220404.000000
221060.000000
221737.000000
222470.000000
223249.000000
224044.000000
224829.000000
225574.000000
226295.000000
226996.000000
227686.000000
228377.000000
229065.000000
229742.000000
230408.000000
231068.000000
231756.000000
232475.000000
233237.000000
233997.000000
234755.000000
235494.000000
236219.000000
236931.000000
237637.000000
238324.000000
239001.000000
239657.000000
240308.000000
240990.000000
241721.000000
242494.000000
243271.000000
244037.000000
244776.000000
245488.000000
246189.000000
246869.000000
247530.000000
248188.000000
248835.000000
249505.000000
250228.000000
250992.000000
251749.000000
252479.000000
253177.000000
253844.000000
254506.000000
255167.000000
255822.000000
256470.000000
257121.000000
257814.000000
258539.000000
259277.000000
260011.000000
260737.000000
261435.000000
262118.000000
262790.000000
263443.000000
264098.000000
264744.000000
265394.000000
266065.000000
266768.000000
267493.000000
268250.000000
269015.000000
269770.000000
270493.000000
271199.000000
271891.000000
272569.000000
273233.000000
273882.000000
274533.000000
275212.000000
275914.000000
276639.000000
277355.000000
278045.000000
278711.000000
279359.000000
279983.000000
280593.000000
281203.000000
281810.000000
282421.000000
283022.000000
283621.000000
284246.000000
284913.000000
285605.000000
286299.000000
286974.000000
287623.000000
288265.000000
288906.000000
289550.000000
290191.000000
290852.000000
291564.000000
292330.000000
293122.000000
293894.000000
294609.000000
295285.000000
295942.000000
296610.000000
297318.000000
298073.000000
298844.000000
299598.000000
300309.000000
301018.000000
301734.000000
302439.000000
303135.000000
303827.000000
304493.000000
305142.000000
305799.000000
306490.000000
307194.000000
307894.000000
308570.000000
309226.000000
309865.000000
310514.000000
311170.000000
311841.000000
312538.000000
313265.000000
314032.000000
314789.000000
315531.000000
316233.000000
316909.000000
317560.000000
318197.000000
318840.000000
319502.000000
320208.000000
320957.000000
321717.000000
322474.000000
323199.000000
323884.000000
324543.000000
325186.000000
325823.000000
326483.000000
327225.000000
328021.000000
328822.000000
329611.000000
330394.000000
331157.000000
331867.000000
332545.000000
333209.000000
333855.000000
334518.000000
335252.000000
336055.000000
336856.000000
337640.000000
338405.000000
339160.000000
339892.000000
340583.000000
341240.000000
341882.000000
342528.000000
343223.000000
343972.000000
344719.000000
345455.000000
346175.000000
346874.000000
347550.000000
348213.000000
348865.000000
349525.000000
350239.000000
351014.000000
351798.000000
352551.000000
353273.000000
353973.000000
354666.000000
355347.000000
356009.000000
356657.000000
357305.000000
358008.000000
358755.000000
359514.000000
360276.000000
361024.000000
361755.000000
362445.000000
363110.000000
363766.000000
364435.000000
365170.000000
365959.000000
366760.000000
367533.000000
368241.000000
368918.000000
369579.000000
370247.000000
370958.000000
371700.000000
372440.000000
373171.000000
373898.000000
374622.000000
375318.000000
376035.000000
376752.000000
377439.000000
378086.000000
378708.000000
379312.000000
379905.000000
380499.000000
381130.000000
381801.000000
382524.000000
383246.000000
383947.000000
384623.000000
385275.000000
385903.000000
386512.000000
387115.000000
387722.000000
388336.000000
388996.000000
389700.000000
390429.000000
391147.000000
391844.000000
392529.000000
393190.000000
393843.000000
394482.000000
395116.000000
395761.000000
396465.000000
397248.000000
398044.000000
398785.000000
399460.000000
400097.000000
400713.000000
401328.000000
401934.000000
402534.000000
403127.000000
403728.000000
404358.000000
405044.000000
405767.000000
406509.000000
407220.000000
407921.000000
408605.000000
409258.000000
409887.000000
410502.000000
411120.000000
411778.000000
412516.000000
413280.000000
414048.000000
414787.000000
415485.000000
416158.000000
416805.000000
417436.000000
418079.000000
418747.000000
419453.000000
420180.000000
420909.000000
421616.000000
422293.000000
422941.000000
423571.000000
424202.000000
424864.000000
425581.000000
426338.000000
427083.000000
427813.000000
428542.000000
429241.000000
429918.000000
430590.000000
431246.000000
431887.000000
432531.000000
433228.000000
433966.000000
434725.000000
435458.000000
436189.000000
436921.000000
437647.000000
438364.000000
439052.000000
439713.000000
440355.000000
440995.000000
441637.000000
442317.000000
443040.000000
443761.000000
444473.000000
445169.000000
445834.000000
446478.000000
447102.000000
447711.000000
448325.000000
448986.000000
449732.000000
450494.000000
451235.000000
451967.000000
452656.000000
453330.000000
453978.000000
454608.000000
455232.000000
455866.000000
456547.000000
457271.000000
458004.000000
458738.000000
459450.000000
460147.000000
460820.000000
461479.000000
462114.000000
462735.000000
463356.000000
464019.000000
464730.000000
465448.000000
466156.000000
466844.000000
467521.000000
468181.000000
468837.000000
469485.000000
470126.000000
470775.000000
471440.000000
472159.000000
472907.000000
473660.000000
474399.000000
475120.000000
475822.000000
476488.000000
477133.000000
477761.000000
478372.000000
478981.000000
479604.000000
480281.000000
481027.000000
481798.000000
482554.000000
483270.000000
483969.000000
484647.000000
485306.000000
485953.000000
486581.000000
487200.000000
487827.000000
488495.000000
489194.000000
489903.000000
490593.000000
491276.000000
491939.000000
492590.000000
493230.000000
493858.000000
494475.000000
495096.000000
495743.000000
496423.000000
497117.000000
497806.000000
498478.000000
499126.000000
499767.000000
500409.000000
501051.000000
501677.000000
502290.000000
502916.000000
503574.000000
504254.000000
504941.000000
505600.000000
506239.000000
506873.000000
507499.000000
508112.000000
508704.000000
509286.000000
509860.000000
510446.000000
511062.000000
511715.000000
512377.000000
513044.000000
513716.000000
514377.000000
515036.000000
515697.000000
516376.000000
517041.000000
517680.000000
518303.000000
518927.000000
519571.000000
520227.000000
520898.000000
521551.000000
522176.000000
522788.000000
523393.000000
524002.000000
524608.000000
525210.000000
525813.000000
526432.000000
527092.000000
527792.000000
528544.000000
529318.000000
530087.000000
530854.000000
531606.000000
532336.000000
533052.000000
533735.000000
534420.000000
535160.000000
535940.000000
536715.000000
537504.000000
538297.000000
539078.000000
539840.000000
540583.000000
541305.000000
542022.000000
542755.000000
543528.000000
544293.000000
545043.000000
545776.000000
546477.000000
547142.000000
547791.000000
548452.000000
549158.000000
549899.000000
550645.000000
551389.000000
552122.000000
552835.000000
553513.000000
554191.000000
554845.000000
555486.000000
556160.000000
556886.000000
557625.000000
558353.000000
559063.000000
559758.000000
560440.000000
561100.000000
561744.000000
562381.000000
563032.000000
563751.000000
564507.000000
565257.000000
566001.000000
566731.000000
567443.000000
568127.000000
568782.000000
569419.000000
570070.000000
570778.000000
571568.000000
572355.000000
573115.000000
573852.000000
574568.000000
575268.000000
575963.000000
576635.000000
577296.000000
577956.000000
578657.000000
579389.000000
580124.000000
580855.000000
581572.000000
582271.000000
582944.000000
583599.000000
584235.000000
584860.000000
585496.000000
586171.000000
586892.000000
587624.000000
588341.000000
589038.000000
589726.000000
590398.000000
591062.000000
591712.000000
592347.000000
592993.000000
593690.000000
594437.000000
595195.000000
595945.000000
596678.000000
597402.000000
598105.000000
598790.000000
599462.000000
600120.000000
600782.000000
601479.000000
602206.000000
602941.000000
603681.000000
604407.000000
605121.000000
605830.000000
606525.000000
607211.000000
607900.000000
608590.000000
609302.000000
610037.000000
610793.000000
611538.000000
612263.000000
612955.000000
613626.000000
614283.000000
614931.000000
615576.000000
616270.000000
617009.000000
617766.000000
618527.000000
619263.000000
619990.000000
620691.000000
621362.000000
622018.000000
622682.000000
623389.000000
624124.000000
624855.000000
625566.000000
626267.000000
626951.000000
627627.000000
628298.000000
628993.000000
629716.000000
630456.000000
631198.000000
631930.000000
632632.000000
633306.000000
633960.000000
634605.000000
635264.000000
635959.000000
636686.000000
637413.000000
638134.000000
638849.000000
639557.000000
640258.000000
640945.000000
641623.000000
642329.000000
643063.000000
643805.000000
644541.000000
645256.000000
645950.000000
646628.000000
647305.000000
647987.000000
648688.000000
649391.000000
650083.000000
650761.000000
651418.000000
652058.000000
652689.000000
653315.000000
653970.000000
654655.000000
655336.000000
656001.000000
656664.000000
657329.000000
657992.000000
658650.000000
659292.000000
659929.000000
660582.000000
661259.000000
661955.000000
662632.000000
663274.000000
663902.000000
664513.000000
665118.000000
665720.000000
666326.000000
666953.000000
667633.000000
668351.000000
669070.000000
669774.000000
670436.000000
671072.000000
671699.000000
672320.000000
672938.000000
673546.000000
674147.000000
674773.000000
675440.000000
676138.000000
676823.000000
677506.000000
678167.000000
678830.000000
679495.000000
680162.000000
680818.000000
681485.000000
682192.000000
682925.000000
683684.000000
684432.000000
685161.000000
685852.000000
686517.000000
687162.000000
687803.000000
688457.000000
689188.000000
689961.000000
690740.000000
691523.000000
692288.000000
693023.000000
693743.000000
694460.000000
695183.000000
695911.000000
696636.000000
697343.000000
698037.000000
698705.000000
699372.000000
700074.000000
700798.000000
701535.000000
702261.000000
702979.000000
703697.000000
704381.000000
705059.000000
705722.000000
706374.000000
707045.000000
707763.000000
708505.000000
709239.000000
709965.000000
710675.000000
711370.000000
712046.000000
712712.000000
713388.000000
714099.000000
714827.000000
715557.000000
716293.000000
716999.000000
717690.000000
718368.000000
719043.000000
719747.000000
720468.000000
721203.000000
721917.000000
722622.000000
723290.000000
723950.000000
724611.000000
725278.000000
725951.000000
726663.000000
727409.000000
728164.000000
728913.000000
729645.000000
730363.000000
731063.000000
731757.000000
732450.000000
733135.000000
733818.000000
734536.000000
735295.000000
736062.000000
736822.000000
737565.000000
738274.000000
738958.000000
739626.000000
740314.000000
741041.000000
741791.000000
742557.000000
743309.000000
744038.000000
744753.000000
745449.000000
746126.000000
746811.000000
747522.000000
748246.000000
748974.000000
749688.000000
750382.000000
751071.000000
751738.000000
752377.000000
753010.000000
753684.000000
754391.000000
755115.000000
755838.000000
756549.000000
757230.000000
757903.000000
758572.000000
759226.000000
759909.000000
760625.000000
761362.000000
762098.000000
762828.000000
763537.000000
764221.000000
764868.000000
765495.000000
766125.000000
766813.000000
767557.000000
768314.000000
769085.000000
769847.000000
770597.000000
771309.000000
771998.000000
772678.000000
773367.000000
774090.000000
774818.000000
775530.000000
776229.000000
776918.000000
777607.000000
778283.000000
778971.000000
779695.000000
780442.000000
781179.000000
781901.000000
782614.000000
783305.000000
783986.000000
784658.000000
785318.000000
786004.000000
786735.000000
787473.000000
788190.000000
788884.000000
789542.000000
790172.000000
790782.000000
791381.000000
791979.000000
792570.000000
793155.000000
793751.000000
794377.000000
795059.000000
795777.000000
796491.000000
797192.000000
797880.000000
798553.000000
799204.000000
799839.000000
800468.000000
801121.000000
801831.000000
802590.000000
803364.000000
804141.000000
804910.000000
805649.000000
806357.000000
807024.000000
807662.000000
808288.000000
808936.000000
809640.000000
810379.000000
811142.000000
811908.000000
812661.000000
813386.000000
814088.000000
814771.000000
815443.000000
816098.000000
816779.000000
817508.000000
818263.000000
819013.000000
819742.000000
820452.000000
821152.000000
821829.000000
822495.000000
823148.000000
823800.000000
824469.000000
825172.000000
825948.000000
826749.000000
827532.000000
828286.000000
829026.000000
829742.000000
830433.000000
831109.000000
831778.000000
832485.000000
833252.000000
834030.000000
834801.000000
835548.000000
836281.000000
837004.000000
837702.000000
838379.000000
839043.000000
839715.000000
840426.000000
841169.000000
841915.000000
842655.000000
843371.000000
844073.000000
844761.000000
845438.000000
846099.000000
846748.000000
847428.000000
848142.000000
848881.000000
849624.000000
850353.000000
851071.000000
851793.000000
852485.000000
853171.000000
853847.000000
854524.000000
855208.000000
855947.000000
856693.000000
857434.000000
858160.000000
858871.000000
859574.000000
860265.000000
860956.000000
861642.000000
862337.000000
863059.000000
863839.000000
864607.000000
865362.000000
866087.000000
866770.000000
867419.000000
868048.000000
868668.000000
869298.000000
870000.000000
870784.000000
871576.000000
872361.000000
873141.000000
873873.000000
874571.000000
875241.000000
875894.000000
876540.000000
877213.000000
877962.000000
878744.000000
879541.000000
880327.000000
881105.000000
881876.000000
882619.000000
883335.000000
884022.000000
884684.000000
885346.000000
886050.000000
886815.000000
887590.000000
888352.000000
889095.000000
889816.000000
890516.000000
891222.000000
891928.000000
892620.000000
893285.000000
893949.000000
894639.000000
895350.000000
896103.000000
896866.000000
897620.000000
898344.000000
899044.000000
899728.000000
900396.000000
901068.000000
901722.000000
902376.000000
903021.000000
903655.000000
904282.000000
904916.000000
905570.000000
906267.000000
906980.000000
907676.000000
908350.000000
908998.000000
909627.000000
910254.000000
910887.000000
911538.000000
912217.000000
912904.000000
913574.000000
914239.000000
914925.000000
915647.000000
916391.000000
917133.000000
917849.000000
918548.000000
919230.000000
919904.000000
920584.000000
921273.000000
921953.000000
922612.000000
923254.000000
923904.000000
924592.000000
925338.000000
926113.000000
926877.000000
927618.000000
928334.000000
929027.000000
929697.000000
930352.000000
931000.000000
931689.000000
932494.000000
933319.000000
934133.000000
934938.000000
935715.000000
936471.000000
937203.000000
937915.000000
938617.000000
939314.000000
940006.000000
940719.000000
941507.000000
942301.000000
943061.000000
943798.000000
944520.000000
945213.000000
945897.000000
946602.000000
947311.000000
948010.000000
948741.000000
949523.000000
950326.000000
951091.000000
951838.000000
952570.000000
953279.000000
953980.000000
954666.000000
955339.000000
956003.000000
956686.000000
957414.000000
958180.000000
958964.000000
959708.000000
960432.000000
961149.000000
961861.000000
962564.000000
963262.000000
963958.000000
964640.000000
965323.000000
966050.000000
966801.000000
967558.000000
968302.000000
969026.000000
969744.000000
970454.000000
971166.000000
971909.000000
972648.000000
973356.000000
974050.000000
974773.000000
975509.000000
976240.000000
976970.000000
977698.000000
978408.000000
979093.000000
979760.000000
980434.000000
981145.000000
981907.000000
982663.000000
983403.000000
984149.000000
984896.000000
985626.000000
986331.000000
987022.000000
987705.000000
988443.000000
989202.000000
989959.000000
990693.000000
991416.000000
992117.000000
992790.000000
993460.000000
994131.000000
994808.000000
995508.000000
996175.000000
996821.000000
997469.000000
998122.000000
998786.000000
999439.000000
1000115.000000
1000850.000000
1001601.000000
1002353.000000
1003085.000000
1003781.000000
1004457.000000
1005105.000000
1005733.000000
1006363.000000
1007068.000000
1007850.000000
1008658.000000
1009462.000000
1010259.000000
1011019.000000
1011762.000000
1012498.000000
1013225.000000
1013940.000000
1014628.000000
1015300.000000
1015972.000000
1016672.000000
1017429.000000
1018206.000000
1018981.000000
1019734.000000
1020452.000000
1021151.000000
1021854.000000
1022548.000000
1023243.000000
1023940.000000
1024610.000000
1025266.000000
1025943.000000
1026700.000000
1027485.000000
1028252.000000
1028974.000000
1029672.000000
1030348.000000
1031020.000000
1031708.000000
1032411.000000
1033122.000000
1033816.000000
1034483.000000
1035163.000000
1035902.000000
1036678.000000
1037443.000000
1038186.000000
1038905.000000
1039615.000000
1040315.000000
1040995.000000
1041664.000000
1042351.000000
1043093.000000
1043865.000000
1044657.000000
1045439.000000
1046199.000000
1046946.000000
1047654.000000
1048329.000000
1048982.000000
1049658.000000
1050412.000000
1051226.000000
1052032.000000
1052838.000000
1053646.000000
1054440.000000
1055199.000000
1055924.000000
1056636.000000
1057334.000000
1058055.000000
1058803.000000
1059575.000000
1060356.000000
1061122.000000
1061864.000000
1062581.000000
1063274.000000
1063946.000000
1064624.000000
1065334.000000
1066094.000000
1066842.000000
1067582.000000
1068299.000000
1069001.000000
1069705.000000
1070442.000000
1071191.000000
1071940.000000
1072651.000000
1073340.000000
1074004.000000
1074679.000000
1075405.000000
1076123.000000
1076806.000000
1077460.000000
1078106.000000
1078736.000000
1079366.000000
1079983.000000
1080600.000000
1081240.000000
1081965.000000
1082760.000000
1083572.000000
1084382.000000
1085178.000000
1085968.000000
1086746.000000
1087490.000000
1088184.000000
1088856.000000
1089517.000000
1090176.000000
1090879.000000
1091625.000000
1092385.000000
1093139.000000
1093855.000000
1094539.000000
1095191.000000
1095821.000000
1096448.000000
1097083.000000
1097735.000000
1098380.000000
1099006.000000
1099629.000000
1100274.000000
1100958.000000
1101680.000000
1102415.000000
1103139.000000
1103834.000000
1104506.000000
1105165.000000
1105819.000000
1106474.000000
1107139.000000
1107854.000000
1108610.000000
1109401.000000
1110218.000000
1111029.000000
1111836.000000
1112620.000000
1113389.000000
1114114.000000
1114808.000000
1115509.000000
1116223.000000
1116955.000000
1117687.000000
1118427.000000
1119199.000000
1119984.000000
1120758.000000
1121507.000000
1122233.000000
1122927.000000
1123602.000000
1124301.000000
1125055.000000
1125835.000000
1126607.000000
1127361.000000
1128076.000000
1128766.000000
1129473.000000
1130214.000000
1130960.000000
1131688.000000
1132396.000000
1133095.000000
1133766.000000
1134430.000000
1135104.000000
1135835.000000
1136633.000000
1137432.000000
1138206.000000
1138937.000000
1139629.000000
1140302.000000
1140974.000000
1141666.000000
1142372.000000
1143100.000000
1143829.000000
1144550.000000
1145257.000000
1145948.000000
1146620.000000
1147261.000000
1147906.000000
1148593.000000
1149331.000000
1150079.000000
1150788.000000
1151468.000000
1152142.000000
1152793.000000
1153437.000000
1154096.000000
1154807.000000
1155570.000000
1156394.000000
1157203.000000
1158006.000000
1158790.000000
1159556.000000
1160288.000000
1160981.000000
1161642.000000
1162287.000000
1162948.000000
1163643.000000
1164368.000000
1165095.000000
1165808.000000
1166520.000000
1167211.000000
1167888.000000
1168546.000000
1169182.000000
1169811.000000
1170454.000000
1171144.000000
1171854.000000
1172557.000000
1173250.000000
1173936.000000
1174618.000000
1175307.000000
1175983.000000
1176649.000000
1177300.000000
1177946.000000
1178621.000000
1179318.000000
1180005.000000
1180678.000000
1181342.000000
1182005.000000
1182692.000000
1183441.000000
1184199.000000
1184926.000000
1185618.000000
1186282.000000
1186925.000000
1187556.000000
1188210.000000
1188936.000000
1189693.000000
1190446.000000
1191205.000000
1191935.000000
1192651.000000
1193368.000000
1194092.000000
1194823.000000
1195531.000000
1196219.000000
1196877.000000
1197547.000000
1198251.000000
1198989.000000
1199738.000000
1200475.000000
1201205.000000
1201928.000000
1202634.000000
1203330.000000
1204012.000000
1204701.000000
1205445.000000
1206188.000000
1206924.000000
1207654.000000
1208379.000000
1209091.000000
1209791.000000
1210485.000000
1211166.000000
1211840.000000
1212570.000000
1213331.000000
1214101.000000
1214855.000000
1215577.000000
1216271.000000
1216944.000000
1217607.000000
1218271.000000
1218956.000000
1219657.000000
1220349.000000
1221068.000000
1221742.000000
1222387.000000
1223026.000000
1223668.000000
1224304.000000
1224934.000000
1225549.000000
1226160.000000
1226777.000000
1227422.000000
1228117.000000
1228821.000000
1229529.000000
1230234.000000
1230939.000000
1231629.000000
1232315.000000
1233034.000000
1233779.000000
1234529.000000
1235260.000000
1235982.000000
1236691.000000
1237398.000000
1238105.000000
1238847.000000
1239614.000000
1240381.000000
1241134.000000
1241847.000000
1242541.000000
1243264.000000
1244001.000000
1244718.000000
1245418.000000
1246126.000000
1246821.000000
1247497.000000
1248191.000000
1248904.000000
1249650.000000
1250395.000000
1251104.000000
1251765.000000
1252401.000000
1253026.000000
1253685.000000
1254392.000000
1255133.000000
1255876.000000
1256609.000000
1257324.000000
1258042.000000
1258768.000000
1259505.000000
1260247.000000
1260989.000000
1261731.000000
1262457.000000
1263191.000000
1263927.000000
1264657.000000
1265369.000000
1266049.000000
1266699.000000
1267342.000000
1268014.000000
1268722.000000
1269432.000000
1270125.000000
1270806.000000
1271463.000000
1272121.000000
1272796.000000
1273498.000000
1274199.000000
1274904.000000
1275611.000000
1276349.000000
1277108.000000
1277862.000000
1278593.000000
1279283.000000
1279948.000000
1280605.000000
1281285.000000
1281984.000000
1282689.000000
1283386.000000
1284090.000000
1284815.000000
1285552.000000
1286266.000000
1286986.000000
1287706.000000
1288430.000000
1289160.000000
1289885.000000
1290604.000000
1291311.000000
1292001.000000
1292677.000000
1293344.000000
1293990.000000
1294629.000000
1295264.000000
1295895.000000
1296519.000000
1297146.000000
1297795.000000
1298456.000000
1299109.000000
1299733.000000
1300343.000000
1300952.000000
1301587.000000
1302259.000000
1302933.000000
1303615.000000
1304291.000000
1304962.000000
1305614.000000
1306284.000000
1306988.000000
1307718.000000
1308484.000000
1309253.000000
1310004.000000
1310698.000000
1311366.000000
1312012.000000
1312633.000000
1313241.000000
1313852.000000
1314481.000000
1315131.000000
1315816.000000
1316522.000000
1317206.000000
1317863.000000
1318502.000000
1319137.000000
1319787.000000
1320452.000000
1321133.000000
1321815.000000
1322489.000000
1323147.000000
1323805.000000
1324490.000000
1325192.000000
1325881.000000
1326550.000000
1327206.000000
1327871.000000
1328540.000000
1329223.000000
1329914.000000
1330595.000000
1331273.000000
1331976.000000
1332699.000000
1333420.000000
1334132.000000
1334812.000000
1335485.000000
1336160.000000
1336835.000000
1337500.000000
1338173.000000
1338854.000000
1339540.000000
1340219.000000
1340894.000000
1341560.000000
1342220.000000
1342862.000000
1343491.000000
1344131.000000
1344791.000000
1345460.000000
1346138.000000
1346803.000000
1347470.000000
1348133.000000
1348789.000000
1349446.000000
1350128.000000
1350848.000000
1351585.000000
1352316.000000
1353022.000000
1353714.000000
1354411.000000
1355120.000000
1355814.000000
1356500.000000
1357165.000000
1357814.000000
1358476.000000
1359170.000000
1359894.000000
1360628.000000
1361337.000000
1362016.000000
1362688.000000
1363383.000000
1364087.000000
1364795.000000
1365502.000000
1366180.000000
1366835.000000
1367475.000000
1368130.000000
1368809.000000
1369511.000000
1370219.000000
1370908.000000
1371585.000000
1372251.000000
1372898.000000
1373531.000000
1374152.000000
1374774.000000
1375432.000000
1376140.000000
1376863.000000
1377579.000000
1378281.000000
1378942.000000
1379569.000000
1380176.000000
1380773.000000
1381372.000000
1381988.000000
1382640.000000
1383313.000000
1384047.000000
1384811.000000
1385602.000000
1386356.000000
1387096.000000
1387838.000000
1388573.000000
1389288.000000
1389969.000000
1390636.000000
1391322.000000
1392043.000000
1392774.000000
1393459.000000
1394130.000000
1394807.000000
1395499.000000
1396181.000000
1396847.000000
1397524.000000
1398215.000000
1398921.000000
1399624.000000
1400298.000000
1400951.000000
1401593.000000
1402256.000000
1402933.000000
1403609.000000
1404279.000000
1404935.000000
1405583.000000
1406226.000000
1406850.000000
1407489.000000
1408148.000000
1408817.000000
1409487.000000
1410142.000000
1410796.000000
1411435.000000
1412071.000000
1412712.000000
1413368.000000
1414053.000000
1414742.000000
1415436.000000
1416124.000000
1416805.000000
1417480.000000
1418128.000000
1418756.000000
1419375.000000
1420010.000000
1420672.000000
1421355.000000
1422047.000000
1422734.000000
1423402.000000
1424067.000000
1424738.000000
1425409.000000
1426084.000000
1426763.000000
1427452.000000
1428161.000000
1428881.000000
1429592.000000
1430279.000000
1430948.000000
1431594.000000
1432254.000000
1432933.000000
1433616.000000
1434302.000000
1434972.000000
1435623.000000
1436279.000000
1436945.000000
1437625.000000
1438309.000000
1438987.000000
1439668.000000
1440353.000000
1441043.000000
1441710.000000
1442343.000000
1442961.000000
1443600.000000
1444277.000000
1444964.000000
1445654.000000
1446334.000000
1446988.000000
1447632.000000
1448261.000000
1448875.000000
1449507.000000
1450188.000000
1450915.000000
1451672.000000
1452425.000000
1453149.000000
1453828.000000
1454491.000000
1455155.000000
1455837.000000
1456543.000000
1457261.000000
1457962.000000
1458652.000000
1459319.000000
1459963.000000
1460601.000000
1461256.000000
1461936.000000
1462632.000000
1463317.000000
1463985.000000
1464646.000000
1465309.000000
1465979.000000
1466637.000000
1467295.000000
1467966.000000
1468669.000000
1469380.000000
1470083.000000
1470770.000000
1471445.000000
1472126.000000
1472809.000000
1473482.000000
1474147.000000
1474805.000000
1475466.000000
1476145.000000
1476827.000000
1477507.000000
1478171.000000
1478822.000000
1479485.000000
1480169.000000
1480853.000000
1481510.000000
1482146.000000
1482784.000000
1483435.000000
1484101.000000
1484779.000000
1485443.000000
1486097.000000
1486747.000000
1487407.000000
1488082.000000
1488775.000000
1489447.000000
1490104.000000
1490738.000000
1491364.000000
1492002.000000
1492660.000000
1493323.000000
1493972.000000
1494584.000000
1495181.000000
1495773.000000
1496374.000000
1496967.000000
1497566.000000
1498192.000000
1498845.000000
1499510.000000
1500176.000000
1500819.000000
1501445.000000
1502051.000000
1502645.000000
1503239.000000
1503854.000000
1504470.000000
1505079.000000
1505675.000000
1506264.000000
1506848.000000
1507436.000000
1508038.000000
1508655.000000
1509296.000000
1509959.000000
1510676.000000
1511439.000000
1512180.000000
1512925.000000
1513692.000000
1514454.000000
1515182.000000
1515883.000000
1516567.000000
1517220.000000
1517911.000000
1518625.000000
1519336.000000
1520033.000000
1520714.000000
1521412.000000
1522145.000000
1522917.000000
1523682.000000
1524438.000000
1525194.000000
1525963.000000
1526725.000000
1527466.000000
1528218.000000
1528976.000000
1529734.000000
1530484.000000
1531232.000000
1531988.000000
1532751.000000
1533499.000000
1534238.000000
1534996.000000
1535750.000000
1536480.000000
1537208.000000
1537952.000000
1538681.000000
1539388.000000
1540079.000000
1540790.000000
1541531.000000
1542259.000000
1542955.000000
1543650.000000
1544359.000000
1545078.000000
1545797.000000
1546499.000000
1547186.000000
1547874.000000
1548579.000000
1549305.000000
1550030.000000
1550724.000000
1551395.000000
1552081.000000
1552801.000000
1553515.000000
1554200.000000
1554866.000000
1555518.000000
1556177.000000
1556843.000000
1557527.000000
1558215.000000
1558900.000000
1559624.000000
1560377.000000
1561131.000000
1561850.000000
1562545.000000
1563243.000000
1563937.000000
1564622.000000
1565292.000000
1565954.000000
1566627.000000
1567314.000000
1568015.000000
1568700.000000
1569362.000000
1570038.000000
1570733.000000
1571436.000000
1572126.000000
1572802.000000
1573488.000000
1574191.000000
1574899.000000
1575579.000000
1576250.000000
1576927.000000
1577629.000000
1578360.000000
1579071.000000
1579748.000000
1580405.000000
1581056.000000
1581679.000000
1582291.000000
1582899.000000
1583515.000000
1584130.000000
1584744.000000
1585366.000000
1586011.000000
1586664.000000
1587301.000000
1587940.000000
1588571.000000
1589225.000000
1589888.000000
1590569.000000
1591229.000000
1591877.000000
1592502.000000
1593105.000000
1593697.000000
1594281.000000
1594890.000000
1595556.000000
1596278.000000
1597020.000000
1597753.000000
1598481.000000
1599176.000000
1599847.000000
1600518.000000
1601188.000000
1601864.000000
1602528.000000
1603188.000000
1603876.000000
1604578.000000
1605278.000000
1605963.000000
1606641.000000
1607326.000000
1608047.000000
1608784.000000
1609515.000000
1610201.000000
1610867.000000
1611530.000000
1612186.000000
1612840.000000
1613484.000000
1614127.000000
1614790.000000
1615481.000000
1616170.000000
1616853.000000
1617545.000000
1618244.000000
1618933.000000
1619599.000000
1620273.000000
1620962.000000
1621656.000000
1622333.000000
1623010.000000
1623697.000000
1624384.000000
1625068.000000
1625734.000000
1626404.000000
1627084.000000
1627786.000000
1628467.000000
1629134.000000
1629808.000000
1630503.000000
1631194.000000
1631862.000000
1632501.000000
1633120.000000
1633730.000000
1634357.000000
1635012.000000
1635692.000000
1636384.000000
1637052.000000
1637717.000000
1638398.000000
1639087.000000
1639784.000000
1640464.000000
1641145.000000
1641853.000000
1642578.000000
1643280.000000
1643968.000000
1644653.000000
1645345.000000
1646038.000000
1646714.000000
1647376.000000
1648052.000000
1648731.000000
1649390.000000
1650029.000000
1650659.000000
1651307.000000
1652002.000000
1652696.000000
1653356.000000
1653998.000000
1654630.000000
1655263.000000
1655907.000000
1656536.000000
1657161.000000
1657779.000000
1658437.000000
1659133.000000
1659834.000000
1660522.000000
1661220.000000
1661921.000000
1662621.000000
1663295.000000
1663956.000000
1664627.000000
1665316.000000
1666009.000000
1666694.000000
1667410.000000
1668149.000000
1668875.000000
1669581.000000
1670274.000000
1670973.000000
1671684.000000
1672381.000000
1673058.000000
1673735.000000
1674427.000000
1675111.000000
1675777.000000
1676429.000000
1677079.000000
1677761.000000
1678478.000000
1679169.000000
1679844.000000
1680496.000000
1681171.000000
1681885.000000
1682611.000000
1683333.000000
1684044.000000
1684728.000000
1685417.000000
1686110.000000
1686806.000000
1687501.000000
1688189.000000
1688888.000000
1689608.000000
1690346.000000
1691070.000000
1691785.000000
1692513.000000
1693218.000000
1693894.000000
1694549.000000
1695191.000000
1695839.000000
1696490.000000
1697147.000000
1697800.000000
1698448.000000
1699121.000000
1699814.000000
1700482.000000
1701130.000000
1701759.000000
1702404.000000
1703052.000000
1703702.000000
1704343.000000
1704982.000000
1705611.000000
1706227.000000
1706828.000000
1707441.000000
1708085.000000
1708768.000000
1709471.000000
1710172.000000
1710829.000000
1711450.000000
1712059.000000
1712659.000000
1713270.000000
1713883.000000
1714500.000000
1715111.000000
1715721.000000
1716352.000000
1717016.000000
1717717.000000
1718429.000000
1719114.000000
1719791.000000
1720443.000000
1721082.000000
1721708.000000
1722353.000000
1723037.000000
1723757.000000
1724473.000000
1725166.000000
1725838.000000
1726522.000000
1727224.000000
1727950.000000
1728679.000000
1729396.000000
1730072.000000
1730707.000000
1731341.000000
1731988.000000
1732663.000000
1733359.000000
1734052.000000
1734732.000000
1735392.000000
1736062.000000
1736748.000000
1737401.000000
1738041.000000
1738676.000000
1739312.000000
1739954.000000
1740600.000000
1741256.000000
1741911.000000
1742562.000000
1743206.000000
1743838.000000
1744460.000000
1745083.000000
1745705.000000
1746316.000000
1746919.000000
1747521.000000
1748127.000000
1748733.000000
1749340.000000
1749943.000000
1750568.000000
1751229.000000
1751925.000000
1752620.000000
1753314.000000
1754012.000000
1754720.000000
1755432.000000
1756136.000000
1756820.000000
1757521.000000
1758229.000000
1758937.000000
1759622.000000
1760285.000000
1760942.000000
1761572.000000
1762186.000000
1762785.000000
1763376.000000
1763965.000000
1764545.000000
1765119.000000
1765696.000000
1766299.000000
1766934.000000
1767563.000000
1768184.000000
1768813.000000
1769452.000000
1770085.000000
1770719.000000
1771351.000000
1771994.000000
1772674.000000
1773373.000000
1774057.000000
1774717.000000
1775384.000000
1776076.000000
1776773.000000
1777452.000000
1778130.000000
1778829.000000
1779537.000000
1780225.000000
1780892.000000
1781557.000000
1782248.000000
1782956.000000
1783648.000000
1784318.000000
1784965.000000
1785624.000000
1786303.000000
1786983.000000
1787650.000000
1788288.000000
1788942.000000
1789625.000000
1790334.000000
1791039.000000
1791719.000000
1792373.000000
1793037.000000
1793719.000000
1794408.000000
1795081.000000
1795732.000000
1796380.000000
1797040.000000
1797706.000000
