ECG (ms)
492.000000
1318.000000
2062.000000
2771.000000
3483.000000
4210.000000
4976.000000
5748.000000
6510.000000
7251.000000
7993.000000
8759.000000
9538.000000
10310.000000
11092.000000
11837.000000
12545.000000
13223.000000
13924.000000
14673.000000
15485.000000
16295.000000
17067.000000
17812.000000
18540.000000
19269.000000
20011.000000
20770.000000
21519.000000
22246.000000
23001.000000
23804.000000
24628.000000
25449.000000
26222.000000
26953.000000
27673.000000
28395.000000
29133.000000
29925.000000
30679.000000
31427.000000
32210.000000
33034.000000
33845.000000
34621.000000
35365.000000
36113.000000
36872.000000
37651.000000
38428.000000
39197.000000
39945.000000
40704.000000
41468.000000
42248.000000
43027.000000
43775.000000
44486.000000
45197.000000
45928.000000
46713.000000
47523.000000
48140.000000
49069.000000
49745.000000
50399.000000
51065.000000
51794.000000
52586.000000
53391.000000
54205.000000
55058.000000
55942.000000
56808.000000
57587.000000
58342.000000
59088.000000
59849.000000
60647.000000
61460.000000
62258.000000
63029.000000
63750.000000
64473.000000
65215.000000
65979.000000
66774.000000
67544.000000
68274.000000
68991.000000
69710.000000
70457.000000
71212.000000
71984.000000
72724.000000
73448.000000
74173.000000
74929.000000
75691.000000
76455.000000
77248.000000
78016.000000
78768.000000
79489.000000
80195.000000
80901.000000
81610.000000
82308.000000
82975.000000
83659.000000
84352.000000
85007.000000
85693.000000
86436.000000
87165.000000
87861.000000
88526.000000
89208.000000
89913.000000
90667.000000
91428.000000
92160.000000
92847.000000
93557.000000
94288.000000
95041.000000
95796.000000
96498.000000
97184.000000
97896.000000
98669.000000
99463.000000
100273.000000
101060.000000
101821.000000
102532.000000
103244.000000
103967.000000
104739.000000
105546.000000
106360.000000
107122.000000
107849.000000
108604.000000
109355.000000
110126.000000
110900.000000
111638.000000
112371.000000
113111.000000
113872.000000
114645.000000
115386.000000
116108.000000
116850.000000
117606.000000
118370.000000
119100.000000
119799.000000
120503.000000
121223.000000
121989.000000
122725.000000
123435.000000
124175.000000
124930.000000
125698.000000
126454.000000
127182.000000
127871.000000
128565.000000
129276.000000
129997.000000
130714.000000
131400.000000
132088.000000
132806.000000
133562.000000
134333.000000
135068.000000
135766.000000
136477.000000
137225.000000
137995.000000
138766.000000
139519.000000
140243.000000
140980.000000
141729.000000
142493.000000
143272.000000
144021.000000
144736.000000
145437.000000
146145.000000
146867.000000
147601.000000
148329.000000
149027.000000
149734.000000
150442.000000
151127.000000
151793.000000
152438.000000
153091.000000
153746.000000
154389.000000
155012.000000
155652.000000
156327.000000
157060.000000
157814.000000
158518.000000
159189.000000
159866.000000
160555.000000
161251.000000
161962.000000
162652.000000
163332.000000
164051.000000
164796.000000
165544.000000
166277.000000
166964.000000
167642.000000
168331.000000
169053.000000
169794.000000
170519.000000
171234.000000
171969.000000
172725.000000
173480.000000
174206.000000
174899.000000
175613.000000
176352.000000
177118.000000
177854.000000
178569.000000
179281.000000
180009.000000
180788.000000
181602.000000
182387.000000
183120.000000
183871.000000
184624.000000
185384.000000
186120.000000
186838.000000
187570.000000
188342.000000
189125.000000
189878.000000
190591.000000
191303.000000
192026.000000
192777.000000
193533.000000
194255.000000
194984.000000
195734.000000
196501.000000
197252.000000
197965.000000
198658.000000
199367.000000
200108.000000
200873.000000
201623.000000
202349.000000
203077.000000
203831.000000
204598.000000
205338.000000
206052.000000
206771.000000
207509.000000
208239.000000
208952.000000
209637.000000
210331.000000
211068.000000
211868.000000
212658.000000
213418.000000
214131.000000
214822.000000
215521.000000
216230.000000
216947.000000
217661.000000
218390.000000
219175.000000
220005.000000
220789.000000
221533.000000
222248.000000
222953.000000
223676.000000
224420.000000
225154.000000
225862.000000
226595.000000
227348.000000
228089.000000
228807.000000
229490.000000
230191.000000
230916.000000
231663.000000
232394.000000
233100.000000
233829.000000
234587.000000
235366.000000
236142.000000
236883.000000
237572.000000
238249.000000
238942.000000
239647.000000
240372.000000
241083.000000
241762.000000
242464.000000
243228.000000
244010.000000
244782.000000
245536.000000
246249.000000
246945.000000
247643.000000
248375.000000
249129.000000
249885.000000
250629.000000
251365.000000
252115.000000
252892.000000
253681.000000
254459.000000
255201.000000
255914.000000
256624.000000
257345.000000
258117.000000
258891.000000
259639.000000
260342.000000
261041.000000
261748.000000
262470.000000
263218.000000
263928.000000
264616.000000
265318.000000
266030.000000
266751.000000
267488.000000
268194.000000
268874.000000
269545.000000
270226.000000
270963.000000
271724.000000
272461.000000
273175.000000
273918.000000
274685.000000
275441.000000
276163.000000
276847.000000
277539.000000
278246.000000
278969.000000
279684.000000
280406.000000
281165.000000
281938.000000
282721.000000
283458.000000
284178.000000
284892.000000
285604.000000
286323.000000
287033.000000
287773.000000
288537.000000
289285.000000
290009.000000
290703.000000
291384.000000
292072.000000
292767.000000
293470.000000
294157.000000
294819.000000
295491.000000
296209.000000
296974.000000
297733.000000
298446.000000
299149.000000
299867.000000
300600.000000
301316.000000
302003.000000
302676.000000
303356.000000
304053.000000
304799.000000
305517.000000
306209.000000
306928.000000
307679.000000
308472.000000
309255.000000
310004.000000
310708.000000
311399.000000
312100.000000
312821.000000
313544.000000
314249.000000
314930.000000
315637.000000
316411.000000
317179.000000
317927.000000
318639.000000
319318.000000
320001.000000
320689.000000
321388.000000
322088.000000
322756.000000
323414.000000
324063.000000
324710.000000
325352.000000
326027.000000
326732.000000
327469.000000
328186.000000
328870.000000
329571.000000
330287.000000
331018.000000
331753.000000
332457.000000
333135.000000
333829.000000
334572.000000
335337.000000
336070.000000
336773.000000
337474.000000
338200.000000
338963.000000
339728.000000
340481.000000
341214.000000
341950.000000
342728.000000
343502.000000
344252.000000
344932.000000
345587.000000
346233.000000
346927.000000
347755.000000
348592.000000
349460.000000
350313.000000
351089.000000
351808.000000
352519.000000
353238.000000
353974.000000
354732.000000
355517.000000
356268.000000
357010.000000
357765.000000
358530.000000
359305.000000
360057.000000
360785.000000
361530.000000
362266.000000
363020.000000
363769.000000
364489.000000
365197.000000
365910.000000
366641.000000
367383.000000
368085.000000
368782.000000
369493.000000
370225.000000
370981.000000
371715.000000
372445.000000
373200.000000
373965.000000
374725.000000
375448.000000
376134.000000
376821.000000
377533.000000
378286.000000
379024.000000
379733.000000
380482.000000
381269.000000
382061.000000
382816.000000
383528.000000
384229.000000
384948.000000
385666.000000
386391.000000
387097.000000
387770.000000
388464.000000
389230.000000
390006.000000
390763.000000
391499.000000
392198.000000
392892.000000
393594.000000
394329.000000
395108.000000
395857.000000
396580.000000
397330.000000
398099.000000
398861.000000
399609.000000
400330.000000
401060.000000
401815.000000
402582.000000
403328.000000
404038.000000
404770.000000
405543.000000
406339.000000
407123.000000
407874.000000
408579.000000
409286.000000
409993.000000
410713.000000
411443.000000
412137.000000
412801.000000
413471.000000
414179.000000
414941.000000
415698.000000
416393.000000
417069.000000
417758.000000
418473.000000
419220.000000
419981.000000
420724.000000
421421.000000
422116.000000
422831.000000
423595.000000
424377.000000
424977.000000
425844.000000
426531.000000
427209.000000
427892.000000
428559.000000
429223.000000
429905.000000
430682.000000
431602.000000
432485.000000
433274.000000
434018.000000
434759.000000
435496.000000
436261.000000
437010.000000
437736.000000
438472.000000
439246.000000
440029.000000
440801.000000
441548.000000
442254.000000
442965.000000
443716.000000
444498.000000
445268.000000
446010.000000
446710.000000
447411.000000
448136.000000
448892.000000
449616.000000
450314.000000
451026.000000
451754.000000
452492.000000
453224.000000
453928.000000
454636.000000
455364.000000
456132.000000
456904.000000
457654.000000
458346.000000
459025.000000
459715.000000
460454.000000
461211.000000
461977.000000
462694.000000
463295.000000
464187.000000
464887.000000
465568.000000
466227.000000
466890.000000
467595.000000
468380.000000
469218.000000
470023.000000
470793.000000
471581.000000
472377.000000
473171.000000
473954.000000
474691.000000
475391.000000
476086.000000
476803.000000
477577.000000
478351.000000
479105.000000
479895.000000
480726.000000
481551.000000
482350.000000
483105.000000
483825.000000
484523.000000
485223.000000
485954.000000
486716.000000
487458.000000
488158.000000
488862.000000
489594.000000
490362.000000
491137.000000
491857.000000
492542.000000
493244.000000
493971.000000
494727.000000
495482.000000
496210.000000
496910.000000
497628.000000
498356.000000
499120.000000
499880.000000
500598.000000
501344.000000
502138.000000
502936.000000
503734.000000
504512.000000
505261.000000
505976.000000
506696.000000
507449.000000
508184.000000
508917.000000
509681.000000
510468.000000
511253.000000
512020.000000
512733.000000
513413.000000
514096.000000
514807.000000
515590.000000
516386.000000
517140.000000
517842.000000
518545.000000
519269.000000
520045.000000
520807.000000
521515.000000
522216.000000
522950.000000
523732.000000
524488.000000
525218.000000
525906.000000
526559.000000
527221.000000
527925.000000
528676.000000
529423.000000
530148.000000
530840.000000
531548.000000
532272.000000
533038.000000
533791.000000
534518.000000
535213.000000
535919.000000
536644.000000
537380.000000
538097.000000
538783.000000
539446.000000
540129.000000
540897.000000
541686.000000
542483.000000
543271.000000
544057.000000
544798.000000
545520.000000
546236.000000
546983.000000
547756.000000
548540.000000
549288.000000
550001.000000
550720.000000
551467.000000
552226.000000
552967.000000
553659.000000
554365.000000
555091.000000
555871.000000
556690.000000
557502.000000
558257.000000
558970.000000
559677.000000
560411.000000
561176.000000
561953.000000
562703.000000
563414.000000
564141.000000
564880.000000
565637.000000
566374.000000
567073.000000
567735.000000
568391.000000
569085.000000
569829.000000
570613.000000
571371.000000
572103.000000
572860.000000
573620.000000
574392.000000
575161.000000
575892.000000
576621.000000
577360.000000
578125.000000
578905.000000
579674.000000
580415.000000
581146.000000
581884.000000
582628.000000
583355.000000
584050.000000
584733.000000
585459.000000
586231.000000
587027.000000
587762.000000
588447.000000
589127.000000
589838.000000
590564.000000
591302.000000
592009.000000
592683.000000
593370.000000
594092.000000
594841.000000
595571.000000
596278.000000
596997.000000
597764.000000
598523.000000
599236.000000
599911.000000
600570.000000
601245.000000
601955.000000
602709.000000
603422.000000
604112.000000
604817.000000
605561.000000
606346.000000
607117.000000
607859.000000
608563.000000
609254.000000
609958.000000
610689.000000
611463.000000
612209.000000
612920.000000
613628.000000
614332.000000
615045.000000
615754.000000
616431.000000
617074.000000
617736.000000
618428.000000
619177.000000
619968.000000
620731.000000
621438.000000
622127.000000
622821.000000
623527.000000
624267.000000
625017.000000
625747.000000
626433.000000
627136.000000
627865.000000
628613.000000
629336.000000
630035.000000
630757.000000
631498.000000
632243.000000
633017.000000
633756.000000
634477.000000
635212.000000
635961.000000
636715.000000
637466.000000
638181.000000
638862.000000
639551.000000
640278.000000
641062.000000
641779.000000
642449.000000
643106.000000
643790.000000
644526.000000
645278.000000
646026.000000
646712.000000
647403.000000
648137.000000
648891.000000
649660.000000
650409.000000
651132.000000
651819.000000
652484.000000
653138.000000
653772.000000
654410.000000
655089.000000
655790.000000
656478.000000
657158.000000
657848.000000
658560.000000
659281.000000
659982.000000
660670.000000
661359.000000
662060.000000
662797.000000
663592.000000
664387.000000
665154.000000
665873.000000
666582.000000
667301.000000
668039.000000
668805.000000
669532.000000
670264.000000
671012.000000
671787.000000
672549.000000
673288.000000
674039.000000
674800.000000
675578.000000
676342.000000
677083.000000
677815.000000
678579.000000
679386.000000
680207.000000
680969.000000
681672.000000
682353.000000
683043.000000
683796.000000
684578.000000
685341.000000
686069.000000
686796.000000
687558.000000
688346.000000
689130.000000
689891.000000
690620.000000
691320.000000
692024.000000
692749.000000
693501.000000
694219.000000
694914.000000
695636.000000
696432.000000
697205.000000
697970.000000
698706.000000
699382.000000
700047.000000
700741.000000
701496.000000
702302.000000
703085.000000
703874.000000
704640.000000
705371.000000
706131.000000
706912.000000
707715.000000
708510.000000
709276.000000
710019.000000
710762.000000
711529.000000
712321.000000
713099.000000
713834.000000
714531.000000
715251.000000
716017.000000
716830.000000
717638.000000
718416.000000
719186.000000
719958.000000
720730.000000
721527.000000
722309.000000
723028.000000
723706.000000
724405.000000
725188.000000
726048.000000
726887.000000
727688.000000
728435.000000
729180.000000
729935.000000
730711.000000
731494.000000
732256.000000
733008.000000
733761.000000
734542.000000
735328.000000
736081.000000
736776.000000
737459.000000
738184.000000
738989.000000
739794.000000
740615.000000
741396.000000
742132.000000
742867.000000
743628.000000
744448.000000
745262.000000
746059.000000
746827.000000
747606.000000
748382.000000
749154.000000
749924.000000
750692.000000
751448.000000
752160.000000
752887.000000
753657.000000
754462.000000
755273.000000
756083.000000
756856.000000
757587.000000
758306.000000
759027.000000
759771.000000
760487.000000
761166.000000
761848.000000
762565.000000
763356.000000
764177.000000
764941.000000
765654.000000
766358.000000
767067.000000
767805.000000
768541.000000
769252.000000
769993.000000
770767.000000
771580.000000
772393.000000
773148.000000
773849.000000
774549.000000
775269.000000
776030.000000
776754.000000
777452.000000
778170.000000
778918.000000
779709.000000
780444.000000
781127.000000
781812.000000
782523.000000
783282.000000
784076.000000
784856.000000
785623.000000
786420.000000
787221.000000
788003.000000
788613.000000
789477.000000
790171.000000
790847.000000
791552.000000
792280.000000
792996.000000
793680.000000
794396.000000
795419.000000
796350.000000
797286.000000
798141.000000
798958.000000
799750.000000
800519.000000
801287.000000
802036.000000
802760.000000
803496.000000
804299.000000
805115.000000
805900.000000
806634.000000
807315.000000
807978.000000
808652.000000
809388.000000
810174.000000
810967.000000
811770.000000
812548.000000
813276.000000
813960.000000
814632.000000
815320.000000
816048.000000
816791.000000
817496.000000
818169.000000
818852.000000
819529.000000
820201.000000
820848.000000
821511.000000
822205.000000
822941.000000
823719.000000
824500.000000
825228.000000
825920.000000
826615.000000
827333.000000
828081.000000
828861.000000
829635.000000
830370.000000
831078.000000
831806.000000
832588.000000
833420.000000
834211.000000
834953.000000
835657.000000
836365.000000
837111.000000
837912.000000
838674.000000
839409.000000
840182.000000
840994.000000
841809.000000
842578.000000
843347.000000
844101.000000
844848.000000
845572.000000
846270.000000
846926.000000
847609.000000
848367.000000
849279.000000
850148.000000
850958.000000
851743.000000
852519.000000
853313.000000
854088.000000
854837.000000
855552.000000
856293.000000
857089.000000
857900.000000
858516.000000
859531.000000
860252.000000
860948.000000
861644.000000
862378.000000
863172.000000
864021.000000
864653.000000
865882.000000
866720.000000
867487.000000
868196.000000
868889.000000
869621.000000
870476.000000
871348.000000
872173.000000
872975.000000
873778.000000
874599.000000
875445.000000
876264.000000
877086.000000
877972.000000
878873.000000
879723.000000
880512.000000
881255.000000
881996.000000
882775.000000
883599.000000
884407.000000
885169.000000
885963.000000
886799.000000
887632.000000
888418.000000
889168.000000
889944.000000
890747.000000
891554.000000
892292.000000
893011.000000
893767.000000
894537.000000
895272.000000
896014.000000
896821.000000
897732.000000
898563.000000
899305.000000
900002.000000
900699.000000
901435.000000
902256.000000
903096.000000
903962.000000
904875.000000
905780.000000
906671.000000
907472.000000
908203.000000
908911.000000
909652.000000
910539.000000
911402.000000
912189.000000
913027.000000
913978.000000
914965.000000
915893.000000
916725.000000
917474.000000
918169.000000
918819.000000
919568.000000
920492.000000
921378.000000
922206.000000
923078.000000
923966.000000
924858.000000
925656.000000
926393.000000
927070.000000
927713.000000
928403.000000
929198.000000
930074.000000
930884.000000
931675.000000
932492.000000
933321.000000
934160.000000
934951.000000
935730.000000
936525.000000
937346.000000
938167.000000
938966.000000
939772.000000
940585.000000
941394.000000
942214.000000
943002.000000
943793.000000
944596.000000
945421.000000
946249.000000
947037.000000
947791.000000
948551.000000
949322.000000
950102.000000
950872.000000
951596.000000
952335.000000
953148.000000
953981.000000
954775.000000
955529.000000
956226.000000
956914.000000
957618.000000
958392.000000
959230.000000
960020.000000
960749.000000
961499.000000
962295.000000
963064.000000
963814.000000
964551.000000
965268.000000
965995.000000
966752.000000
967528.000000
968292.000000
969014.000000
969749.000000
970534.000000
971330.000000
972090.000000
972826.000000
973570.000000
974339.000000
975155.000000
975953.000000
976720.000000
977410.000000
978077.000000
978724.000000
979433.000000
980158.000000
980878.000000
981572.000000
982245.000000
982923.000000
983693.000000
984508.000000
985269.000000
985978.000000
986701.000000
987487.000000
988281.000000
989049.000000
989784.000000
990545.000000
991359.000000
992236.000000
993078.000000
993863.000000
994601.000000
995345.000000
996124.000000
996947.000000
997733.000000
998542.000000
999360.000000
1000196.000000
1001042.000000
1001825.000000
1002556.000000
1003307.000000
1004146.000000
1004992.000000
1005826.000000
1006601.000000
1007376.000000
1008152.000000
1008974.000000
1009753.000000
1010486.000000
1011228.000000
1012007.000000
1012825.000000
1013621.000000
1014367.000000
1015147.000000
1015993.000000
1016859.000000
1017649.000000
1018389.000000
1019120.000000
1019892.000000
1020729.000000
1021529.000000
1022293.000000
1023010.000000
1023717.000000
1024436.000000
1025225.000000
1026022.000000
1026793.000000
1027621.000000
1028473.000000
1029318.000000
1030124.000000
1030893.000000
1031631.000000
1032343.000000
1033073.000000
1033864.000000
1034655.000000
1035447.000000
1036295.000000
1037172.000000
1038014.000000
1038792.000000
1039508.000000
1040201.000000
1040888.000000
1041565.000000
1042250.000000
1042912.000000
1043610.000000
1044471.000000
1045281.000000
1046013.000000
1046729.000000
1047483.000000
1048296.000000
1049128.000000
1049925.000000
1050685.000000
1051490.000000
1052325.000000
1053163.000000
1053981.000000
1054755.000000
1055525.000000
1056314.000000
1057139.000000
1057909.000000
1058624.000000
1059337.000000
1060099.000000
1060950.000000
1061778.000000
1062592.000000
1063452.000000
1064358.000000
1065209.000000
1065992.000000
1066736.000000
1067455.000000
1068214.000000
1069068.000000
1069977.000000
1070826.000000
1071624.000000
1072402.000000
1073192.000000
1074012.000000
1074832.000000
1075619.000000
1076391.000000
1077176.000000
1077969.000000
1078773.000000
1079525.000000
1080226.000000
1080917.000000
1081647.000000
1082457.000000
1083318.000000
1084144.000000
1084931.000000
1085729.000000
1086518.000000
1087286.000000
1088013.000000
1088747.000000
1089537.000000
1090485.000000
1091437.000000
1092327.000000
1093133.000000
1093881.000000
1094609.000000
1095388.000000
1096289.000000
1097123.000000
1097893.000000
1098627.000000
1099406.000000
1100234.000000
1101070.000000
1101912.000000
1102708.000000
1103476.000000
1104248.000000
1105040.000000
1105651.000000
1106670.000000
1107381.000000
1108059.000000
1108721.000000
1109377.000000
1110022.000000
1110898.000000
1111831.000000
1112744.000000
1113649.000000
1114614.000000
1115577.000000
1116522.000000
1117352.000000
1118128.000000
1118877.000000
1119629.000000
1120455.000000
1121294.000000
1122088.000000
1122924.000000
1123820.000000
1124767.000000
1125650.000000
1126436.000000
1127204.000000
1127990.000000
1128796.000000
1129599.000000
1130410.000000
1131410.000000
1132418.000000
1133409.000000
1134306.000000
1135087.000000
1135820.000000
1136552.000000
1137387.000000
1138319.000000
1139181.000000
1139972.000000
1140826.000000
1141776.000000
1142680.000000
1143519.000000
1144312.000000
1145131.000000
1146025.000000
1147060.000000
1148029.000000
1148927.000000
1149758.000000
1150558.000000
1151327.000000
1152067.000000
1152814.000000
1153717.000000
1154729.000000
1155578.000000
1156387.000000
1157227.000000
1158148.000000
1159050.000000
1159916.000000
1160770.000000
1161591.000000
1162417.000000
1163229.000000
1164071.000000
1164965.000000
1165942.000000
1166889.000000
1167768.000000
1168572.000000
1169322.000000
1170063.000000
1170843.000000
1171748.000000
1172567.000000
1173358.000000
1174189.000000
1175037.000000
1175912.000000
1176725.000000
1177476.000000
1178213.000000
1178939.000000
1179692.000000
1180470.000000
1181209.000000
1181992.000000
1182820.000000
1183627.000000
1184403.000000
1185175.000000
1185974.000000
1186801.000000
1187584.000000
1188356.000000
1189152.000000
1189999.000000
1190855.000000
1191725.000000
1192540.000000
1193286.000000
1194013.000000
1194724.000000
