ECG (ms)
539.000000
1397.000000
2299.000000
3225.000000
4164.000000
5022.000000
5875.000000
6745.000000
7628.000000
8485.000000
9302.000000
10202.000000
11134.000000
12038.000000
12882.000000
13752.000000
14654.000000
15591.000000
16453.000000
17359.000000
18275.000000
19165.000000
20005.000000
20859.000000
21746.000000
22728.000000
23656.000000
24647.000000
25648.000000
26558.000000
27404.000000
28292.000000
29232.000000
30190.000000
31105.000000
32100.000000
33101.000000
34024.000000
34954.000000
35902.000000
36839.000000
37710.000000
38582.000000
39473.000000
40361.000000
41214.000000
42128.000000
43135.000000
44095.000000
45001.000000
45883.000000
46778.000000
47637.000000
48435.000000
49241.000000
50047.000000
50826.000000
51579.000000
52395.000000
53270.000000
54056.000000
54788.000000
55627.000000
56447.000000
57227.000000
58059.000000
58912.000000
59735.000000
60518.000000
61371.000000
62248.000000
63098.000000
63881.000000
64713.000000
65585.000000
66475.000000
67274.000000
68027.000000
68781.000000
69566.000000
70432.000000
71342.000000
72287.000000
73152.000000
74032.000000
74927.000000
75785.000000
76605.000000
77459.000000
78336.000000
79221.000000
80054.000000
80903.000000
81777.000000
82646.000000
83484.000000
84322.000000
85180.000000
86045.000000
86871.000000
87719.000000
88617.000000
89539.000000
90412.000000
91311.000000
92262.000000
93182.000000
94027.000000
94900.000000
95780.000000
96598.000000
97436.000000
98337.000000
99259.000000
100126.000000
101019.000000
101950.000000
102822.000000
103675.000000
104577.000000
105458.000000
106294.000000
107190.000000
108120.000000
109019.000000
109866.000000
110732.000000
111608.000000
112455.000000
113297.000000
114183.000000
115057.000000
115885.000000
116754.000000
117646.000000
118521.000000
119368.000000
120235.000000
121093.000000
121930.000000
122734.000000
123541.000000
124349.000000
125132.000000
125928.000000
126806.000000
127752.000000
128614.000000
129537.000000
130485.000000
131430.000000
132298.000000
133176.000000
134080.000000
134974.000000
135800.000000
136683.000000
137603.000000
138521.000000
139402.000000
140322.000000
141266.000000
142128.000000
142989.000000
143872.000000
144751.000000
145569.000000
146400.000000
147261.000000
148141.000000
148963.000000
149811.000000
150692.000000
151590.000000
152417.000000
153256.000000
154103.000000
154942.000000
155735.000000
156531.000000
157371.000000
158255.000000
159094.000000
159926.000000
160801.000000
161688.000000
162526.000000
163356.000000
164255.000000
165163.000000
166005.000000
166832.000000
167689.000000
168527.000000
169335.000000
170124.000000
170961.000000
171811.000000
172677.000000
173501.000000
174353.000000
175241.000000
176085.000000
176897.000000
177715.000000
178553.000000
179387.000000
180177.000000
180974.000000
181846.000000
182763.000000
183597.000000
184412.000000
185218.000000
185986.000000
186720.000000
187441.000000
188211.000000
188977.000000
189771.000000
190594.000000
191433.000000
192236.000000
193033.000000
193846.000000
194672.000000
195462.000000
196242.000000
197035.000000
197849.000000
198644.000000
199437.000000
200263.000000
201119.000000
201934.000000
202725.000000
203548.000000
204407.000000
205274.000000
206093.000000
206911.000000
207749.000000
208607.000000
209419.000000
210220.000000
211051.000000
211915.000000
212776.000000
213673.000000
214623.000000
215594.000000
216465.000000
217321.000000
218200.000000
219085.000000
219918.000000
220751.000000
221646.000000
222592.000000
223478.000000
224375.000000
225291.000000
226175.000000
227017.000000
227863.000000
228709.000000
229530.000000
230320.000000
231164.000000
232040.000000
232959.000000
233846.000000
234714.000000
235623.000000
236518.000000
237368.000000
238157.000000
238950.000000
239778.000000
240688.000000
241601.000000
242459.000000
243325.000000
244181.000000
245049.000000
245860.000000
246663.000000
247433.000000
248159.000000
248878.000000
249687.000000
250548.000000
251363.000000
252233.000000
253150.000000
254067.000000
254912.000000
255776.000000
256677.000000
257544.000000
258363.000000
259184.000000
260054.000000
260972.000000
261864.000000
262763.000000
263750.000000
264722.000000
265617.000000
266516.000000
267436.000000
268376.000000
269252.000000
270109.000000
270956.000000
271790.000000
272696.000000
273663.000000
274584.000000
275475.000000
276396.000000
277357.000000
278254.000000
279134.000000
280029.000000
280910.000000
281736.000000
282575.000000
283414.000000
284236.000000
285023.000000
285848.000000
286727.000000
287576.000000
288378.000000
289227.000000
290107.000000
291007.000000
291835.000000
292618.000000
293430.000000
294243.000000
295085.000000
295891.000000
296666.000000
297502.000000
298426.000000
299330.000000
300162.000000
300974.000000
301900.000000
302906.000000
303817.000000
304687.000000
305591.000000
306555.000000
307449.000000
308317.000000
309210.000000
310157.000000
311057.000000
311940.000000
312864.000000
313786.000000
314670.000000
315566.000000
316475.000000
317390.000000
318236.000000
319123.000000
320070.000000
321012.000000
321873.000000
322753.000000
323630.000000
324506.000000
325351.000000
326215.000000
327128.000000
328048.000000
328926.000000
329824.000000
330739.000000
331654.000000
332525.000000
333384.000000
334264.000000
335158.000000
335994.000000
336850.000000
337705.000000
338539.000000
339367.000000
340259.000000
341169.000000
342027.000000
342886.000000
343772.000000
344669.000000
345496.000000
346362.000000
347256.000000
348113.000000
348951.000000
349840.000000
350714.000000
351510.000000
352265.000000
353068.000000
353897.000000
354677.000000
355491.000000
356338.000000
357238.000000
358094.000000
358919.000000
359784.000000
360677.000000
361533.000000
362347.000000
363163.000000
363974.000000
364820.000000
365635.000000
366480.000000
367398.000000
368295.000000
369121.000000
369920.000000
370756.000000
371609.000000
372487.000000
373309.000000
374132.000000
374972.000000
375842.000000
376646.000000
377433.000000
378254.000000
379101.000000
379974.000000
380779.000000
381598.000000
382456.000000
383326.000000
384137.000000
384937.000000
385789.000000
386651.000000
387523.000000
388318.000000
389135.000000
389972.000000
390822.000000
391623.000000
392429.000000
393368.000000
394381.000000
395317.000000
396244.000000
397205.000000
398152.000000
399032.000000
399896.000000
400782.000000
401685.000000
402532.000000
403402.000000
404306.000000
405215.000000
406077.000000
406961.000000
407892.000000
408864.000000
409762.000000
410613.000000
411472.000000
412348.000000
413154.000000
413942.000000
414786.000000
415639.000000
416476.000000
417273.000000
418128.000000
419028.000000
419910.000000
420724.000000
421542.000000
422392.000000
423260.000000
424110.000000
424890.000000
425707.000000
426558.000000
427430.000000
428281.000000
429088.000000
429949.000000
430810.000000
431616.000000
432400.000000
433207.000000
434004.000000
434785.000000
435547.000000
436326.000000
437060.000000
437795.000000
438544.000000
439305.000000
440045.000000
440797.000000
441589.000000
442391.000000
443154.000000
443877.000000
444611.000000
445349.000000
446072.000000
446776.000000
447493.000000
448182.000000
448877.000000
449669.000000
450458.000000
451205.000000
451977.000000
452793.000000
453646.000000
454477.000000
455261.000000
456075.000000
456874.000000
457685.000000
458438.000000
459191.000000
459986.000000
460834.000000
461669.000000
462445.000000
463182.000000
463940.000000
464800.000000
465744.000000
466694.000000
467640.000000
468566.000000
469435.000000
470264.000000
471104.000000
471964.000000
472836.000000
473701.000000
474531.000000
475398.000000
476260.000000
477109.000000
477897.000000
478629.000000
479347.000000
480115.000000
480886.000000
481692.000000
482604.000000
483545.000000
484426.000000
485289.000000
486167.000000
487057.000000
487895.000000
488708.000000
489522.000000
490354.000000
491230.000000
492057.000000
492930.000000
493874.000000
494700.000000
495481.000000
496226.000000
496957.000000
497775.000000
498730.000000
499685.000000
500566.000000
501437.000000
502330.000000
503204.000000
504026.000000
504799.000000
505587.000000
506391.000000
507224.000000
508014.000000
508803.000000
509670.000000
510556.000000
511425.000000
512233.000000
513049.000000
513875.000000
514673.000000
515442.000000
516189.000000
516957.000000
517761.000000
518606.000000
519376.000000
520152.000000
520990.000000
521835.000000
522657.000000
523420.000000
524207.000000
525034.000000
525863.000000
526657.000000
527479.000000
528396.000000
529342.000000
530205.000000
531029.000000
531839.000000
532647.000000
533457.000000
534258.000000
535120.000000
536045.000000
536893.000000
537746.000000
538629.000000
539518.000000
540354.000000
541165.000000
541987.000000
542796.000000
543547.000000
544323.000000
545123.000000
545999.000000
546818.000000
547652.000000
548551.000000
549492.000000
550358.000000
551221.000000
552097.000000
552975.000000
553786.000000
554588.000000
555401.000000
556227.000000
557025.000000
557799.000000
558613.000000
559459.000000
560299.000000
561097.000000
561909.000000
562730.000000
563493.000000
564269.000000
565015.000000
565742.000000
566511.000000
567302.000000
568066.000000
568856.000000
569692.000000
570587.000000
571449.000000
572303.000000
573164.000000
574024.000000
574850.000000
575622.000000
576421.000000
577245.000000
578126.000000
578973.000000
579785.000000
580692.000000
581619.000000
582551.000000
583420.000000
584292.000000
585181.000000
586081.000000
586939.000000
587757.000000
588597.000000
589463.000000
590377.000000
591233.000000
592136.000000
593057.000000
593979.000000
594877.000000
595776.000000
596699.000000
597642.000000
598540.000000
599453.000000
600392.000000
601306.000000
602155.000000
603024.000000
603927.000000
604781.000000
605633.000000
606530.000000
607464.000000
608386.000000
609276.000000
610191.000000
611133.000000
612044.000000
612904.000000
613767.000000
614612.000000
615453.000000
616333.000000
617231.000000
618102.000000
618956.000000
619837.000000
620754.000000
621689.000000
622589.000000
623525.000000
624508.000000
625501.000000
626431.000000
627359.000000
628302.000000
629284.000000
630178.000000
631082.000000
632024.000000
632970.000000
633856.000000
634750.000000
635619.000000
636488.000000
637339.000000
638287.000000
639299.000000
640298.000000
641231.000000
642162.000000
643099.000000
643996.000000
644838.000000
645723.000000
646693.000000
647646.000000
648570.000000
649542.000000
650553.000000
651553.000000
652451.000000
653339.000000
654261.000000
655203.000000
656140.000000
657161.000000
658245.000000
659273.000000
660222.000000
661171.000000
662101.000000
662991.000000
663832.000000
664688.000000
665565.000000
666481.000000
667415.000000
668352.000000
669346.000000
670341.000000
671271.000000
672132.000000
673002.000000
673851.000000
674708.000000
675557.000000
676418.000000
677323.000000
678276.000000
679170.000000
680051.000000
680985.000000
681918.000000
682858.000000
683748.000000
684615.000000
685516.000000
686375.000000
687182.000000
688040.000000
688909.000000
689742.000000
690513.000000
691248.000000
692000.000000
692789.000000
693621.000000
694478.000000
695266.000000
696095.000000
696953.000000
697832.000000
698641.000000
699452.000000
700280.000000
701158.000000
702035.000000
702859.000000
703707.000000
704568.000000
705448.000000
706294.000000
707109.000000
707946.000000
708829.000000
709709.000000
710535.000000
711368.000000
712232.000000
713104.000000
713927.000000
714734.000000
715570.000000
716429.000000
717285.000000
718101.000000
718926.000000
719804.000000
720744.000000
721682.000000
722559.000000
723443.000000
724363.000000
725294.000000
726190.000000
727059.000000
727989.000000
728979.000000
729946.000000
730850.000000
731787.000000
732768.000000
733708.000000
734593.000000
735497.000000
736419.000000
737302.000000
738125.000000
738983.000000
739851.000000
740726.000000
741559.000000
742444.000000
743388.000000
744337.000000
745239.000000
746146.000000
747082.000000
747995.000000
748835.000000
749690.000000
750576.000000
751407.000000
752195.000000
753007.000000
753846.000000
754721.000000
755538.000000
756349.000000
757206.000000
758044.000000
758887.000000
759681.000000
760460.000000
761292.000000
762156.000000
763036.000000
763868.000000
764699.000000
765588.000000
766445.000000
767280.000000
768079.000000
768895.000000
769734.000000
770528.000000
771281.000000
772007.000000
772734.000000
773521.000000
774278.000000
775079.000000
775925.000000
776811.000000
777643.000000
778414.000000
779216.000000
780017.000000
780844.000000
781631.000000
782428.000000
783303.000000
784407.000000
785396.000000
786276.000000
787162.000000
788088.000000
789008.000000
789881.000000
790736.000000
791673.000000
792599.000000
793464.000000
794304.000000
795177.000000
796107.000000
797048.000000
797946.000000
798813.000000
799694.000000
800576.000000
801474.000000
802326.000000
803183.000000
804096.000000
805019.000000
805949.000000
806837.000000
807743.000000
808651.000000
809540.000000
810361.000000
811179.000000
812047.000000
812948.000000
813862.000000
814718.000000
815697.000000
816729.000000
817735.000000
818649.000000
819539.000000
820434.000000
821309.000000
822148.000000
822951.000000
823782.000000
824622.000000
825427.000000
826253.000000
827177.000000
828185.000000
829123.000000
829998.000000
830857.000000
831716.000000
832576.000000
833406.000000
834254.000000
835093.000000
835923.000000
836809.000000
837771.000000
838750.000000
839709.000000
840639.000000
841521.000000
842371.000000
843245.000000
844176.000000
845082.000000
845948.000000
846854.000000
847831.000000
848823.000000
849733.000000
850643.000000
851569.000000
852512.000000
853379.000000
854223.000000
855067.000000
855961.000000
856842.000000
857689.000000
858499.000000
859269.000000
860020.000000
860874.000000
861757.000000
862664.000000
863495.000000
864353.000000
865255.000000
866172.000000
867044.000000
867872.000000
868705.000000
869554.000000
870434.000000
871341.000000
872204.000000
873031.000000
873898.000000
874815.000000
875765.000000
876663.000000
877556.000000
878466.000000
879376.000000
880269.000000
881159.000000
881980.000000
882818.000000
883702.000000
884669.000000
885615.000000
886524.000000
887357.000000
888173.000000
889022.000000
889939.000000
890876.000000
891804.000000
892656.000000
893497.000000
894332.000000
895153.000000
895995.000000
896874.000000
897738.000000
898577.000000
899387.000000
900207.000000
901075.000000
901987.000000
902935.000000
903822.000000
904662.000000
905540.000000
906463.000000
907447.000000
908372.000000
909254.000000
910161.000000
911087.000000
912014.000000
912896.000000
913765.000000
914664.000000
915594.000000
916506.000000
917384.000000
918291.000000
919198.000000
920103.000000
920977.000000
921786.000000
922586.000000
923392.000000
924263.000000
925169.000000
926058.000000
926943.000000
927847.000000
928741.000000
929611.000000
930476.000000
931378.000000
932276.000000
933137.000000
933952.000000
934742.000000
935553.000000
936444.000000
937370.000000
938305.000000
939142.000000
939994.000000
940899.000000
941824.000000
942709.000000
943532.000000
944339.000000
945164.000000
946021.000000
946899.000000
947737.000000
948537.000000
949356.000000
950162.000000
950972.000000
951775.000000
952567.000000
953349.000000
954075.000000
954795.000000
955531.000000
956261.000000
957000.000000
957805.000000
958644.000000
959514.000000
960350.000000
961132.000000
961931.000000
962754.000000
963579.000000
964378.000000
965142.000000
965910.000000
966765.000000
967720.000000
968709.000000
969639.000000
970523.000000
971434.000000
972380.000000
973332.000000
974213.000000
975079.000000
975967.000000
976865.000000
977771.000000
978613.000000
979465.000000
980371.000000
981335.000000
982261.000000
983178.000000
984105.000000
985079.000000
986036.000000
986935.000000
987847.000000
988665.000000
989493.000000
990373.000000
991247.000000
992118.000000
992947.000000
993737.000000
994551.000000
995412.000000
996338.000000
997285.000000
998260.000000
999134.000000
999971.000000
1000803.000000
1001619.000000
1002452.000000
1003345.000000
1004230.000000
1005084.000000
1005995.000000
1006976.000000
1007958.000000
1008850.000000
1009697.000000
1010573.000000
1011448.000000
1012311.000000
1013171.000000
1013993.000000
1014809.000000
1015643.000000
1016496.000000
1017334.000000
1018140.000000
1018912.000000
1019704.000000
1020532.000000
1021359.000000
1022206.000000
1023043.000000
1023886.000000
1024661.000000
1025433.000000
1026235.000000
1027063.000000
1027896.000000
1028730.000000
1029504.000000
1030263.000000
1031060.000000
1031889.000000
1032721.000000
1033552.000000
1034323.000000
1035119.000000
1035947.000000
1036781.000000
1037585.000000
1038358.000000
1039171.000000
1040016.000000
1040887.000000
1041746.000000
1042539.000000
1043372.000000
1044220.000000
1045072.000000
1045906.000000
1046734.000000
1047676.000000
1048631.000000
1049554.000000
1050427.000000
1051318.000000
1052211.000000
1053101.000000
1053957.000000
1054810.000000
1055717.000000
1056702.000000
1057692.000000
1058645.000000
1059630.000000
1060632.000000
1061579.000000
1062460.000000
1063360.000000
1064284.000000
1065239.000000
1066175.000000
1067149.000000
1068101.000000
1069011.000000
1069843.000000
1070673.000000
1071601.000000
1072540.000000
1073433.000000
1074254.000000
1075022.000000
1075824.000000
1076723.000000
1077629.000000
1078482.000000
1079336.000000
1080216.000000
1081093.000000
1081945.000000
1082744.000000
1083535.000000
1084339.000000
1085193.000000
1086109.000000
1086963.000000
1087827.000000
1088739.000000
1089679.000000
1090610.000000
1091457.000000
1092252.000000
1093072.000000
1093989.000000
1094992.000000
1095968.000000
1096909.000000
1097782.000000
1098630.000000
1099479.000000
1100358.000000
1101263.000000
1102158.000000
1103036.000000
1103902.000000
1104791.000000
1105708.000000
1106643.000000
1107524.000000
1108392.000000
1109260.000000
1110127.000000
1110963.000000
1111742.000000
1112515.000000
1113279.000000
1114037.000000
1114767.000000
1115588.000000
1116416.000000
1117194.000000
1117989.000000
1118816.000000
1119668.000000
1120518.000000
1121309.000000
1122098.000000
1122906.000000
1123724.000000
1124541.000000
1125298.000000
1126075.000000
1126908.000000
1127768.000000
1128667.000000
1129545.000000
1130352.000000
1131181.000000
1132034.000000
1132919.000000
1133776.000000
1134593.000000
1135450.000000
1136323.000000
1137195.000000
1138028.000000
1138837.000000
1139666.000000
1140514.000000
1141364.000000
1142190.000000
1142968.000000
1143778.000000
1144604.000000
1145472.000000
1146311.000000
1147119.000000
1147921.000000
1148771.000000
1149632.000000
1150468.000000
1151271.000000
1152100.000000
1152929.000000
1153739.000000
1154531.000000
1155293.000000
1156095.000000
1156936.000000
1157762.000000
1158518.000000
1159283.000000
1160022.000000
1160735.000000
1161464.000000
1162251.000000
1162989.000000
1163763.000000
1164600.000000
1165501.000000
1166360.000000
1167155.000000
1167957.000000
1168766.000000
1169562.000000
1170337.000000
1171113.000000
1171942.000000
1172822.000000
1173650.000000
1174454.000000
1175307.000000
1176194.000000
1177059.000000
1177868.000000
1178678.000000
1179492.000000
1180309.000000
1181079.000000
1181827.000000
1182639.000000
1183519.000000
1184376.000000
1185168.000000
1185958.000000
1186788.000000
1187674.000000
1188538.000000
1189340.000000
1190144.000000
1190974.000000
1191791.000000
1192621.000000
1193451.000000
1194248.000000
1195047.000000
1195863.000000
1196716.000000
1197543.000000
1198322.000000
1199064.000000
1199824.000000
1200614.000000
1201461.000000
1202315.000000
1203133.000000
1204030.000000
1204968.000000
1205839.000000
1206664.000000
1207490.000000
1208342.000000
1209212.000000
1210027.000000
1210855.000000
1211701.000000
1212580.000000
1213426.000000
1214243.000000
1215127.000000
1216021.000000
1216893.000000
1217724.000000
1218559.000000
1219453.000000
1220370.000000
1221273.000000
1222156.000000
1223058.000000
1223956.000000
1224830.000000
1225650.000000
1226482.000000
1227348.000000
1228288.000000
1229182.000000
1230064.000000
1230980.000000
1231915.000000
1232813.000000
1233675.000000
1234555.000000
1235451.000000
1236373.000000
1237228.000000
1238078.000000
1238910.000000
1239744.000000
1240549.000000
1241332.000000
1242127.000000
1243051.000000
1244048.000000
