ECG (ms)
19.000000
690.000000
1353.000000
2024.000000
2701.000000
3385.000000
4063.000000
4741.000000
5435.000000
6127.000000
6813.000000
7498.000000
8197.000000
8888.000000
9559.000000
10230.000000
10909.000000
11589.000000
12255.000000
12924.000000
13595.000000
14268.000000
14898.000000
15574.000000
16233.000000
16899.000000
17565.000000
18234.000000
18918.000000
19607.000000
20286.000000
20961.000000
21644.000000
22327.000000
22946.000000
23605.000000
24228.000000
24882.000000
25526.000000
26184.000000
26858.000000
27506.000000
28158.000000
28827.000000
29506.000000
30163.000000
30821.000000
31499.000000
32185.000000
32866.000000
33528.000000
34216.000000
34897.000000
35579.000000
36242.000000
36922.000000
37592.000000
38262.000000
38916.000000
39587.000000
40260.000000
40934.000000
41604.000000
42292.000000
42988.000000
43680.000000
44364.000000
45058.000000
45761.000000
46451.000000
47128.000000
47823.000000
48515.000000
49197.000000
49878.000000
50586.000000
51284.000000
51983.000000
52672.000000
53356.000000
54051.000000
54752.000000
55447.000000
56126.000000
56797.000000
57483.000000
58164.000000
58833.000000
59510.000000
60186.000000
60858.000000
61519.000000
62198.000000
62872.000000
63546.000000
64214.000000
64892.000000
65581.000000
66270.000000
66943.000000
67619.000000
68299.000000
68977.000000
69641.000000
70315.000000
70994.000000
71668.000000
72332.000000
73009.000000
73680.000000
74346.000000
75000.000000
75669.000000
76339.000000
77003.000000
77663.000000
78342.000000
79025.000000
79716.000000
80396.000000
81087.000000
81776.000000
82454.000000
83124.000000
83810.000000
84495.000000
85196.000000
85882.000000
86557.000000
87234.000000
87914.000000
88594.000000
89252.000000
89936.000000
90604.000000
91273.000000
91930.000000
92602.000000
93265.000000
93887.000000
94557.000000
95207.000000
95876.000000
96533.000000
97183.000000
97853.000000
98520.000000
99187.000000
99845.000000
100523.000000
101197.000000
101858.000000
102523.000000
103204.000000
103889.000000
104562.000000
105226.000000
105904.000000
106589.000000
107262.000000
107930.000000
108624.000000
109323.000000
110005.000000
110686.000000
111374.000000
112069.000000
112753.000000
113426.000000
114104.000000
114779.000000
115451.000000
116082.000000
116760.000000
117409.000000
118068.000000
118722.000000
119376.000000
120043.000000
120706.000000
121356.000000
122007.000000
122667.000000
123321.000000
123969.000000
124628.000000
125286.000000
125937.000000
126588.000000
127248.000000
127914.000000
128575.000000
129230.000000
129907.000000
130582.000000
131247.000000
131907.000000
132569.000000
133237.000000
133888.000000
134539.000000
135205.000000
135865.000000
136521.000000
137170.000000
137843.000000
138527.000000
139208.000000
139885.000000
140567.000000
141257.000000
141930.000000
142592.000000
143266.000000
143948.000000
144641.000000
145324.000000
145994.000000
146674.000000
147360.000000
148055.000000
148733.000000
149406.000000
150094.000000
150786.000000
151471.000000
152153.000000
152835.000000
153524.000000
154201.000000
154874.000000
155555.000000
156249.000000
156929.000000
157599.000000
158282.000000
158971.000000
159656.000000
160336.000000
161032.000000
161717.000000
162398.000000
163088.000000
163790.000000
164492.000000
165180.000000
165857.000000
166542.000000
167220.000000
167912.000000
168591.000000
169265.000000
169947.000000
170635.000000
171316.000000
171986.000000
172663.000000
173347.000000
174023.000000
174691.000000
175379.000000
176076.000000
176764.000000
177446.000000
178148.000000
178848.000000
179531.000000
180208.000000
180898.000000
181581.000000
182251.000000
182915.000000
183593.000000
184261.000000
184921.000000
185590.000000
186268.000000
186952.000000
187618.000000
188289.000000
188959.000000
189625.000000
190285.000000
190953.000000
191631.000000
192295.000000
192958.000000
193651.000000
194324.000000
194991.000000
195658.000000
196328.000000
197004.000000
197662.000000
198319.000000
198989.000000
199654.000000
200305.000000
200985.000000
201658.000000
202343.000000
203011.000000
203680.000000
204350.000000
205037.000000
205693.000000
206355.000000
207019.000000
207691.000000
208355.000000
209004.000000
209688.000000
210366.000000
211045.000000
211705.000000
212379.000000
213059.000000
213744.000000
214406.000000
215059.000000
215730.000000
216403.000000
217086.000000
217750.000000
218426.000000
219107.000000
219789.000000
220464.000000
221136.000000
221821.000000
222504.000000
223210.000000
223912.000000
224595.000000
225270.000000
225955.000000
226650.000000
227344.000000
228015.000000
228685.000000
229363.000000
230045.000000
230722.000000
231388.000000
232056.000000
232740.000000
233405.000000
234061.000000
234733.000000
235403.000000
236070.000000
236725.000000
237393.000000
238061.000000
238724.000000
239377.000000
240043.000000
240715.000000
241385.000000
242039.000000
242710.000000
243383.000000
244064.000000
244726.000000
245394.000000
246079.000000
246767.000000
247441.000000
248112.000000
248791.000000
249473.000000
250147.000000
250816.000000
251504.000000
252201.000000
252902.000000
253636.000000
254376.000000
255096.000000
255804.000000
256521.000000
257239.000000
257958.000000
258651.000000
259351.000000
260058.000000
260774.000000
261421.000000
262139.000000
262819.000000
263523.000000
264205.000000
264877.000000
265556.000000
266242.000000
266928.000000
267599.000000
268289.000000
268978.000000
269662.000000
270330.000000
271014.000000
271693.000000
272318.000000
273002.000000
273652.000000
274326.000000
274949.000000
275622.000000
276279.000000
276944.000000
277601.000000
278254.000000
278930.000000
279600.000000
280265.000000
280930.000000
281598.000000
282264.000000
282918.000000
283573.000000
284234.000000
284908.000000
285575.000000
286244.000000
286922.000000
287602.000000
288264.000000
288929.000000
289602.000000
290280.000000
290946.000000
291600.000000
292260.000000
292923.000000
293603.000000
294272.000000
294933.000000
295592.000000
296257.000000
296926.000000
297584.000000
298238.000000
298921.000000
299593.000000
300279.000000
300963.000000
301662.000000
302350.000000
303028.000000
303714.000000
304401.000000
305092.000000
305768.000000
306442.000000
307114.000000
307790.000000
308451.000000
309143.000000
309829.000000
310529.000000
311199.000000
311867.000000
312551.000000
313232.000000
313904.000000
314565.000000
315244.000000
315922.000000
316599.000000
317273.000000
317951.000000
318648.000000
319344.000000
320023.000000
320695.000000
321380.000000
322071.000000
322756.000000
323422.000000
324133.000000
324824.000000
325503.000000
326171.000000
326848.000000
327525.000000
328159.000000
328846.000000
329513.000000
330199.000000
330829.000000
331527.000000
332213.000000
332893.000000
333555.000000
334213.000000
334878.000000
335541.000000
336193.000000
336854.000000
337519.000000
338175.000000
338829.000000
339504.000000
340165.000000
340827.000000
341502.000000
342173.000000
342800.000000
343474.000000
344130.000000
344799.000000
345455.000000
346109.000000
346770.000000
347426.000000
348070.000000
348713.000000
349367.000000
350021.000000
350663.000000
351308.000000
351963.000000
352612.000000
353256.000000
353921.000000
354591.000000
355263.000000
355928.000000
356603.000000
357269.000000
357935.000000
358588.000000
359256.000000
359935.000000
360619.000000
361282.000000
361979.000000
362670.000000
363359.000000
364037.000000
364717.000000
365416.000000
366100.000000
366773.000000
367443.000000
368137.000000
368833.000000
369523.000000
370210.000000
370910.000000
371608.000000
372290.000000
372964.000000
373649.000000
374340.000000
375032.000000
375700.000000
376373.000000
377054.000000
377748.000000
378415.000000
379088.000000
379765.000000
380438.000000
381107.000000
381770.000000
382433.000000
383104.000000
383766.000000
384426.000000
385093.000000
385756.000000
386420.000000
387077.000000
387747.000000
388411.000000
389079.000000
389740.000000
390419.000000
391095.000000
391764.000000
392440.000000
393126.000000
393805.000000
394469.000000
395134.000000
395803.000000
396471.000000
397091.000000
397784.000000
398445.000000
399114.000000
399740.000000
400418.000000
401077.000000
401743.000000
402399.000000
403056.000000
403726.000000
404392.000000
405046.000000
405711.000000
406383.000000
407056.000000
407683.000000
408362.000000
409022.000000
409693.000000
410316.000000
410989.000000
411649.000000
412327.000000
413001.000000
413622.000000
414301.000000
414965.000000
415642.000000
416310.000000
416979.000000
417666.000000
418342.000000
419010.000000
419682.000000
420365.000000
421045.000000
421718.000000
422382.000000
423109.000000
423790.000000
424455.000000
425058.000000
425684.000000
426293.000000
426939.000000
427592.000000
428274.000000
428942.000000
429596.000000
430280.000000
430961.000000
431689.000000
432380.000000
433058.000000
433761.000000
434459.000000
435180.000000
435868.000000
436546.000000
437233.000000
437928.000000
438630.000000
439303.000000
439970.000000
440653.000000
441345.000000
442035.000000
442707.000000
443379.000000
444051.000000
444727.000000
445392.000000
446050.000000
446729.000000
447413.000000
448106.000000
448778.000000
449461.000000
450138.000000
450835.000000
451517.000000
452187.000000
452857.000000
453542.000000
454224.000000
454890.000000
455569.000000
456259.000000
456954.000000
457636.000000
458312.000000
459019.000000
459707.000000
460383.000000
461052.000000
461745.000000
462435.000000
463116.000000
463787.000000
464475.000000
465166.000000
465841.000000
466519.000000
467205.000000
467898.000000
468581.000000
469266.000000
469967.000000
470656.000000
471334.000000
472023.000000
472723.000000
473404.000000
474077.000000
474765.000000
475442.000000
476073.000000
476774.000000
477445.000000
478145.000000
478818.000000
479485.000000
480166.000000
480846.000000
481484.000000
482170.000000
482827.000000
483502.000000
484129.000000
484808.000000
485466.000000
486133.000000
486755.000000
487431.000000
488085.000000
488756.000000
489423.000000
490078.000000
490759.000000
491438.000000
492115.000000
492781.000000
493466.000000
494145.000000
494821.000000
495493.000000
496184.000000
496873.000000
497514.000000
498211.000000
498887.000000
499578.000000
500246.000000
500914.000000
501593.000000
502272.000000
502905.000000
503608.000000
504288.000000
504970.000000
505636.000000
506322.000000
507014.000000
507692.000000
508323.000000
509028.000000
509702.000000
510373.000000
510995.000000
511706.000000
512371.000000
513038.000000
513656.000000
514366.000000
515027.000000
515699.000000
516323.000000
517026.000000
517692.000000
518381.000000
519011.000000
519712.000000
520387.000000
521079.000000
521748.000000
522419.000000
523106.000000
523788.000000
524460.000000
525126.000000
525825.000000
526518.000000
527206.000000
527881.000000
528566.000000
529260.000000
529950.000000
530589.000000
531308.000000
531996.000000
532690.000000
533330.000000
534043.000000
534731.000000
535433.000000
536140.000000
536835.000000
537467.000000
538174.000000
538852.000000
539545.000000
540225.000000
540894.000000
541612.000000
542309.000000
543008.000000
543689.000000
544390.000000
545074.000000
545727.000000
546442.000000
547141.000000
547843.000000
548489.000000
549204.000000
549885.000000
550567.000000
551196.000000
551889.000000
552554.000000
553230.000000
553864.000000
554552.000000
555220.000000
555894.000000
556524.000000
557207.000000
557874.000000
558562.000000
559236.000000
559901.000000
560612.000000
561306.000000
561988.000000
562660.000000
563344.000000
564023.000000
564656.000000
565352.000000
566029.000000
566730.000000
567367.000000
568060.000000
568732.000000
569417.000000
570049.000000
570736.000000
571401.000000
572080.000000
572716.000000
573416.000000
574097.000000
574790.000000
575475.000000
576162.000000
576870.000000
577563.000000
578249.000000
578930.000000
579615.000000
580257.000000
580950.000000
581574.000000
582292.000000
582961.000000
583643.000000
584268.000000
584988.000000
585671.000000
586354.000000
587023.000000
587714.000000
588404.000000
589105.000000
589783.000000
590469.000000
591164.000000
591863.000000
592549.000000
593225.000000
593919.000000
594609.000000
595298.000000
595926.000000
596672.000000
597355.000000
598048.000000
598679.000000
599400.000000
600087.000000
600781.000000
601458.000000
602147.000000
602839.000000
603518.000000
604149.000000
604852.000000
605538.000000
606246.000000
606939.000000
607618.000000
608316.000000
609026.000000
609729.000000
610408.000000
611082.000000
611773.000000
612455.000000
613141.000000
613823.000000
614517.000000
615225.000000
615915.000000
616550.000000
617271.000000
617945.000000
618652.000000
619339.000000
620023.000000
620703.000000
621413.000000
622134.000000
622832.000000
623471.000000
624184.000000
624866.000000
625578.000000
626265.000000
626899.000000
627602.000000
628276.000000
628982.000000
629672.000000
630357.000000
630985.000000
631678.000000
632339.000000
633022.000000
633653.000000
634340.000000
635003.000000
635687.000000
636350.000000
637020.000000
637717.000000
638397.000000
639073.000000
639745.000000
640423.000000
641120.000000
641802.000000
642428.000000
643152.000000
643821.000000
644498.000000
645123.000000
645815.000000
646476.000000
647152.000000
647780.000000
648471.000000
649143.000000
649816.000000
650441.000000
651129.000000
651796.000000
652467.000000
653132.000000
653792.000000
654457.000000
655125.000000
655750.000000
656430.000000
657100.000000
657775.000000
658409.000000
659093.000000
659759.000000
660432.000000
661100.000000
661759.000000
662437.000000
663112.000000
663741.000000
664433.000000
665102.000000
665771.000000
666395.000000
667079.000000
667742.000000
668424.000000
669092.000000
669764.000000
670460.000000
671137.000000
671763.000000
672382.000000
673000.000000
673613.000000
674254.000000
674898.000000
675556.000000
676209.000000
676853.000000
677509.000000
678171.000000
678830.000000
679473.000000
680140.000000
680810.000000
681486.000000
682144.000000
682800.000000
683461.000000
684126.000000
684793.000000
685441.000000
686093.000000
686748.000000
687416.000000
688070.000000
688719.000000
689380.000000
690048.000000
690712.000000
691362.000000
692031.000000
692705.000000
693371.000000
694035.000000
694704.000000
695377.000000
696041.000000
696689.000000
697353.000000
698024.000000
698696.000000
699350.000000
700010.000000
700681.000000
701354.000000
702015.000000
702690.000000
703377.000000
704066.000000
704755.000000
705448.000000
706147.000000
706833.000000
707465.000000
708168.000000
708846.000000
709546.000000
710213.000000
710873.000000
711553.000000
712228.000000
712905.000000
713562.000000
714244.000000
714926.000000
715616.000000
716244.000000
716943.000000
717606.000000
718296.000000
718990.000000
719667.000000
720336.000000
721005.000000
721679.000000
722302.000000
722984.000000
723642.000000
724318.000000
724981.000000
725633.000000
726308.000000
726976.000000
727648.000000
728302.000000
728983.000000
729660.000000
730326.000000
730998.000000
731706.000000
732409.000000
733111.000000
733783.000000
734474.000000
735178.000000
735878.000000
736569.000000
737254.000000
737931.000000
738538.000000
739247.000000
739903.000000
740578.000000
741186.000000
741856.000000
742506.000000
743165.000000
743811.000000
744466.000000
745119.000000
745766.000000
746378.000000
