ECG (ms)
215.000000
1515.000000
2838.000000
4185.000000
5521.000000
6833.000000
8045.000000
9361.000000
10498.000000
11825.000000
13068.000000
14427.000000
15699.000000
17014.000000
18302.000000
19522.000000
20748.000000
21953.000000
23231.000000
24362.000000
25698.000000
26943.000000
28257.000000
29594.000000
30805.000000
32115.000000
33263.000000
34530.000000
35845.000000
37143.000000
38487.000000
39670.000000
41004.000000
42235.000000
43534.000000
44778.000000
45921.000000
47247.000000
48489.000000
49794.000000
51133.000000
52381.000000
53720.000000
54933.000000
56272.000000
57475.000000
58766.000000
60150.000000
61384.000000
62788.000000
64161.000000
65572.000000
66899.000000
68208.000000
69570.000000
70878.000000
72209.000000
73404.000000
74798.000000
76051.000000
77421.000000
78670.000000
79942.000000
81199.000000
82428.000000
83736.000000
85023.000000
86364.000000
87552.000000
88878.000000
90127.000000
91390.000000
92681.000000
93904.000000
95214.000000
96443.000000
97712.000000
99019.000000
100239.000000
101537.000000
102722.000000
104106.000000
105318.000000
106700.000000
108020.000000
109383.000000
110735.000000
112056.000000
113400.000000
114712.000000
116067.000000
117369.000000
118709.000000
119982.000000
121336.000000
122630.000000
123961.000000
125254.000000
126614.000000
127793.000000
129111.000000
130346.000000
131682.000000
132931.000000
134251.000000
135472.000000
136659.000000
138056.000000
139214.000000
140588.000000
141844.000000
143181.000000
144480.000000
145686.000000
147029.000000
148199.000000
149457.000000
150744.000000
152024.000000
153420.000000
154693.000000
156048.000000
157285.000000
158625.000000
159882.000000
161217.000000
162533.000000
163861.000000
165192.000000
166340.000000
167741.000000
168916.000000
170296.000000
171563.000000
172902.000000
174237.000000
175523.000000
176840.000000
178071.000000
179442.000000
180632.000000
181968.000000
183232.000000
184536.000000
185867.000000
187114.000000
188430.000000
189584.000000
190876.000000
192090.000000
193339.000000
194635.000000
195806.000000
197182.000000
198337.000000
199660.000000
200909.000000
202227.000000
203587.000000
204877.000000
206208.000000
207426.000000
208768.000000
209917.000000
211266.000000
212477.000000
213728.000000
215112.000000
216312.000000
217670.000000
218904.000000
220163.000000
221476.000000
222671.000000
224016.000000
225254.000000
226534.000000
227880.000000
229074.000000
230398.000000
231605.000000
232975.000000
234281.000000
235516.000000
236850.000000
238159.000000
239473.000000
240644.000000
241954.000000
243177.000000
244489.000000
245761.000000
247048.000000
248372.000000
249515.000000
250812.000000
252045.000000
253242.000000
254604.000000
255799.000000
257090.000000
258429.000000
259561.000000
260886.000000
262125.000000
263406.000000
264784.000000
265969.000000
267274.000000
268588.000000
269712.000000
271072.000000
272313.000000
273610.000000
274942.000000
276131.000000
277467.000000
278670.000000
279962.000000
281232.000000
282496.000000
283775.000000
284913.000000
286199.000000
287424.000000
288757.000000
290091.000000
291230.000000
292563.000000
293814.000000
295089.000000
296415.000000
297598.000000
298962.000000
300205.000000
301485.000000
302785.000000
303962.000000
305291.000000
306577.000000
307940.000000
309286.000000
310497.000000
311775.000000
313092.000000
314375.000000
315720.000000
316903.000000
318240.000000
319452.000000
320778.000000
322079.000000
323365.000000
324732.000000
325859.000000
327204.000000
328465.000000
329766.000000
331175.000000
332326.000000
333698.000000
335021.000000
336316.000000
337674.000000
338919.000000
340242.000000
341627.000000
342801.000000
344207.000000
345498.000000
346734.000000
348115.000000
349393.000000
350679.000000
352022.000000
353291.000000
354631.000000
356008.000000
357191.000000
358517.000000
359812.000000
361028.000000
362415.000000
363671.000000
365034.000000
366372.000000
367627.000000
368977.000000
370209.000000
371615.000000
372987.000000
374268.000000
375571.000000
376851.000000
378167.000000
379410.000000
380742.000000
381938.000000
383171.000000
384470.000000
385605.000000
386933.000000
388121.000000
389373.000000
390654.000000
391879.000000
393228.000000
394415.000000
395740.000000
396949.000000
398222.000000
399547.000000
400731.000000
402047.000000
403359.000000
404546.000000
405903.000000
407143.000000
408478.000000
409829.000000
410990.000000
412331.000000
413606.000000
414764.000000
416083.000000
417360.000000
418564.000000
419943.000000
421170.000000
422461.000000
423795.000000
424930.000000
426221.000000
427496.000000
428650.000000
430019.000000
431269.000000
432581.000000
433906.000000
435041.000000
436319.000000
437605.000000
438718.000000
440040.000000
441204.000000
442462.000000
443696.000000
445024.000000
446294.000000
447397.000000
448736.000000
449944.000000
451268.000000
452624.000000
453818.000000
455098.000000
456305.000000
457559.000000
458906.000000
460122.000000
461457.000000
462597.000000
463892.000000
465012.000000
466228.000000
467465.000000
468455.000000
469545.000000
470601.000000
471738.000000
472969.000000
474140.000000
475266.000000
476367.000000
477517.000000
478525.000000
479684.000000
480932.000000
482063.000000
483334.000000
484561.000000
485654.000000
486968.000000
488229.000000
489501.000000
490804.000000
491955.000000
493224.000000
494456.000000
495740.000000
497035.000000
498196.000000
499508.000000
500676.000000
501990.000000
503246.000000
504571.000000
505872.000000
507161.000000
508483.000000
509590.000000
510950.000000
512232.000000
513526.000000
514861.000000
516048.000000
517375.000000
518681.000000
519732.000000
520645.000000
522189.000000
523562.000000
524821.000000
526206.000000
527452.000000
528759.000000
530003.000000
531294.000000
532491.000000
533764.000000
535063.000000
536267.000000
537584.000000
538760.000000
540009.000000
541250.000000
542460.000000
543721.000000
544821.000000
546133.000000
547304.000000
548584.000000
549887.000000
551061.000000
552325.000000
553541.000000
554727.000000
556004.000000
557157.000000
558449.000000
559739.000000
560898.000000
562187.000000
563387.000000
564697.000000
566010.000000
567341.000000
568682.000000
569916.000000
571273.000000
572456.000000
573750.000000
574993.000000
576213.000000
577530.000000
578736.000000
580051.000000
581195.000000
582524.000000
583673.000000
584978.000000
586144.000000
587417.000000
588586.000000
589867.000000
591026.000000
592275.000000
593537.000000
594700.000000
596035.000000
597142.000000
598377.000000
599610.000000
600795.000000
602178.000000
603329.000000
604612.000000
605831.000000
607001.000000
608243.000000
609456.000000
610821.000000
611963.000000
613308.000000
614453.000000
615743.000000
616936.000000
618238.000000
619521.000000
620691.000000
622037.000000
623246.000000
624505.000000
625767.000000
626947.000000
628264.000000
629402.000000
630749.000000
631976.000000
633277.000000
634547.000000
635868.000000
637162.000000
638319.000000
639625.000000
640788.000000
642120.000000
643359.000000
644660.000000
645942.000000
647183.000000
648510.000000
649641.000000
650972.000000
652190.000000
653499.000000
654834.000000
656025.000000
657335.000000
658473.000000
659737.000000
660944.000000
662138.000000
663381.000000
664495.000000
665747.000000
667043.000000
668158.000000
669521.000000
670760.000000
672030.000000
673343.000000
674541.000000
675803.000000
677039.000000
678284.000000
679558.000000
680735.000000
682045.000000
683285.000000
684612.000000
685737.000000
687049.000000
688209.000000
689545.000000
690789.000000
692095.000000
693361.000000
694549.000000
695841.000000
697033.000000
698316.000000
699588.000000
700872.000000
702174.000000
703288.000000
704583.000000
705857.000000
707124.000000
708468.000000
709652.000000
710907.000000
712157.000000
713309.000000
714603.000000
715800.000000
717012.000000
718320.000000
719478.000000
720747.000000
721967.000000
723147.000000
724448.000000
725651.000000
726871.000000
728142.000000
729256.000000
730465.000000
731705.000000
732769.000000
734087.000000
735307.000000
736533.000000
737823.000000
738927.000000
740198.000000
741353.000000
742516.000000
743746.000000
744813.000000
746148.000000
747403.000000
748595.000000
749813.000000
750884.000000
752128.000000
753341.000000
754450.000000
755728.000000
756861.000000
758092.000000
759342.000000
760434.000000
761675.000000
762894.000000
764013.000000
765267.000000
766474.000000
767633.000000
768919.000000
770063.000000
771270.000000
772502.000000
773562.000000
774837.000000
776040.000000
777148.000000
778485.000000
779721.000000
780962.000000
782285.000000
783485.000000
784740.000000
785999.000000
787244.000000
788548.000000
789690.000000
791035.000000
792227.000000
793561.000000
794872.000000
796129.000000
797464.000000
798638.000000
799927.000000
801202.000000
802476.000000
803831.000000
805048.000000
806353.000000
807639.000000
808886.000000
810230.000000
811453.000000
812776.000000
814084.000000
815224.000000
816516.000000
817725.000000
818974.000000
820340.000000
821497.000000
822810.000000
824141.000000
825337.000000
826660.000000
827975.000000
829253.000000
830555.000000
831825.000000
833121.000000
834355.000000
835640.000000
836729.000000
838055.000000
839264.000000
840536.000000
841864.000000
843042.000000
844383.000000
845641.000000
846850.000000
848096.000000
849266.000000
850469.000000
851698.000000
852746.000000
854089.000000
855282.000000
856574.000000
857828.000000
859116.000000
860385.000000
861616.000000
862837.000000
864094.000000
865423.000000
866642.000000
868024.000000
869246.000000
870555.000000
871778.000000
873055.000000
874209.000000
875480.000000
876768.000000
877981.000000
879292.000000
880405.000000
881743.000000
882973.000000
884299.000000
885533.000000
886715.000000
888028.000000
889222.000000
890472.000000
891641.000000
892910.000000
894034.000000
895232.000000
896449.000000
897640.000000
898888.000000
900048.000000
901272.000000
902436.000000
903650.000000
904728.000000
905978.000000
907042.000000
908233.000000
909344.000000
910466.000000
911757.000000
912894.000000
914135.000000
915321.000000
916418.000000
917367.000000
918303.000000
919431.000000
920678.000000
921884.000000
922997.000000
924135.000000
925343.000000
926460.000000
927638.000000
928734.000000
929909.000000
931133.000000
932197.000000
933435.000000
934579.000000
935793.000000
937061.000000
938162.000000
939448.000000
940691.000000
941976.000000
943266.000000
944446.000000
945737.000000
946974.000000
947931.000000
948797.000000
950359.000000
951737.000000
953127.000000
954447.000000
955732.000000
957042.000000
958387.000000
959512.000000
960909.000000
962271.000000
963563.000000
964890.000000
966246.000000
967541.000000
968860.000000
970206.000000
971458.000000
972744.000000
974078.000000
975341.000000
976537.000000
977845.000000
979092.000000
980264.000000
981589.000000
982900.000000
984084.000000
985403.000000
986728.000000
987905.000000
989209.000000
990478.000000
991667.000000
992929.000000
994222.000000
995316.000000
996688.000000
997910.000000
999224.000000
1000522.000000
1001791.000000
1003071.000000
1004218.000000
1005516.000000
1006695.000000
1007978.000000
1009272.000000
1010395.000000
1011728.000000
1013024.000000
1014228.000000
1015597.000000
1016805.000000
1018102.000000
1019382.000000
1020561.000000
1021903.000000
1023175.000000
1024478.000000
1025798.000000
1026923.000000
1028194.000000
1029501.000000
1030681.000000
1032025.000000
1033256.000000
1034534.000000
1035839.000000
1037132.000000
1038395.000000
1039739.000000
1040981.000000
1042337.000000
1043543.000000
1044870.000000
1046168.000000
1047480.000000
1048813.000000
1050108.000000
1051486.000000
1052681.000000
1053970.000000
1055148.000000
1056512.000000
1057855.000000
1059150.000000
1060497.000000
1061731.000000
1063005.000000
1064262.000000
1065396.000000
1066782.000000
1068038.000000
1069330.000000
1070634.000000
1071758.000000
1073086.000000
1074365.000000
1075672.000000
1077018.000000
1078261.000000
1079560.000000
1080845.000000
1081981.000000
1083254.000000
1084533.000000
1085667.000000
1086952.000000
1088216.000000
1089389.000000
1090666.000000
1091758.000000
1093032.000000
1094254.000000
1095593.000000
1096923.000000
1098092.000000
1099351.000000
1100429.000000
1101670.000000
1102885.000000
1104110.000000
1105440.000000
1106609.000000
1107904.000000
1109104.000000
1110368.000000
1111679.000000
1112884.000000
1114154.000000
1115289.000000
1116508.000000
1117738.000000
1118903.000000
1120186.000000
1121281.000000
1122611.000000
1123865.000000
1125140.000000
1126450.000000
1127590.000000
1128870.000000
1130099.000000
1131298.000000
1132634.000000
1133800.000000
1135069.000000
1136305.000000
1137487.000000
1138660.000000
1139918.000000
1141182.000000
1142470.000000
1143765.000000
1144959.000000
1146172.000000
1147413.000000
1148656.000000
1149933.000000
1151273.000000
1152565.000000
1153867.000000
1155138.000000
1156520.000000
1157672.000000
1159029.000000
1160157.000000
1161502.000000
1162794.000000
1164048.000000
1165400.000000
1166596.000000
1167867.000000
1169008.000000
1170241.000000
1171539.000000
1172709.000000
1173999.000000
1175327.000000
1176562.000000
1177869.000000
1179111.000000
1180361.000000
1181716.000000
1182875.000000
1184228.000000
1185501.000000
1186788.000000
1188018.000000
1189275.000000
1190548.000000
1191651.000000
1192991.000000
1194205.000000
1195512.000000
1196805.000000
1198078.000000
1199375.000000
1200552.000000
1201821.000000
1203002.000000
1204314.000000
1205569.000000
1206877.000000
1208168.000000
1209385.000000
1210706.000000
1211942.000000
1213177.000000
1214527.000000
1215762.000000
1217013.000000
1218390.000000
1219563.000000
1220904.000000
1222220.000000
1223375.000000
1224720.000000
1226044.000000
1227305.000000
1228729.000000
1229960.000000
1231269.000000
1232578.000000
1233735.000000
1235093.000000
1236331.000000
1237580.000000
1238905.000000
1240121.000000
1241386.000000
1242720.000000
1243839.000000
1245211.000000
1246488.000000
1247783.000000
1249135.000000
1250301.000000
1251659.000000
1252928.000000
1254193.000000
1255506.000000
1256741.000000
1258038.000000
1259396.000000
1260626.000000
1261897.000000
1263185.000000
1264363.000000
1265616.000000
1266899.000000
1268221.000000
1269603.000000
1270817.000000
1272115.000000
1273417.000000
1274757.000000
1276099.000000
1277447.000000
1278652.000000
1279984.000000
1281059.000000
1282488.000000
1283678.000000
1285034.000000
1286235.000000
1287527.000000
1288738.000000
1289983.000000
1291242.000000
1292318.000000
1293634.000000
1294841.000000
1296039.000000
1297355.000000
1298471.000000
1299764.000000
1301030.000000
1302219.000000
1303518.000000
1304710.000000
1305870.000000
1307138.000000
1308224.000000
1309507.000000
1310760.000000
1311986.000000
1313327.000000
1314574.000000
1315822.000000
1317078.000000
1318286.000000
1319546.000000
1320907.000000
1322014.000000
1323332.000000
1324652.000000
1325899.000000
1327258.000000
1328522.000000
1329856.000000
1331186.000000
1332391.000000
1333710.000000
1335014.000000
1336187.000000
1337560.000000
1338855.000000
1339988.000000
1341371.000000
1342676.000000
1344069.000000
1345383.000000
1346736.000000
1348089.000000
1349234.000000
1350518.000000
1351828.000000
1352947.000000
1354345.000000
1355655.000000
1356809.000000
1358144.000000
1359420.000000
1360692.000000
1361989.000000
1363173.000000
1364462.000000
1365824.000000
1366996.000000
1368334.000000
1369691.000000
1370994.000000
1372414.000000
1373763.000000
1375026.000000
1376371.000000
1377598.000000
1378871.000000
1380234.000000
1381444.000000
1382770.000000
1384097.000000
1385296.000000
1386664.000000
1387910.000000
1389174.000000
1390514.000000
1391647.000000
1392975.000000
1394266.000000
1395523.000000
1396797.000000
1397894.000000
1399248.000000
1400386.000000
1401665.000000
1402800.000000
1404101.000000
1405333.000000
1406605.000000
1407873.000000
1408975.000000
1410191.000000
1411287.000000
1412591.000000
1413702.000000
1414971.000000
1416126.000000
1417382.000000
1418545.000000
1419780.000000
1420868.000000
1422121.000000
1423216.000000
1424432.000000
1425607.000000
1426792.000000
1427946.000000
1428955.000000
1429956.000000
1431145.000000
1432285.000000
1433402.000000
1434569.000000
1435655.000000
1436756.000000
1437751.000000
1438872.000000
1439944.000000
1441074.000000
1442134.000000
1443230.000000
1444369.000000
1445399.000000
1446475.000000
1447610.000000
1448744.000000
1449908.000000
1450955.000000
1452135.000000
1453266.000000
1454444.000000
1455676.000000
1456835.000000
1458054.000000
1459152.000000
1460384.000000
1461546.000000
1462765.000000
1463965.000000
1465207.000000
1466402.000000
1467641.000000
1468850.000000
1470102.000000
1471219.000000
1472261.000000
1473423.000000
1474583.000000
1475755.000000
1476974.000000
1478090.000000
1479335.000000
1480481.000000
1481628.000000
1482882.000000
1484090.000000
1485277.000000
1486454.000000
1487471.000000
1488728.000000
1490046.000000
1491303.000000
1492548.000000
1493790.000000
1495038.000000
1496261.000000
1497440.000000
1498584.000000
1499904.000000
1501161.000000
1502441.000000
1503667.000000
1504975.000000
1506141.000000
1507471.000000
1508629.000000
1509967.000000
1511313.000000
1512546.000000
1513568.000000
1514933.000000
1516273.000000
1517534.000000
1518827.000000
1520145.000000
1521444.000000
1522826.000000
1523997.000000
1525400.000000
1526620.000000
1527964.000000
1529362.000000
1530620.000000
1532036.000000
1533197.000000
1534108.000000
1535238.000000
1536742.000000
1538087.000000
1539458.000000
1540634.000000
1541970.000000
1543221.000000
1544479.000000
1545779.000000
1546962.000000
1548267.000000
1549517.000000
1550680.000000
1552013.000000
1553235.000000
1554514.000000
1555828.000000
1557036.000000
1558388.000000
1559664.000000
1560912.000000
1562262.000000
1563500.000000
1564738.000000
1566056.000000
1567201.000000
1568506.000000
1569888.000000
1571129.000000
1572429.000000
1573768.000000
1574943.000000
1576326.000000
1577595.000000
1578906.000000
1580225.000000
1581355.000000
1582721.000000
1583999.000000
1585268.000000
1586651.000000
1587871.000000
1589199.000000
1590364.000000
1591710.000000
1592933.000000
1594259.000000
1595566.000000
1596722.000000
1598103.000000
1599313.000000
1600600.000000
1601908.000000
1603114.000000
1604445.000000
1605684.000000
1606960.000000
1608253.000000
1609420.000000
1610687.000000
1611950.000000
1613141.000000
1614483.000000
1615712.000000
1616979.000000
1618314.000000
1619425.000000
1620749.000000
1621963.000000
1623219.000000
1624528.000000
1625776.000000
1627091.000000
1628302.000000
1629633.000000
1630836.000000
1632138.000000
1633336.000000
1634640.000000
1635952.000000
1637092.000000
1638426.000000
1639552.000000
1640891.000000
1642098.000000
1643396.000000
1644763.000000
1645931.000000
1647242.000000
1648362.000000
1649592.000000
1650762.000000
1652093.000000
1653366.000000
1654538.000000
1655825.000000
1657003.000000
1658237.000000
1659496.000000
1660606.000000
1661895.000000
1663076.000000
1664348.000000
1665630.000000
1666801.000000
1668076.000000
1669327.000000
1670582.000000
1671799.000000
1672963.000000
1674235.000000
1675340.000000
1676700.000000
1677946.000000
1679209.000000
1680505.000000
1681596.000000
1682880.000000
1684106.000000
1685279.000000
1686585.000000
1687687.000000
1689006.000000
1690240.000000
1691397.000000
1692778.000000
1693943.000000
1695304.000000
1696423.000000
1697822.000000
1699049.000000
1700278.000000
1701529.000000
1702588.000000
1703858.000000
1705105.000000
1706356.000000
1707644.000000
1708799.000000
1710044.000000
1711255.000000
1712384.000000
1713595.000000
1714663.000000
1715910.000000
1717085.000000
1718334.000000
1719619.000000
1720739.000000
1721981.000000
1723128.000000
1724352.000000
1725610.000000
1726784.000000
1728018.000000
1729274.000000
1730383.000000
1731668.000000
1732917.000000
1734137.000000
1735462.000000
1736698.000000
1737962.000000
1739222.000000
1740433.000000
1741752.000000
1742897.000000
1744176.000000
1745451.000000
1746691.000000
1748031.000000
1749259.000000
1750574.000000
1751837.000000
1753043.000000
1754372.000000
1755612.000000
1756880.000000
1758205.000000
1759405.000000
1760655.000000
1761957.000000
1763117.000000
1764422.000000
1765727.000000
1766920.000000
1768312.000000
1769635.000000
1770934.000000
1772295.000000
1773542.000000
1774838.000000
1776124.000000
1777287.000000
1778620.000000
1779802.000000
1781150.000000
1782377.000000
1783704.000000
1784958.000000
1786198.000000
1787479.000000
1788680.000000
1789953.000000
1791203.000000
1792358.000000
1793678.000000
1794942.000000
1796211.000000
1797535.000000
1798646.000000
1799962.000000
1801108.000000
1802384.000000
1803665.000000
1804910.000000
1806254.000000
1807418.000000
1808758.000000
1809953.000000
1811226.000000
1812470.000000
1813774.000000
1815098.000000
1816342.000000
1817636.000000
1818760.000000
1820052.000000
1821215.000000
1822434.000000
1823761.000000
1825041.000000
1826313.000000
1827550.000000
1828787.000000
1829998.000000
1831268.000000
1832403.000000
1833446.000000
1834849.000000
1836148.000000
1837338.000000
1838630.000000
1839799.000000
1841075.000000
1842334.000000
1843548.000000
1844859.000000
1846078.000000
1847127.000000
1848436.000000
1849721.000000
1850901.000000
1852160.000000
1853341.000000
1854583.000000
1855853.000000
1857093.000000
1858387.000000
1859520.000000
1860811.000000
1862039.000000
1863243.000000
1864508.000000
1865640.000000
1866873.000000
1868062.000000
1869227.000000
1870467.000000
1871600.000000
1872792.000000
1874008.000000
1875120.000000
1876411.000000
1877614.000000
1878859.000000
1880121.000000
1881259.000000
1882599.000000
1883785.000000
1885020.000000
1886288.000000
1887448.000000
1888706.000000
1889838.000000
1891085.000000
1892363.000000
1893515.000000
1894794.000000
1895900.000000
1897157.000000
1898367.000000
1899579.000000
1900838.000000
1901931.000000
1903218.000000
1904379.000000
1905600.000000
1906845.000000
1907895.000000
1909162.000000
1910343.000000
1911599.000000
1912859.000000
1913998.000000
1915301.000000
1916519.000000
1917807.000000
1918987.000000
1920269.000000
1921402.000000
1922697.000000
1923870.000000
1925090.000000
