ECG (ms)
781.000000
1612.000000
2424.000000
3330.000000
4241.000000
5099.000000
6106.000000
7096.000000
7994.000000
8788.000000
9555.000000
10373.000000
11426.000000
12374.000000
13234.000000
14171.000000
15125.000000
16079.000000
16930.000000
17798.000000
18747.000000
19811.000000
20745.000000
21685.000000
22701.000000
23677.000000
24592.000000
25407.000000
26152.000000
27198.000000
28181.000000
29129.000000
30101.000000
31109.000000
32129.000000
33093.000000
34048.000000
34926.000000
35898.000000
36857.000000
37714.000000
38689.000000
39767.000000
40755.000000
41641.000000
42528.000000
43568.000000
44562.000000
45438.000000
46381.000000
47328.000000
48240.000000
49071.000000
50019.000000
51057.000000
51979.000000
52833.000000
53814.000000
54862.000000
55820.000000
56654.000000
57568.000000
58509.000000
59481.000000
60389.000000
61480.000000
62488.000000
63462.000000
64397.000000
65245.000000
66204.000000
67325.000000
68315.000000
69259.000000
70179.000000
71079.000000
72061.000000
72915.000000
73810.000000
74930.000000
75945.000000
76936.000000
77943.000000
78967.000000
79987.000000
80948.000000
81886.000000
82775.000000
83832.000000
84889.000000
85881.000000
86824.000000
87647.000000
88532.000000
89579.000000
90610.000000
91568.000000
92551.000000
93560.000000
94546.000000
95511.000000
96344.000000
97153.000000
98077.000000
99192.000000
100210.000000
101170.000000
102168.000000
103176.000000
104188.000000
105138.000000
106117.000000
107063.000000
108028.000000
108897.000000
109819.000000
110799.000000
111759.000000
112581.000000
113492.000000
114461.000000
115394.000000
116252.000000
117224.000000
118269.000000
119215.000000
120234.000000
121281.000000
122280.000000
123294.000000
124335.000000
125374.000000
126361.000000
127400.000000
128415.000000
129382.000000
130274.000000
131150.000000
132138.000000
133163.000000
134056.000000
134994.000000
135982.000000
136911.000000
137732.000000
138628.000000
139555.000000
140495.000000
141351.000000
142251.000000
143284.000000
144298.000000
145161.000000
145994.000000
146904.000000
147900.000000
148883.000000
149764.000000
150785.000000
151829.000000
152823.000000
153673.000000
154609.000000
155566.000000
156411.000000
157194.000000
158031.000000
158995.000000
159993.000000
160855.000000
161719.000000
162671.000000
163627.000000
164454.000000
165271.000000
166174.000000
167122.000000
167979.000000
168822.000000
169773.000000
170686.000000
171494.000000
172295.000000
173135.000000
174133.000000
175065.000000
175898.000000
176759.000000
177787.000000
178796.000000
179704.000000
180594.000000
181551.000000
182487.000000
183324.000000
184196.000000
185175.000000
186152.000000
187063.000000
187963.000000
188936.000000
189912.000000
190798.000000
191666.000000
192610.000000
193562.000000
194400.000000
195213.000000
196144.000000
197091.000000
197956.000000
198948.000000
200061.000000
201047.000000
201941.000000
202828.000000
203790.000000
204663.000000
205524.000000
206457.000000
207354.000000
208229.000000
209213.000000
210242.000000
211165.000000
211969.000000
212860.000000
213842.000000
214687.000000
215539.000000
216413.000000
217330.000000
218160.000000
219020.000000
219963.000000
220941.000000
221854.000000
222652.000000
223456.000000
224315.000000
225184.000000
226044.000000
227042.000000
228090.000000
229042.000000
229884.000000
230745.000000
231636.000000
232518.000000
233333.000000
234184.000000
235084.000000
235981.000000
236802.000000
237661.000000
238539.000000
239377.000000
240186.000000
240963.000000
241825.000000
242760.000000
243597.000000
244416.000000
245281.000000
246240.000000
247199.000000
248037.000000
248918.000000
249867.000000
250826.000000
251702.000000
252560.000000
253548.000000
254635.000000
255682.000000
256593.000000
257551.000000
258544.000000
259420.000000
260254.000000
261364.000000
262416.000000
263420.000000
264291.000000
265243.000000
266190.000000
267210.000000
268098.000000
268997.000000
270105.000000
271168.000000
272171.000000
273014.000000
273786.000000
274613.000000
275673.000000
276622.000000
277558.000000
278666.000000
279699.000000
280689.000000
281685.000000
282697.000000
283668.000000
284509.000000
285302.000000
286158.000000
287093.000000
288017.000000
288923.000000
289977.000000
291051.000000
291997.000000
292911.000000
293824.000000
294755.000000
295594.000000
296420.000000
297329.000000
298283.000000
299163.000000
300051.000000
301073.000000
302051.000000
302876.000000
303703.000000
304599.000000
305625.000000
306544.000000
307523.000000
308611.000000
309676.000000
310586.000000
311508.000000
312531.000000
313549.000000
314430.000000
315359.000000
316371.000000
317433.000000
318353.000000
319263.000000
320296.000000
321297.000000
322156.000000
322998.000000
323961.000000
325040.000000
325994.000000
326890.000000
327941.000000
328967.000000
329879.000000
330800.000000
331741.000000
332761.000000
333601.000000
334417.000000
335335.000000
336346.000000
337266.000000
338249.000000
339276.000000
340211.000000
341041.000000
341898.000000
342807.000000
343681.000000
344483.000000
345369.000000
346307.000000
347170.000000
347967.000000
348819.000000
349684.000000
350621.000000
351487.000000
352341.000000
353227.000000
354180.000000
354964.000000
355736.000000
356510.000000
357314.000000
358116.000000
358929.000000
359952.000000
360978.000000
361912.000000
362836.000000
363799.000000
364714.000000
365498.000000
366285.000000
367072.000000
367877.000000
368669.000000
369501.000000
370497.000000
371484.000000
372363.000000
373324.000000
374294.000000
375129.000000
375898.000000
376698.000000
377504.000000
378313.000000
379103.000000
380092.000000
381079.000000
381981.000000
382858.000000
383810.000000
384743.000000
385553.000000
386475.000000
387367.000000
388239.000000
389041.000000
389957.000000
390833.000000
391705.000000
392467.000000
393273.000000
394175.000000
395107.000000
395922.000000
396714.000000
397552.000000
398452.000000
399274.000000
400100.000000
400993.000000
401888.000000
402692.000000
403514.000000
404399.000000
405307.000000
406101.000000
406873.000000
407714.000000
408595.000000
409475.000000
410396.000000
411391.000000
412357.000000
413210.000000
414072.000000
414974.000000
415865.000000
416670.000000
417535.000000
418399.000000
419250.000000
420055.000000
420966.000000
421911.000000
422770.000000
423560.000000
424453.000000
425367.000000
426234.000000
427040.000000
427963.000000
428953.000000
429830.000000
430681.000000
431570.000000
432515.000000
433362.000000
434229.000000
435180.000000
436057.000000
436834.000000
437673.000000
438552.000000
439427.000000
440225.000000
441108.000000
442021.000000
442833.000000
443600.000000
444398.000000
445202.000000
446035.000000
446883.000000
447781.000000
448688.000000
449577.000000
450433.000000
451313.000000
452180.000000
452962.000000
453776.000000
454636.000000
455500.000000
456315.000000
457122.000000
457955.000000
458775.000000
459556.000000
460376.000000
461216.000000
462090.000000
462912.000000
463706.000000
464516.000000
465350.000000
466127.000000
466932.000000
467757.000000
468667.000000
469501.000000
470381.000000
471283.000000
472151.000000
472960.000000
473774.000000
474629.000000
475561.000000
476432.000000
477284.000000
478166.000000
479033.000000
479839.000000
480692.000000
481579.000000
482511.000000
483382.000000
484234.000000
485247.000000
486254.000000
487171.000000
487990.000000
488801.000000
489662.000000
490543.000000
491360.000000
492264.000000
493228.000000
494096.000000
495032.000000
496015.000000
496983.000000
497869.000000
498729.000000
499651.000000
500514.000000
501348.000000
502304.000000
503325.000000
504270.000000
505154.000000
506111.000000
507113.000000
507994.000000
508832.000000
509790.000000
510779.000000
511686.000000
512568.000000
513623.000000
514690.000000
515634.000000
516588.000000
517630.000000
518620.000000
519479.000000
520471.000000
521492.000000
522413.000000
523250.000000
524148.000000
525089.000000
525970.000000
526788.000000
527672.000000
528572.000000
529423.000000
530218.000000
530956.000000
531646.000000
532401.000000
533421.000000
534312.000000
535112.000000
535984.000000
536918.000000
537860.000000
538697.000000
539473.000000
540313.000000
541165.000000
542000.000000
542788.000000
543557.000000
544405.000000
545326.000000
546200.000000
546998.000000
547811.000000
548729.000000
549655.000000
550502.000000
551296.000000
552173.000000
553129.000000
554136.000000
555006.000000
555810.000000
556636.000000
557511.000000
558513.000000
559447.000000
560387.000000
561409.000000
562400.000000
563278.000000
564104.000000
565028.000000
566024.000000
566997.000000
567860.000000
568791.000000
569848.000000
570875.000000
571752.000000
572634.000000
573671.000000
574714.000000
575621.000000
576512.000000
577480.000000
578500.000000
579431.000000
580253.000000
581104.000000
582137.000000
583139.000000
583992.000000
584866.000000
585908.000000
586852.000000
587707.000000
588645.000000
589780.000000
590849.000000
591857.000000
592900.000000
593954.000000
594889.000000
595757.000000
596695.000000
597648.000000
598514.000000
599441.000000
600476.000000
601414.000000
602254.000000
603135.000000
604101.000000
604955.000000
605841.000000
606764.000000
607695.000000
608542.000000
609482.000000
610491.000000
611362.000000
612172.000000
613026.000000
613964.000000
614945.000000
615842.000000
616929.000000
618003.000000
618996.000000
619910.000000
620839.000000
621844.000000
622704.000000
623500.000000
624363.000000
625434.000000
626476.000000
627467.000000
628502.000000
629556.000000
630609.000000
631606.000000
632661.000000
633717.000000
634726.000000
635687.000000
636610.000000
637685.000000
638742.000000
639626.000000
640564.000000
641597.000000
642617.000000
643470.000000
644291.000000
645197.000000
646215.000000
647229.000000
648122.000000
649067.000000
650127.000000
651182.000000
652094.000000
653030.000000
654000.000000
654976.000000
655850.000000
656766.000000
657801.000000
658812.000000
659702.000000
660605.000000
661605.000000
662594.000000
663440.000000
664275.000000
665164.000000
666158.000000
667036.000000
667934.000000
668907.000000
669897.000000
670750.000000
671574.000000
672458.000000
673393.000000
674217.000000
675014.000000
675989.000000
677050.000000
678054.000000
678960.000000
679900.000000
680871.000000
681792.000000
682685.000000
683623.000000
684578.000000
685497.000000
686313.000000
687107.000000
687997.000000
688864.000000
689741.000000
690552.000000
691360.000000
692220.000000
693081.000000
693877.000000
694698.000000
695554.000000
696487.000000
697309.000000
698087.000000
698861.000000
699633.000000
700388.000000
701174.000000
702042.000000
703007.000000
703881.000000
704713.000000
705566.000000
706399.000000
707181.000000
707934.000000
708723.000000
709546.000000
710369.000000
711155.000000
711954.000000
712804.000000
713660.000000
714464.000000
715281.000000
716133.000000
716977.000000
717752.000000
718520.000000
719342.000000
720161.000000
720931.000000
721718.000000
722547.000000
723434.000000
724220.000000
725016.000000
725855.000000
726708.000000
727582.000000
728384.000000
729271.000000
730375.000000
731430.000000
732372.000000
733210.000000
734093.000000
735122.000000
736152.000000
737052.000000
737926.000000
738970.000000
740006.000000
740938.000000
741782.000000
742696.000000
743736.000000
744811.000000
745831.000000
746689.000000
747484.000000
748378.000000
749490.000000
750554.000000
751593.000000
752576.000000
753461.000000
754416.000000
755419.000000
756308.000000
757117.000000
758018.000000
759046.000000
760104.000000
761018.000000
761841.000000
762712.000000
763763.000000
764817.000000
765740.000000
766651.000000
767688.000000
768650.000000
769477.000000
770332.000000
771249.000000
772172.000000
773009.000000
773957.000000
775078.000000
776070.000000
776896.000000
777741.000000
778594.000000
779365.000000
780070.000000
780802.000000
781873.000000
782865.000000
783794.000000
784697.000000
785627.000000
786466.000000
787252.000000
788094.000000
789021.000000
789948.000000
790744.000000
791566.000000
792413.000000
793353.000000
794224.000000
795035.000000
795957.000000
796970.000000
797908.000000
798712.000000
799532.000000
800376.000000
801318.000000
802181.000000
802984.000000
803895.000000
804932.000000
805901.000000
806733.000000
807604.000000
808560.000000
809498.000000
810331.000000
811182.000000
812104.000000
813080.000000
813953.000000
814765.000000
815620.000000
816634.000000
817654.000000
818572.000000
819409.000000
820307.000000
821210.000000
822084.000000
822888.000000
823695.000000
824676.000000
825706.000000
826618.000000
827425.000000
828272.000000
829171.000000
830093.000000
830930.000000
831752.000000
832697.000000
833701.000000
834660.000000
835543.000000
836472.000000
837467.000000
838448.000000
839342.000000
840202.000000
841108.000000
842018.000000
842831.000000
843624.000000
844446.000000
845333.000000
846189.000000
847006.000000
847915.000000
848846.000000
849761.000000
850560.000000
851379.000000
852199.000000
853004.000000
853759.000000
854508.000000
855302.000000
856206.000000
857020.000000
857866.000000
858762.000000
859726.000000
860566.000000
861398.000000
862275.000000
863179.000000
863979.000000
864753.000000
865576.000000
866500.000000
867524.000000
868397.000000
869216.000000
870148.000000
871158.000000
872108.000000
872978.000000
874013.000000
875055.000000
876058.000000
876893.000000
877674.000000
878502.000000
879423.000000
880371.000000
881217.000000
882101.000000
883208.000000
884269.000000
885204.000000
886031.000000
886913.000000
887803.000000
888683.000000
889479.000000
890280.000000
891164.000000
892121.000000
893004.000000
893873.000000
894724.000000
895536.000000
896313.000000
897100.000000
897965.000000
898919.000000
899785.000000
900594.000000
901406.000000
902328.000000
903313.000000
904276.000000
905084.000000
905880.000000
906690.000000
907497.000000
908284.000000
909073.000000
910009.000000
911011.000000
911963.000000
912816.000000
913721.000000
914620.000000
915423.000000
916176.000000
916947.000000
917785.000000
918654.000000
919477.000000
920382.000000
921337.000000
922225.000000
923014.000000
923867.000000
924715.000000
925600.000000
926454.000000
927357.000000
928274.000000
929157.000000
929934.000000
930726.000000
931563.000000
932493.000000
933339.000000
934144.000000
934991.000000
935906.000000
936891.000000
937730.000000
938505.000000
939322.000000
940166.000000
941088.000000
941905.000000
942737.000000
943678.000000
944638.000000
945486.000000
946306.000000
947201.000000
948146.000000
948994.000000
949783.000000
950606.000000
951445.000000
952321.000000
953123.000000
953900.000000
954752.000000
955666.000000
956552.000000
957366.000000
958268.000000
959245.000000
960199.000000
961041.000000
961918.000000
962807.000000
963712.000000
964529.000000
965302.000000
966123.000000
966987.000000
967917.000000
968773.000000
969603.000000
970513.000000
971444.000000
972295.000000
973096.000000
973975.000000
974867.000000
975810.000000
976624.000000
977449.000000
978343.000000
979270.000000
980073.000000
980875.000000
981692.000000
982814.000000
983832.000000
984731.000000
985558.000000
986516.000000
987521.000000
988473.000000
989292.000000
990086.000000
990942.000000
991816.000000
992625.000000
993403.000000
994243.000000
995140.000000
996029.000000
996832.000000
997620.000000
998435.000000
999291.000000
1000139.000000
1000930.000000
1001828.000000
1002739.000000
1003665.000000
1004488.000000
1005272.000000
1006093.000000
1006998.000000
1008052.000000
1009021.000000
1009991.000000
1010963.000000
1011881.000000
1012816.000000
1013690.000000
1014559.000000
1015417.000000
1016194.000000
1017002.000000
1018034.000000
1019049.000000
1019968.000000
1020773.000000
1021633.000000
1022594.000000
1023483.000000
1024311.000000
1025077.000000
1025858.000000
1026793.000000
1027911.000000
1028985.000000
1029963.000000
1030872.000000
1031843.000000
1032855.000000
1033789.000000
1034602.000000
1035391.000000
1036239.000000
1037184.000000
1038219.000000
1039083.000000
1039902.000000
1040835.000000
1041903.000000
1042918.000000
1043825.000000
1044650.000000
1045570.000000
1046557.000000
1047479.000000
1048291.000000
1049127.000000
1050040.000000
1051031.000000
1051916.000000
1052748.000000
1053646.000000
1054610.000000
1055523.000000
1056327.000000
1057138.000000
1058007.000000
1058966.000000
1059927.000000
1060821.000000
1061804.000000
1062779.000000
1063761.000000
1064595.000000
1065387.000000
1066207.000000
1067071.000000
1067944.000000
1068762.000000
1069590.000000
1070515.000000
1071455.000000
1072307.000000
1073111.000000
1073966.000000
1074866.000000
1075737.000000
1076563.000000
1077458.000000
1078342.000000
1079158.000000
1079944.000000
1080779.000000
1081653.000000
1082518.000000
1083328.000000
1084131.000000
1084986.000000
1085933.000000
1086821.000000
1087601.000000
1088369.000000
1089200.000000
1090115.000000
1091043.000000
1091886.000000
1092692.000000
1093604.000000
1094566.000000
1095508.000000
1096355.000000
1097131.000000
1097906.000000
1098758.000000
1099665.000000
1100564.000000
1101384.000000
1102135.000000
1102837.000000
1103533.000000
1104324.000000
1105165.000000
1105959.000000
1106746.000000
1107634.000000
1108603.000000
1109563.000000
1110390.000000
1111169.000000
1112001.000000
1112919.000000
1113821.000000
1114638.000000
1115444.000000
1116326.000000
1117256.000000
1118171.000000
1119003.000000
1119927.000000
1120886.000000
1121808.000000
1122599.000000
1123371.000000
1124157.000000
1124980.000000
1125779.000000
1126555.000000
1127407.000000
1128313.000000
1129262.000000
1130092.000000
1130982.000000
1131935.000000
1132825.000000
1133635.000000
1134482.000000
1135340.000000
1136314.000000
1137143.000000
1137972.000000
1138844.000000
1139794.000000
1140643.000000
1141470.000000
1142376.000000
1143337.000000
1144216.000000
1145024.000000
1145869.000000
1146794.000000
1147760.000000
1148615.000000
1149478.000000
1150387.000000
1151388.000000
1152268.000000
1153056.000000
1153851.000000
1154718.000000
1155721.000000
1156696.000000
1157531.000000
1158372.000000
1159317.000000
1160267.000000
1161141.000000
1161957.000000
1162857.000000
1163793.000000
1164754.000000
1165619.000000
1166482.000000
1167375.000000
1168265.000000
1169053.000000
1169851.000000
1170748.000000
1171659.000000
1172581.000000
1173429.000000
1174219.000000
1175064.000000
1175993.000000
1176920.000000
1177762.000000
1178597.000000
1179451.000000
1180368.000000
1181248.000000
1182051.000000
1182826.000000
1183678.000000
1184645.000000
1185653.000000
1186552.000000
1187357.000000
1188199.000000
1189129.000000
1190043.000000
1190886.000000
1191746.000000
1192714.000000
1193720.000000
1194584.000000
1195426.000000
1196357.000000
1197379.000000
1198332.000000
1199178.000000
1200114.000000
1201124.000000
1202092.000000
1202937.000000
1203750.000000
1204646.000000
1205591.000000
1206504.000000
1207326.000000
1208183.000000
1209058.000000
1210009.000000
1210881.000000
1211713.000000
1212640.000000
1213631.000000
1214606.000000
1215457.000000
1216248.000000
1217077.000000
1217973.000000
1218946.000000
1219843.000000
1220690.000000
1221642.000000
1222621.000000
1223566.000000
1224404.000000
1225214.000000
1226125.000000
1227074.000000
1228027.000000
1228887.000000
1229726.000000
1230627.000000
1231551.000000
1232454.000000
1233294.000000
1234107.000000
1235031.000000
1235977.000000
1236881.000000
1237703.000000
1238514.000000
1239430.000000
1240434.000000
1241327.000000
1242131.000000
1242955.000000
1243875.000000
1244846.000000
1245748.000000
1246568.000000
1247471.000000
1248398.000000
1249309.000000
1250129.000000
1250985.000000
1251892.000000
1252845.000000
1253757.000000
1254616.000000
1255610.000000
1256689.000000
1257668.000000
1258499.000000
1259329.000000
1260216.000000
1261183.000000
1262132.000000
1262968.000000
1263938.000000
1264987.000000
1265987.000000
1266836.000000
1267669.000000
1268599.000000
1269607.000000
1270493.000000
1271300.000000
1272152.000000
1273120.000000
1274098.000000
1275015.000000
1275899.000000
1276934.000000
1277972.000000
1278913.000000
1279753.000000
1280678.000000
1281718.000000
1282660.000000
1283486.000000
1284321.000000
1285250.000000
1286213.000000
1287092.000000
1287992.000000
1289053.000000
1290117.000000
1291028.000000
1291981.000000
1292962.000000
1293870.000000
1294657.000000
1295486.000000
1296518.000000
1297538.000000
1298436.000000
1299362.000000
1300307.000000
1301199.000000
1301988.000000
1302836.000000
1303697.000000
1304578.000000
1305457.000000
1306290.000000
1307218.000000
1308168.000000
1309104.000000
1309938.000000
1310772.000000
1311629.000000
1312466.000000
1313268.000000
1314063.000000
1314908.000000
1315800.000000
1316649.000000
1317432.000000
1318238.000000
1319081.000000
1319979.000000
1320825.000000
1321630.000000
1322485.000000
1323405.000000
1324334.000000
1325171.000000
1325951.000000
1326754.000000
1327613.000000
1328536.000000
1329536.000000
1330486.000000
1331317.000000
1332065.000000
1332800.000000
1333583.000000
1334544.000000
1335564.000000
1336478.000000
1337405.000000
1338435.000000
1339405.000000
1340254.000000
1341059.000000
1341965.000000
1343002.000000
1343949.000000
1344785.000000
1345633.000000
1346616.000000
1347626.000000
1348525.000000
1349333.000000
1350223.000000
1351133.000000
1352083.000000
1352982.000000
1353778.000000
1354578.000000
1355540.000000
1356551.000000
1357562.000000
1358428.000000
1359251.000000
1360177.000000
1361186.000000
1362072.000000
1362891.000000
1363884.000000
1364939.000000
1365962.000000
1366845.000000
1367648.000000
1368608.000000
1369649.000000
1370678.000000
1371613.000000
1372445.000000
1373354.000000
1374286.000000
1375217.000000
1376082.000000
1376884.000000
1377706.000000
1378603.000000
1379573.000000
1380478.000000
1381285.000000
1382090.000000
1382990.000000
1383994.000000
1384954.000000
1385805.000000
1386606.000000
1387449.000000
1388371.000000
1389328.000000
1390216.000000
1391108.000000
1391967.000000
1392802.000000
1393571.000000
1394297.000000
1394981.000000
1395688.000000
1396533.000000
1397431.000000
1398254.000000
1399116.000000
1400019.000000
1400967.000000
1401778.000000
1402529.000000
1403296.000000
1404152.000000
1405106.000000
1406059.000000
1406914.000000
1407701.000000
1408524.000000
1409425.000000
1410351.000000
1411209.000000
1411992.000000
1412767.000000
1413632.000000
1414613.000000
1415585.000000
1416412.000000
1417194.000000
1418004.000000
1418858.000000
1419748.000000
1420586.000000
1421453.000000
1422324.000000
1423233.000000
1424052.000000
1424823.000000
1425639.000000
1426489.000000
1427360.000000
1428171.000000
1428976.000000
1429878.000000
1430805.000000
1431646.000000
1432415.000000
1433213.000000
1434034.000000
1434937.000000
1435744.000000
1436539.000000
1437398.000000
1438279.000000
1439082.000000
1439891.000000
1440717.000000
1441613.000000
1442430.000000
1443248.000000
1444094.000000
1444990.000000
1445801.000000
1446631.000000
1447513.000000
1448435.000000
1449239.000000
1450053.000000
1450903.000000
1451750.000000
1452545.000000
1453309.000000
1454144.000000
1455081.000000
1456036.000000
1456862.000000
1457634.000000
1458462.000000
1459299.000000
1460166.000000
1460980.000000
1461789.000000
1462690.000000
1463627.000000
1464450.000000
1465216.000000
1466003.000000
1466900.000000
1467886.000000
1468770.000000
1469517.000000
1470208.000000
1470904.000000
1471723.000000
1472666.000000
1473495.000000
1474300.000000
1475235.000000
1476296.000000
1477351.000000
1478300.000000
1479190.000000
1480114.000000
1481071.000000
1481934.000000
1482765.000000
1483726.000000
1484637.000000
1485488.000000
1486415.000000
1487319.000000
1488159.000000
1488933.000000
1489721.000000
1490596.000000
1491562.000000
1492445.000000
1493331.000000
1494246.000000
1495198.000000
1496048.000000
1496842.000000
1497690.000000
1498601.000000
1499557.000000
1500403.000000
1501249.000000
1502200.000000
1503156.000000
1503993.000000
1504813.000000
1505712.000000
1506629.000000
1507547.000000
1508361.000000
1509169.000000
1510062.000000
1511018.000000
1511979.000000
1512813.000000
1513649.000000
1514517.000000
1515411.000000
1516236.000000
1517065.000000
1517990.000000
1519026.000000
1519914.000000
1520761.000000
1521651.000000
1522630.000000
1523503.000000
1524339.000000
1525218.000000
1526141.000000
1527106.000000
1527970.000000
1528791.000000
1529695.000000
1530734.000000
1531742.000000
1532648.000000
1533612.000000
1534559.000000
1535444.000000
1536240.000000
1536987.000000
1537691.000000
1538454.000000
1539623.000000
1540641.000000
1541550.000000
1542505.000000
1543523.000000
1544492.000000
1545352.000000
1546175.000000
1547171.000000
1548204.000000
1549204.000000
1550073.000000
1550881.000000
1551750.000000
1552733.000000
1553678.000000
1554527.000000
1555455.000000
1556453.000000
1557434.000000
1558283.000000
1559124.000000
1560024.000000
1560971.000000
1561842.000000
1562677.000000
1563591.000000
1564576.000000
1565553.000000
1566413.000000
1567203.000000
1568034.000000
1568996.000000
1569984.000000
1570926.000000
1571760.000000
1572730.000000
1573786.000000
1574798.000000
1575653.000000
1576436.000000
1577275.000000
1578184.000000
1579179.000000
1580104.000000
1580933.000000
1581853.000000
1582877.000000
1583907.000000
1584792.000000
1585612.000000
1586467.000000
1587375.000000
1588314.000000
1589146.000000
1590021.000000
1591031.000000
1592051.000000
1592950.000000
1593778.000000
1594654.000000
1595608.000000
1596547.000000
1597376.000000
1598251.000000
1599264.000000
1600244.000000
1601089.000000
1601942.000000
1602924.000000
1603888.000000
1604748.000000
1605599.000000
1606525.000000
1607463.000000
1608287.000000
1609181.000000
1610148.000000
1611160.000000
1612054.000000
1612899.000000
1613834.000000
1614845.000000
1615789.000000
1616653.000000
1617599.000000
1618638.000000
1619629.000000
1620488.000000
1621315.000000
1622260.000000
1623245.000000
1624139.000000
1624968.000000
1625824.000000
1626757.000000
1627650.000000
1628467.000000
1629357.000000
1630312.000000
1631276.000000
1632122.000000
1632966.000000
1633915.000000
1634915.000000
1635774.000000
1636592.000000
1637489.000000
1638466.000000
1639362.000000
1640177.000000
1641055.000000
1642050.000000
1643033.000000
1643878.000000
1644760.000000
1645648.000000
1646520.000000
1647330.000000
1648153.000000
1649051.000000
1650046.000000
1650914.000000
1651738.000000
1652675.000000
1653658.000000
1654587.000000
1655396.000000
1656203.000000
1657037.000000
1657937.000000
1658741.000000
1659570.000000
1660536.000000
1661507.000000
1662359.000000
1663276.000000
1664228.000000
1665201.000000
1666057.000000
1666941.000000
1667848.000000
1668808.000000
1669639.000000
1670508.000000
1671443.000000
1672435.000000
1673275.000000
1674054.000000
1674873.000000
1675683.000000
1676564.000000
1677374.000000
1678180.000000
1679231.000000
1680308.000000
1681335.000000
1682204.000000
1683022.000000
1683891.000000
1684745.000000
1685653.000000
1686497.000000
1687275.000000
1688087.000000
1689053.000000
1690036.000000
1690883.000000
1691651.000000
1692420.000000
1693233.000000
1694309.000000
1695286.000000
1696143.000000
1697122.000000
1698124.000000
1699090.000000
1699930.000000
1700725.000000
1701560.000000
1702451.000000
1703359.000000
1704196.000000
1705018.000000
1706003.000000
1706978.000000
1707856.000000
1708630.000000
1709398.000000
1710191.000000
1711111.000000
1711953.000000
1712822.000000
1713915.000000
1714919.000000
1715763.000000
1716568.000000
1717351.000000
1718054.000000
1718742.000000
1719762.000000
1720812.000000
1721784.000000
1722854.000000
1723891.000000
1724784.000000
1725692.000000
1726614.000000
1727538.000000
1728376.000000
1729254.000000
1730249.000000
1731251.000000
1732154.000000
1732991.000000
1733902.000000
1734900.000000
1735807.000000
1736604.000000
1737379.000000
1738241.000000
1739247.000000
1740258.000000
1741126.000000
1741913.000000
1742756.000000
1743771.000000
1744775.000000
1745661.000000
1746464.000000
1747291.000000
1748237.000000
1749258.000000
1750232.000000
1751075.000000
1751850.000000
1752642.000000
1753586.000000
1754657.000000
1755698.000000
1756574.000000
1757419.000000
1758388.000000
1759444.000000
1760394.000000
1761320.000000
1762384.000000
1763502.000000
1764510.000000
1765349.000000
1766210.000000
1767106.000000
1768031.000000
1768933.000000
1769758.000000
1770712.000000
1771817.000000
1772891.000000
1773917.000000
1774838.000000
1775725.000000
1776705.000000
1777703.000000
1778679.000000
1779532.000000
1780328.000000
1781194.000000
1782126.000000
1783119.000000
1784006.000000
1784816.000000
1785706.000000
1786729.000000
1787708.000000
1788543.000000
1789338.000000
1790201.000000
1791156.000000
1792140.000000
1793028.000000
1793853.000000
1794886.000000
1795877.000000
1796812.000000
1797655.000000
1798433.000000
1799346.000000
1800316.000000
1801228.000000
1802020.000000
1802802.000000
1803654.000000
1804604.000000
1805466.000000
1806279.000000
1807238.000000
