ECG (ms)
7.000000
758.000000
1513.000000
2254.000000
2982.000000
3793.000000
4638.000000
5429.000000
6151.000000
6882.000000
7634.000000
8340.000000
9052.000000
9777.000000
10458.000000
11112.000000
11897.000000
12678.000000
13526.000000
14403.000000
15203.000000
15949.000000
16708.000000
17493.000000
18255.000000
19058.000000
19910.000000
20743.000000
21513.000000
22368.000000
23277.000000
24112.000000
24903.000000
25743.000000
26594.000000
27397.000000
28229.000000
29108.000000
29926.000000
30745.000000
31585.000000
32411.000000
33191.000000
34013.000000
34871.000000
35687.000000
36484.000000
37353.000000
38173.000000
38953.000000
39768.000000
40598.000000
41380.000000
42158.000000
43013.000000
43816.000000
44600.000000
45464.000000
46332.000000
47088.000000
47846.000000
48659.000000
49466.000000
50246.000000
51097.000000
51992.000000
52791.000000
53583.000000
54424.000000
55242.000000
56020.000000
56862.000000
57728.000000
58518.000000
59336.000000
60229.000000
61059.000000
61834.000000
62647.000000
63483.000000
64270.000000
65108.000000
65965.000000
66763.000000
67533.000000
68381.000000
69270.000000
70074.000000
70890.000000
71801.000000
72721.000000
73547.000000
74370.000000
75193.000000
76017.000000
76794.000000
77683.000000
78612.000000
79480.000000
80275.000000
81071.000000
81979.000000
82912.000000
83819.000000
84603.000000
85331.000000
86104.000000
87006.000000
87950.000000
88853.000000
89710.000000
90505.000000
91332.000000
92260.000000
93174.000000
93994.000000
94808.000000
95625.000000
96458.000000
97239.000000
98065.000000
98930.000000
99787.000000
100573.000000
101387.000000
102241.000000
103078.000000
103863.000000
104666.000000
105511.000000
106347.000000
107132.000000
107922.000000
108769.000000
109581.000000
110424.000000
111375.000000
112294.000000
113168.000000
114048.000000
114897.000000
115680.000000
116489.000000
117331.000000
118185.000000
118996.000000
119978.000000
120940.000000
121838.000000
122741.000000
123639.000000
124483.000000
125337.000000
126233.000000
127113.000000
127955.000000
128826.000000
129712.000000
130511.000000
131336.000000
132199.000000
133029.000000
133818.000000
134661.000000
135529.000000
136316.000000
137089.000000
137956.000000
138817.000000
139645.000000
140451.000000
141322.000000
142231.000000
143053.000000
143890.000000
144773.000000
145577.000000
146334.000000
147097.000000
147929.000000
148866.000000
149757.000000
150576.000000
151380.000000
152249.000000
153144.000000
153973.000000
154758.000000
155620.000000
156496.000000
157356.000000
158153.000000
158949.000000
159832.000000
160790.000000
161630.000000
162410.000000
163245.000000
164177.000000
165052.000000
165865.000000
166714.000000
167598.000000
168418.000000
169228.000000
170129.000000
171006.000000
171829.000000
172602.000000
173455.000000
174429.000000
175337.000000
176264.000000
177246.000000
178201.000000
179090.000000
179994.000000
180857.000000
181668.000000
182471.000000
183347.000000
184311.000000
185275.000000
186255.000000
187185.000000
188065.000000
188979.000000
189886.000000
190735.000000
191580.000000
192464.000000
193369.000000
194224.000000
195087.000000
195978.000000
196834.000000
197562.000000
198575.000000
199457.000000
200303.000000
201165.000000
202040.000000
202873.000000
203613.000000
204614.000000
205489.000000
206236.000000
207191.000000
208069.000000
208894.000000
209722.000000
210567.000000
211409.000000
212116.000000
213112.000000
213971.000000
214802.000000
215628.000000
216489.000000
217385.000000
218252.000000
219099.000000
219978.000000
220873.000000
221724.000000
222601.000000
223508.000000
224404.000000
225149.000000
226163.000000
227073.000000
227924.000000
228769.000000
229652.000000
230552.000000
231397.000000
232242.000000
233141.000000
234038.000000
234895.000000
235736.000000
236620.000000
237525.000000
238400.000000
239264.000000
240171.000000
241081.000000
241935.000000
242777.000000
243643.000000
244498.000000
245221.000000
246223.000000
247116.000000
247976.000000
248794.000000
249635.000000
250510.000000
251338.000000
252157.000000
253011.000000
253861.000000
254690.000000
255557.000000
256452.000000
257336.000000
258151.000000
258971.000000
259814.000000
260685.000000
261512.000000
262373.000000
263257.000000
264149.000000
265002.000000
265913.000000
266823.000000
267685.000000
268550.000000
269431.000000
270311.000000
271140.000000
271985.000000
272879.000000
273748.000000
274578.000000
275445.000000
276336.000000
277214.000000
278048.000000
278911.000000
279780.000000
280631.000000
281472.000000
282360.000000
283250.000000
284125.000000
285011.000000
285933.000000
286790.000000
287640.000000
288533.000000
289422.000000
290254.000000
291149.000000
292054.000000
292902.000000
293730.000000
294607.000000
295498.000000
296337.000000
297214.000000
298103.000000
298973.000000
299820.000000
300724.000000
301628.000000
302466.000000
303333.000000
304215.000000
305062.000000
305903.000000
306793.000000
307715.000000
308580.000000
309472.000000
310371.000000
311224.000000
312053.000000
312914.000000
313792.000000
314632.000000
315469.000000
315931.000000
317261.000000
318046.000000
318789.000000
319576.000000
320420.000000
321311.000000
322287.000000
323250.000000
324178.000000
325123.000000
326123.000000
327050.000000
327980.000000
328965.000000
329935.000000
330817.000000
331755.000000
332685.000000
333562.000000
334447.000000
335382.000000
336275.000000
337155.000000
338098.000000
339039.000000
339912.000000
340813.000000
341757.000000
342624.000000
343464.000000
344350.000000
345261.000000
346119.000000
346989.000000
347897.000000
348784.000000
349614.000000
350488.000000
351356.000000
352181.000000
353041.000000
353919.000000
354796.000000
355648.000000
356537.000000
357461.000000
358318.000000
359159.000000
360052.000000
360945.000000
361673.000000
362629.000000
363500.000000
364409.000000
365266.000000
366148.000000
367060.000000
367962.000000
368821.000000
369738.000000
370657.000000
371537.000000
372447.000000
373362.000000
374242.000000
375137.000000
376052.000000
376936.000000
377829.000000
378771.000000
379711.000000
380603.000000
381525.000000
382450.000000
383319.000000
384197.000000
385113.000000
386008.000000
386872.000000
387780.000000
388690.000000
389550.000000
390432.000000
391331.000000
392183.000000
393039.000000
393952.000000
394857.000000
395715.000000
396616.000000
397529.000000
398389.000000
399251.000000
400143.000000
401005.000000
401829.000000
402676.000000
403557.000000
404391.000000
405098.000000
406141.000000
407054.000000
407909.000000
408786.000000
409672.000000
410508.000000
411236.000000
412239.000000
413137.000000
414005.000000
414856.000000
415783.000000
416709.000000
417562.000000
418439.000000
419360.000000
420230.000000
421077.000000
422004.000000
422476.000000
423799.000000
424541.000000
425293.000000
426078.000000
426872.000000
428109.000000
429140.000000
430129.000000
431207.000000
432264.000000
433244.000000
434312.000000
435367.000000
436274.000000
437086.000000
437974.000000
438912.000000
439740.000000
440742.000000
441781.000000
442743.000000
443586.000000
444365.000000
445239.000000
446306.000000
447273.000000
448125.000000
448895.000000
449735.000000
450697.000000
451634.000000
452487.000000
453313.000000
454207.000000
455160.000000
456074.000000
456921.000000
457781.000000
458641.000000
459417.000000
460192.000000
460989.000000
461810.000000
462631.000000
463401.000000
464088.000000
464837.000000
465681.000000
466501.000000
467529.000000
468520.000000
469450.000000
470404.000000
471344.000000
472179.000000
473012.000000
473946.000000
474873.000000
475761.000000
476736.000000
477672.000000
478535.000000
479450.000000
480370.000000
481247.000000
482146.000000
483082.000000
483990.000000
484850.000000
485765.000000
486703.000000
487577.000000
488460.000000
489385.000000
490270.000000
491111.000000
491974.000000
492868.000000
493712.000000
494596.000000
495519.000000
496391.000000
497261.000000
498161.000000
499053.000000
499900.000000
500772.000000
501659.000000
502528.000000
503367.000000
504272.000000
505219.000000
506113.000000
506992.000000
507896.000000
508803.000000
509675.000000
510536.000000
511461.000000
512381.000000
513248.000000
514138.000000
515098.000000
516039.000000
516913.000000
517782.000000
518723.000000
519706.000000
520614.000000
521510.000000
522464.000000
523439.000000
524349.000000
525207.000000
526119.000000
527052.000000
527954.000000
528816.000000
529735.000000
530684.000000
531620.000000
532500.000000
533442.000000
534387.000000
535312.000000
536181.000000
537086.000000
538031.000000
538953.000000
539832.000000
540764.000000
541705.000000
542572.000000
543442.000000
544367.000000
545291.000000
546169.000000
547126.000000
548062.000000
548944.000000
549842.000000
550746.000000
551593.000000
552487.000000
553428.000000
554326.000000
555193.000000
556138.000000
557073.000000
557947.000000
558876.000000
559817.000000
560720.000000
561600.000000
562514.000000
563461.000000
564363.000000
565293.000000
566243.000000
567150.000000
568035.000000
568997.000000
569965.000000
570886.000000
571870.000000
572868.000000
573805.000000
574760.000000
575722.000000
576646.000000
577518.000000
578428.000000
579350.000000
580252.000000
581116.000000
582052.000000
583024.000000
583934.000000
584822.000000
585802.000000
586781.000000
587698.000000
588609.000000
589561.000000
590521.000000
591430.000000
592346.000000
593286.000000
594192.000000
595041.000000
595935.000000
596857.000000
597740.000000
598604.000000
599521.000000
600435.000000
601306.000000
602187.000000
603098.000000
603977.000000
604727.000000
605772.000000
606719.000000
607609.000000
608506.000000
609443.000000
610311.000000
611208.000000
612132.000000
613022.000000
613939.000000
614903.000000
615790.000000
616712.000000
617656.000000
618537.000000
619453.000000
620386.000000
621284.000000
622169.000000
623115.000000
624084.000000
624981.000000
625918.000000
626894.000000
627817.000000
628748.000000
629724.000000
630665.000000
631526.000000
632403.000000
633336.000000
634265.000000
635120.000000
636005.000000
636949.000000
637921.000000
638823.000000
639702.000000
640643.000000
641607.000000
642515.000000
643401.000000
644340.000000
645249.000000
646123.000000
647015.000000
647948.000000
648860.000000
649758.000000
650692.000000
651593.000000
652459.000000
653358.000000
654276.000000
655142.000000
655997.000000
656884.000000
657771.000000
658625.000000
659497.000000
660394.000000
661258.000000
662103.000000
663029.000000
663966.000000
664835.000000
665742.000000
666675.000000
667552.000000
668424.000000
669344.000000
670306.000000
671205.000000
672111.000000
673078.000000
674021.000000
674901.000000
675843.000000
676827.000000
677740.000000
678651.000000
679614.000000
680551.000000
681438.000000
682381.000000
683346.000000
684267.000000
685159.000000
686114.000000
687074.000000
687974.000000
688895.000000
689847.000000
690764.000000
691641.000000
692566.000000
693511.000000
694413.000000
695302.000000
696249.000000
697198.000000
698087.000000
698993.000000
699953.000000
700882.000000
701771.000000
702734.000000
703698.000000
704606.000000
705513.000000
706463.000000
707406.000000
708291.000000
709248.000000
710244.000000
711156.000000
712073.000000
713034.000000
713963.000000
714852.000000
715797.000000
716784.000000
717692.000000
718624.000000
719592.000000
720522.000000
721422.000000
722372.000000
723341.000000
724231.000000
725189.000000
726167.000000
727091.000000
727982.000000
728977.000000
729947.000000
730850.000000
731845.000000
732850.000000
733782.000000
734752.000000
735740.000000
736656.000000
737590.000000
738568.000000
739511.000000
740399.000000
741344.000000
742331.000000
743254.000000
744192.000000
745178.000000
746138.000000
747051.000000
748020.000000
749004.000000
749931.000000
750912.000000
751899.000000
752815.000000
753745.000000
754722.000000
755671.000000
756567.000000
757539.000000
758500.000000
759411.000000
760294.000000
761225.000000
762220.000000
763146.000000
764052.000000
765028.000000
766007.000000
766928.000000
767884.000000
768868.000000
769788.000000
770677.000000
771657.000000
772646.000000
773568.000000
774537.000000
775529.000000
776450.000000
777417.000000
778402.000000
779351.000000
780237.000000
781179.000000
782146.000000
783068.000000
783955.000000
784895.000000
785857.000000
786784.000000
787682.000000
788629.000000
789592.000000
790496.000000
791397.000000
792349.000000
793285.000000
794168.000000
795121.000000
796068.000000
796945.000000
797876.000000
798862.000000
799799.000000
800679.000000
801614.000000
802558.000000
803425.000000
804301.000000
805214.000000
806100.000000
806970.000000
807936.000000
808899.000000
809786.000000
810689.000000
811615.000000
812505.000000
813360.000000
814277.000000
815236.000000
816152.000000
817014.000000
817943.000000
818908.000000
819825.000000
820744.000000
821697.000000
822598.000000
823501.000000
824457.000000
825432.000000
826332.000000
827261.000000
828240.000000
829207.000000
830119.000000
831080.000000
832065.000000
832988.000000
833904.000000
834871.000000
835828.000000
836721.000000
837638.000000
838600.000000
839520.000000
840381.000000
841334.000000
842330.000000
843252.000000
844176.000000
845139.000000
846047.000000
846895.000000
847811.000000
848736.000000
849619.000000
850528.000000
851499.000000
852474.000000
853392.000000
854367.000000
855343.000000
856249.000000
857168.000000
858152.000000
859082.000000
859942.000000
860852.000000
861768.000000
862680.000000
863563.000000
864639.000000
865651.000000
866572.000000
867611.000000
868641.000000
869552.000000
870542.000000
871554.000000
872474.000000
873398.000000
874384.000000
875326.000000
876211.000000
877193.000000
878203.000000
879156.000000
880064.000000
881054.000000
882022.000000
882909.000000
883863.000000
884814.000000
885738.000000
886626.000000
887603.000000
888615.000000
889579.000000
890491.000000
891467.000000
892447.000000
893371.000000
894247.000000
895181.000000
896124.000000
897029.000000
897897.000000
898860.000000
899813.000000
900702.000000
901592.000000
902550.000000
903526.000000
904406.000000
905294.000000
906241.000000
907196.000000
908100.000000
909009.000000
909948.000000
910898.000000
911776.000000
912689.000000
913643.000000
914559.000000
915428.000000
916362.000000
917308.000000
918203.000000
919145.000000
920105.000000
921039.000000
921932.000000
922873.000000
923835.000000
924729.000000
925629.000000
926562.000000
927486.000000
928364.000000
929293.000000
930237.000000
931134.000000
932063.000000
933040.000000
934006.000000
934906.000000
935817.000000
936758.000000
937695.000000
938561.000000
939412.000000
940351.000000
941288.000000
942154.000000
943036.000000
943988.000000
944899.000000
945771.000000
946701.000000
947623.000000
948486.000000
949348.000000
950272.000000
951163.000000
952019.000000
952948.000000
953907.000000
954806.000000
955717.000000
956645.000000
957535.000000
958383.000000
958838.000000
960181.000000
960949.000000
961692.000000
962493.000000
963469.000000
964432.000000
965475.000000
966670.000000
967713.000000
968654.000000
969682.000000
970710.000000
971667.000000
972673.000000
973725.000000
974707.000000
975638.000000
976635.000000
977634.000000
978563.000000
979474.000000
980424.000000
981358.000000
982256.000000
983222.000000
984214.000000
985129.000000
986065.000000
987050.000000
987980.000000
988873.000000
989831.000000
990772.000000
991643.000000
992557.000000
993482.000000
994358.000000
995266.000000
996216.000000
997137.000000
998020.000000
998969.000000
999900.000000
1000804.000000
1001757.000000
1002690.000000
1003582.000000
1004527.000000
1005471.000000
1006361.000000
1007241.000000
1008187.000000
1009120.000000
1009984.000000
1010888.000000
1011830.000000
1012721.000000
1013579.000000
1014525.000000
1015491.000000
1016384.000000
1017257.000000
1018218.000000
1019185.000000
1020079.000000
1021005.000000
1021985.000000
1022937.000000
1023812.000000
1024738.000000
1025720.000000
1026660.000000
1027562.000000
1028537.000000
1029549.000000
1030493.000000
1031391.000000
1032332.000000
1033271.000000
1034159.000000
1035085.000000
1036050.000000
1036967.000000
1037847.000000
1038793.000000
1039773.000000
1040681.000000
1041548.000000
1042485.000000
1043421.000000
1044318.000000
1045179.000000
1046093.000000
1047003.000000
1047866.000000
1048729.000000
1049656.000000
1050583.000000
1051444.000000
1052344.000000
1053287.000000
1054193.000000
1055072.000000
1056008.000000
1056947.000000
1057813.000000
1058717.000000
1059651.000000
1060580.000000
1061454.000000
1062378.000000
1063320.000000
1064205.000000
1065098.000000
1066078.000000
1067023.000000
1067900.000000
1068824.000000
1069803.000000
1070718.000000
1071584.000000
1072528.000000
1073458.000000
1074332.000000
1075245.000000
1076184.000000
1077116.000000
1077988.000000
1078906.000000
1079856.000000
1080756.000000
1081700.000000
1082651.000000
1083583.000000
1084465.000000
1085396.000000
1086365.000000
1087279.000000
1088159.000000
1089117.000000
1090072.000000
1090969.000000
1091863.000000
1092790.000000
1093685.000000
1094424.000000
1095414.000000
1096357.000000
1097250.000000
1098094.000000
1099034.000000
1100003.000000
1100885.000000
1101775.000000
1102700.000000
1103594.000000
1104434.000000
1105347.000000
1106325.000000
1107253.000000
1108146.000000
1109114.000000
1110065.000000
1110959.000000
1111894.000000
1112863.000000
1113788.000000
1114665.000000
1115598.000000
1116542.000000
1117444.000000
1118346.000000
1119303.000000
1120248.000000
1121144.000000
1122091.000000
1123088.000000
1124015.000000
1124889.000000
1125833.000000
1126784.000000
1127710.000000
1128615.000000
1129583.000000
1130569.000000
1131477.000000
1132405.000000
1133373.000000
1134294.000000
1135063.000000
1135936.000000
1136743.000000
1137758.000000
1138741.000000
1139635.000000
1140473.000000
1141428.000000
1142335.000000
1143163.000000
1144030.000000
1144975.000000
1145853.000000
1146667.000000
1147534.000000
1148451.000000
1149278.000000
1150129.000000
1151085.000000
1151992.000000
1152836.000000
1153716.000000
1154660.000000
1155513.000000
1156388.000000
1157336.000000
1158224.000000
1159031.000000
1159966.000000
1160922.000000
1161830.000000
1162826.000000
1163839.000000
1164771.000000
1165706.000000
1166630.000000
1167500.000000
1168427.000000
1169453.000000
1170381.000000
1171349.000000
1172344.000000
1173249.000000
1174172.000000
1175103.000000
1175978.000000
1176860.000000
1177813.000000
1178767.000000
1179659.000000
1180616.000000
1181587.000000
1182492.000000
1183424.000000
1184397.000000
1185290.000000
1186225.000000
1187169.000000
1188051.000000
1188994.000000
1189962.000000
1190863.000000
1191762.000000
1192697.000000
1193630.000000
1194499.000000
1195449.000000
1196414.000000
1197301.000000
1198220.000000
1199170.000000
1200080.000000
1200977.000000
1201930.000000
1202864.000000
1203754.000000
1204722.000000
1205708.000000
1206621.000000
1207591.000000
1208573.000000
1209481.000000
1210440.000000
1211435.000000
1212373.000000
1213296.000000
1214286.000000
1215275.000000
1216196.000000
1217182.000000
1218163.000000
1219066.000000
1220002.000000
1221015.000000
1222008.000000
1222924.000000
1223914.000000
1224932.000000
1225883.000000
1226830.000000
1227836.000000
1228839.000000
1229770.000000
1230801.000000
1231851.000000
1232811.000000
1233795.000000
1234822.000000
1235799.000000
1236758.000000
1237767.000000
1238755.000000
1239682.000000
1240660.000000
