ECG (ms)
118.000000
757.000000
1383.000000
2023.000000
2651.000000
3290.000000
3945.000000
4601.000000
5262.000000
5929.000000
6590.000000
7244.000000
7890.000000
8519.000000
9158.000000
9795.000000
10443.000000
11072.000000
11711.000000
12353.000000
13002.000000
13642.000000
14285.000000
14928.000000
15569.000000
16206.000000
16830.000000
17450.000000
18072.000000
18698.000000
19324.000000
19950.000000
20583.000000
21214.000000
21845.000000
22475.000000
23101.000000
23725.000000
24343.000000
24965.000000
25592.000000
26212.000000
26823.000000
27437.000000
28073.000000
28716.000000
29364.000000
30016.000000
30672.000000
31324.000000
31972.000000
32614.000000
33252.000000
33890.000000
34546.000000
35229.000000
35941.000000
36667.000000
37392.000000
38098.000000
38783.000000
39459.000000
40126.000000
41474.000000
42123.000000
42742.000000
43350.000000
43960.000000
44594.000000
45269.000000
46013.000000
46798.000000
47585.000000
48334.000000
49043.000000
49738.000000
50434.000000
51129.000000
51809.000000
52481.000000
53138.000000
53789.000000
54432.000000
55082.000000
55746.000000
56416.000000
57080.000000
57734.000000
58382.000000
59041.000000
59709.000000
60380.000000
61060.000000
61733.000000
62397.000000
63043.000000
63697.000000
64352.000000
65017.000000
65686.000000
66342.000000
66999.000000
67661.000000
68334.000000
69017.000000
69703.000000
70391.000000
71068.000000
71725.000000
72371.000000
73026.000000
73688.000000
74361.000000
75040.000000
75726.000000
76411.000000
77075.000000
77724.000000
78376.000000
79032.000000
79692.000000
80353.000000
81729.000000
82381.000000
83004.000000
83626.000000
84255.000000
84899.000000
85567.000000
86266.000000
86956.000000
87635.000000
88325.000000
89036.000000
89767.000000
90511.000000
91221.000000
91891.000000
92555.000000
93220.000000
93880.000000
94529.000000
95180.000000
95830.000000
96492.000000
97166.000000
97846.000000
98522.000000
99184.000000
99826.000000
100468.000000
101117.000000
101771.000000
102446.000000
103119.000000
103789.000000
104451.000000
105122.000000
105794.000000
106464.000000
107130.000000
107794.000000
108436.000000
109068.000000
109698.000000
110328.000000
110983.000000
111654.000000
112351.000000
113053.000000
113733.000000
114398.000000
115065.000000
115725.000000
116376.000000
117023.000000
117679.000000
118333.000000
118984.000000
119625.000000
120263.000000
120907.000000
121561.000000
122220.000000
122873.000000
123529.000000
124173.000000
124805.000000
125434.000000
126068.000000
126707.000000
127355.000000
128008.000000
128664.000000
129304.000000
129939.000000
130577.000000
131227.000000
131880.000000
132535.000000
133189.000000
133829.000000
134464.000000
135103.000000
135748.000000
136398.000000
137058.000000
137723.000000
138379.000000
139027.000000
139680.000000
140350.000000
141038.000000
141722.000000
142386.000000
143037.000000
143696.000000
144360.000000
145029.000000
145697.000000
146346.000000
146984.000000
147624.000000
148269.000000
148916.000000
149562.000000
150215.000000
150854.000000
151487.000000
152123.000000
152776.000000
153440.000000
154102.000000
154755.000000
155393.000000
156022.000000
156650.000000
157289.000000
157934.000000
158588.000000
159235.000000
159867.000000
160501.000000
161133.000000
161776.000000
162408.000000
163043.000000
163692.000000
164362.000000
165032.000000
165696.000000
166365.000000
167042.000000
167717.000000
168373.000000
169014.000000
169664.000000
170309.000000
170959.000000
171602.000000
172244.000000
172904.000000
173577.000000
174246.000000
174901.000000
175566.000000
176235.000000
176912.000000
177590.000000
178247.000000
178903.000000
179565.000000
180229.000000
180897.000000
181550.000000
182195.000000
182844.000000
183498.000000
184164.000000
184819.000000
185466.000000
186124.000000
186791.000000
187468.000000
188132.000000
188781.000000
189438.000000
190105.000000
190792.000000
191451.000000
192103.000000
192759.000000
193428.000000
194094.000000
194739.000000
195367.000000
195995.000000
196628.000000
197264.000000
197904.000000
198539.000000
199163.000000
199789.000000
200422.000000
201068.000000
201712.000000
202351.000000
203005.000000
203671.000000
204332.000000
204973.000000
205621.000000
206267.000000
206907.000000
207535.000000
208165.000000
208800.000000
209447.000000
210097.000000
210743.000000
211399.000000
212061.000000
212718.000000
213354.000000
213975.000000
214585.000000
215194.000000
215826.000000
216481.000000
217124.000000
217764.000000
218397.000000
219014.000000
219629.000000
220256.000000
220896.000000
221531.000000
222166.000000
222819.000000
223488.000000
224169.000000
224862.000000
225547.000000
226219.000000
226883.000000
227560.000000
228262.000000
228977.000000
229691.000000
230388.000000
231068.000000
231749.000000
232436.000000
233130.000000
233828.000000
234524.000000
235195.000000
235864.000000
236550.000000
237240.000000
237928.000000
238603.000000
239264.000000
239917.000000
240583.000000
241252.000000
241939.000000
242632.000000
243316.000000
244000.000000
245446.000000
246139.000000
246793.000000
247449.000000
248105.000000
248770.000000
249440.000000
250108.000000
250771.000000
251443.000000
252137.000000
252845.000000
253559.000000
254244.000000
254917.000000
255587.000000
256268.000000
256959.000000
258344.000000
259003.000000
259640.000000
260282.000000
260936.000000
261604.000000
262277.000000
262959.000000
263665.000000
264384.000000
265116.000000
265834.000000
266518.000000
267182.000000
267854.000000
268534.000000
269200.000000
269850.000000
270511.000000
271183.000000
271844.000000
272500.000000
273158.000000
273830.000000
274525.000000
275225.000000
275925.000000
276607.000000
277280.000000
277963.000000
278670.000000
279392.000000
280109.000000
280796.000000
281467.000000
282144.000000
282832.000000
284203.000000
284867.000000
285513.000000
286171.000000
286859.000000
287544.000000
288221.000000
288896.000000
289593.000000
290319.000000
291773.000000
292454.000000
293103.000000
293754.000000
294406.000000
295070.000000
295761.000000
296461.000000
297139.000000
297827.000000
298523.000000
299223.000000
299941.000000
300637.000000
301306.000000
301977.000000
302654.000000
303355.000000
304065.000000
304744.000000
305430.000000
306127.000000
306824.000000
307513.000000
308185.000000
308858.000000
309550.000000
310256.000000
310974.000000
311680.000000
312359.000000
313024.000000
313688.000000
314350.000000
315012.000000
315689.000000
316347.000000
316996.000000
317648.000000
318314.000000
318987.000000
319641.000000
320290.000000
320945.000000
321615.000000
322285.000000
322952.000000
323604.000000
324252.000000
324898.000000
325542.000000
326181.000000
326822.000000
327474.000000
328163.000000
328880.000000
330301.000000
330977.000000
332283.000000
332914.000000
333519.000000
334130.000000
334761.000000
335406.000000
336070.000000
336799.000000
337630.000000
338458.000000
339242.000000
340031.000000
340806.000000
341523.000000
342197.000000
342871.000000
343549.000000
344236.000000
344916.000000
345574.000000
346230.000000
346893.000000
347573.000000
348243.000000
348893.000000
349551.000000
350209.000000
350864.000000
351503.000000
352139.000000
352777.000000
353420.000000
354064.000000
354696.000000
355327.000000
355972.000000
356641.000000
357320.000000
357976.000000
358621.000000
359267.000000
359919.000000
360566.000000
361212.000000
361846.000000
362478.000000
363120.000000
363775.000000
364457.000000
365139.000000
365823.000000
366520.000000
367227.000000
367933.000000
368616.000000
369295.000000
369976.000000
370661.000000
371372.000000
372060.000000
372725.000000
373389.000000
374068.000000
374759.000000
375443.000000
376110.000000
376764.000000
378145.000000
378823.000000
379460.000000
380086.000000
380716.000000
381356.000000
382019.000000
382691.000000
383373.000000
384075.000000
384804.000000
385536.000000
386220.000000
386895.000000
387581.000000
388261.000000
388934.000000
389591.000000
390248.000000
390916.000000
391594.000000
392260.000000
392918.000000
393583.000000
394267.000000
394962.000000
395641.000000
396324.000000
397034.000000
397763.000000
398480.000000
399179.000000
399875.000000
400572.000000
401242.000000
402619.000000
403297.000000
403945.000000
404581.000000
405218.000000
405873.000000
406550.000000
407249.000000
407937.000000
408635.000000
409352.000000
410076.000000
410768.000000
411459.000000
412146.000000
412852.000000
413550.000000
414218.000000
414879.000000
415544.000000
416223.000000
416896.000000
417570.000000
418258.000000
418976.000000
420401.000000
421075.000000
421736.000000
422401.000000
423047.000000
423692.000000
424366.000000
425107.000000
425866.000000
426646.000000
427454.000000
428244.000000
428988.000000
429721.000000
430448.000000
431157.000000
431830.000000
432501.000000
433178.000000
433862.000000
434545.000000
435225.000000
435909.000000
437344.000000
438022.000000
438667.000000
439315.000000
439975.000000
440664.000000
441365.000000
442068.000000
442799.000000
443581.000000
444362.000000
445092.000000
445821.000000
446539.000000
447248.000000
447936.000000
448606.000000
449288.000000
449976.000000
450689.000000
451372.000000
452038.000000
452715.000000
453397.000000
454072.000000
454745.000000
455431.000000
456126.000000
456828.000000
457520.000000
458232.000000
458960.000000
459698.000000
460410.000000
461101.000000
461800.000000
462510.000000
463216.000000
463893.000000
464588.000000
465304.000000
466025.000000
466726.000000
468133.000000
468832.000000
469503.000000
470177.000000
470833.000000
471499.000000
472184.000000
472910.000000
473619.000000
474314.000000
475037.000000
475769.000000
476500.000000
477197.000000
477895.000000
478603.000000
479318.000000
480007.000000
480695.000000
481389.000000
482109.000000
482819.000000
483512.000000
484230.000000
484966.000000
485712.000000
486432.000000
487137.000000
487851.000000
488584.000000
489287.000000
489986.000000
490703.000000
491439.000000
492153.000000
492842.000000
493549.000000
494284.000000
495017.000000
495718.000000
496401.000000
497085.000000
497768.000000
498448.000000
499118.000000
499801.000000
500494.000000
501199.000000
501889.000000
502579.000000
503271.000000
503984.000000
504670.000000
505353.000000
506052.000000
506768.000000
507489.000000
508196.000000
508888.000000
510296.000000
510957.000000
511587.000000
512214.000000
512840.000000
513493.000000
514167.000000
514860.000000
515548.000000
516228.000000
517004.000000
517855.000000
518671.000000
519436.000000
520114.000000
520772.000000
521442.000000
522117.000000
522782.000000
523432.000000
524085.000000
524754.000000
525425.000000
526092.000000
526740.000000
527390.000000
528038.000000
528687.000000
529332.000000
529969.000000
530601.000000
531238.000000
531885.000000
532549.000000
533206.000000
533854.000000
534508.000000
535172.000000
535838.000000
536496.000000
537153.000000
537809.000000
538476.000000
539158.000000
539840.000000
540499.000000
541170.000000
541855.000000
542563.000000
543262.000000
543929.000000
544596.000000
545274.000000
545958.000000
546625.000000
547279.000000
547941.000000
548617.000000
549305.000000
549981.000000
550645.000000
551320.000000
552000.000000
552675.000000
553333.000000
553997.000000
554666.000000
555345.000000
556008.000000
556663.000000
557323.000000
557991.000000
558648.000000
559294.000000
559945.000000
560596.000000
561252.000000
561912.000000
562561.000000
563212.000000
563871.000000
564540.000000
565200.000000
565848.000000
566500.000000
567160.000000
567830.000000
568481.000000
569127.000000
569785.000000
570462.000000
571153.000000
571828.000000
572505.000000
573181.000000
573858.000000
574512.000000
575181.000000
575860.000000
576538.000000
577201.000000
577862.000000
578536.000000
579221.000000
579893.000000
580566.000000
581267.000000
581983.000000
582669.000000
583354.000000
584056.000000
584754.000000
585462.000000
586155.000000
586824.000000
587507.000000
588196.000000
588902.000000
589597.000000
590290.000000
590993.000000
591697.000000
592380.000000
593066.000000
593760.000000
594456.000000
595132.000000
595819.000000
596514.000000
597217.000000
598626.000000
599315.000000
599961.000000
600598.000000
601248.000000
601907.000000
602594.000000
603267.000000
603945.000000
604636.000000
605349.000000
606065.000000
606755.000000
607437.000000
608133.000000
608832.000000
609529.000000
610203.000000
610873.000000
611559.000000
612237.000000
612904.000000
613560.000000
614220.000000
614887.000000
615553.000000
616210.000000
616879.000000
617560.000000
618290.000000
619013.000000
619700.000000
620387.000000
621068.000000
621734.000000
622384.000000
623028.000000
623672.000000
624330.000000
625001.000000
625663.000000
626320.000000
626993.000000
627697.000000
628395.000000
629063.000000
629723.000000
630384.000000
631042.000000
631690.000000
632324.000000
632958.000000
633595.000000
634236.000000
634876.000000
635518.000000
636174.000000
636845.000000
637515.000000
638167.000000
638824.000000
639491.000000
640162.000000
640814.000000
641455.000000
642103.000000
642750.000000
643396.000000
644033.000000
644667.000000
645305.000000
645948.000000
646602.000000
647249.000000
647891.000000
648542.000000
649206.000000
649861.000000
650505.000000
651152.000000
651800.000000
652446.000000
653085.000000
653719.000000
654364.000000
655014.000000
655673.000000
656313.000000
656953.000000
657607.000000
658267.000000
658920.000000
659559.000000
660201.000000
660847.000000
661496.000000
662133.000000
662766.000000
663404.000000
664051.000000
664702.000000
665350.000000
665995.000000
666651.000000
667311.000000
667956.000000
668597.000000
669270.000000
669932.000000
670585.000000
671225.000000
671865.000000
672512.000000
673162.000000
673798.000000
674431.000000
675073.000000
675728.000000
676398.000000
677058.000000
677721.000000
678396.000000
679088.000000
679754.000000
680406.000000
681750.000000
682400.000000
683020.000000
683638.000000
684259.000000
684903.000000
685603.000000
686311.000000
687010.000000
687732.000000
688481.000000
689234.000000
689940.000000
690624.000000
691317.000000
692039.000000
692738.000000
693410.000000
694097.000000
694798.000000
695520.000000
696215.000000
696911.000000
697619.000000
698340.000000
699054.000000
699746.000000
700451.000000
701167.000000
701858.000000
702518.000000
703177.000000
703837.000000
704512.000000
705192.000000
705873.000000
706583.000000
707320.000000
708032.000000
708713.000000
709399.000000
710089.000000
710777.000000
711445.000000
712099.000000
712769.000000
713455.000000
714158.000000
714853.000000
715546.000000
716248.000000
716964.000000
717660.000000
718329.000000
719007.000000
719698.000000
720389.000000
721771.000000
722454.000000
723795.000000
724435.000000
725057.000000
725687.000000
726340.000000
727007.000000
727697.000000
728453.000000
729296.000000
730150.000000
730969.000000
731788.000000
732604.000000
733331.000000
734026.000000
734726.000000
735427.000000
736168.000000
736955.000000
737673.000000
738359.000000
739814.000000
740517.000000
741174.000000
741829.000000
742496.000000
743207.000000
743930.000000
744643.000000
745390.000000
746181.000000
746953.000000
747673.000000
748410.000000
749149.000000
749881.000000
750574.000000
751269.000000
751966.000000
752654.000000
753336.000000
754015.000000
754715.000000
755422.000000
756103.000000
756779.000000
757458.000000
758143.000000
758825.000000
759495.000000
760159.000000
760831.000000
761519.000000
762182.000000
762840.000000
763528.000000
764228.000000
764955.000000
766381.000000
767071.000000
767729.000000
768370.000000
769015.000000
769676.000000
770369.000000
771061.000000
771751.000000
772462.000000
773208.000000
773943.000000
774672.000000
775410.000000
776165.000000
776876.000000
777553.000000
778232.000000
778920.000000
779619.000000
780294.000000
780966.000000
781651.000000
782350.000000
783055.000000
783740.000000
784435.000000
785157.000000
785896.000000
786601.000000
788022.000000
788716.000000
789359.000000
789996.000000
790638.000000
791293.000000
791987.000000
792697.000000
793441.000000
794225.000000
795008.000000
795742.000000
796442.000000
797145.000000
797877.000000
798595.000000
799288.000000
800716.000000
801410.000000
802064.000000
802707.000000
803357.000000
804037.000000
804734.000000
805463.000000
806245.000000
807060.000000
807837.000000
808618.000000
809403.000000
810203.000000
810945.000000
811657.000000
812371.000000
813098.000000
813790.000000
814470.000000
815166.000000
815873.000000
816583.000000
817269.000000
817953.000000
818656.000000
819352.000000
820024.000000
820711.000000
821405.000000
822116.000000
822801.000000
823476.000000
824159.000000
824849.000000
825528.000000
826198.000000
826881.000000
827580.000000
828278.000000
828959.000000
829662.000000
830371.000000
831064.000000
831759.000000
832469.000000
833195.000000
833904.000000
834600.000000
835297.000000
836019.000000
836735.000000
837428.000000
838126.000000
838835.000000
839575.000000
840299.000000
841004.000000
841736.000000
842488.000000
843232.000000
843944.000000
844655.000000
845376.000000
846077.000000
846757.000000
847453.000000
848171.000000
848896.000000
849602.000000
851086.000000
851794.000000
852455.000000
853126.000000
853804.000000
854497.000000
855909.000000
856602.000000
857276.000000
857940.000000
858606.000000
859289.000000
859988.000000
860693.000000
861416.000000
862192.000000
862982.000000
863748.000000
864510.000000
865276.000000
866022.000000
866717.000000
868133.000000
868824.000000
869484.000000
870149.000000
870821.000000
871546.000000
872335.000000
873148.000000
873942.000000
874758.000000
875566.000000
876303.000000
877041.000000
877791.000000
878529.000000
879227.000000
879915.000000
880621.000000
881360.000000
882075.000000
882785.000000
883516.000000
884279.000000
885085.000000
885832.000000
886544.000000
887272.000000
888008.000000
888706.000000
889390.000000
890086.000000
890830.000000
891605.000000
892332.000000
893060.000000
893843.000000
894617.000000
895337.000000
896067.000000
896809.000000
897553.000000
898270.000000
898996.000000
899751.000000
900499.000000
901214.000000
901930.000000
902660.000000
903389.000000
904084.000000
904790.000000
905502.000000
906212.000000
906917.000000
907605.000000
908310.000000
909042.000000
