ECG (ms)
600.000000
1848.000000
3016.000000
4180.000000
5309.000000
6416.000000
7580.000000
8663.000000
9866.000000
10937.000000
12149.000000
13315.000000
14495.000000
15600.000000
16744.000000
17883.000000
19008.000000
20218.000000
21345.000000
22549.000000
23640.000000
24851.000000
25959.000000
27165.000000
28315.000000
29507.000000
30678.000000
31855.000000
33057.000000
34233.000000
35437.000000
36601.000000
37832.000000
38984.000000
40282.000000
41413.000000
42681.000000
43842.000000
45103.000000
46281.000000
47522.000000
48687.000000
49882.000000
51043.000000
52208.000000
53385.000000
54535.000000
55716.000000
56851.000000
58053.000000
59188.000000
60368.000000
61479.000000
62663.000000
63765.000000
64955.000000
66067.000000
67336.000000
68492.000000
69728.000000
70851.000000
71978.000000
73170.000000
74240.000000
75428.000000
76486.000000
77686.000000
78786.000000
79949.000000
81092.000000
82240.000000
83431.000000
84564.000000
85798.000000
86952.000000
88189.000000
89320.000000
90575.000000
91716.000000
92921.000000
94040.000000
95200.000000
96442.000000
97588.000000
98835.000000
99977.000000
101209.000000
102366.000000
103589.000000
104749.000000
105928.000000
107131.000000
108269.000000
109468.000000
110563.000000
111786.000000
112862.000000
114031.000000
115160.000000
116326.000000
117491.000000
118639.000000
119828.000000
120959.000000
122149.000000
123256.000000
124443.000000
125562.000000
126762.000000
127857.000000
129060.000000
130187.000000
131427.000000
132601.000000
133842.000000
134991.000000
136182.000000
137397.000000
138579.000000
139780.000000
140937.000000
142158.000000
143300.000000
144531.000000
145647.000000
146888.000000
148043.000000
149248.000000
150404.000000
151571.000000
152770.000000
153902.000000
155096.000000
156222.000000
157421.000000
158523.000000
159749.000000
160863.000000
162068.000000
163210.000000
164367.000000
165553.000000
166687.000000
167887.000000
168995.000000
170175.000000
171266.000000
172434.000000
173548.000000
174686.000000
175838.000000
176917.000000
178089.000000
179188.000000
180378.000000
181459.000000
182639.000000
183751.000000
184896.000000
186026.000000
187142.000000
188303.000000
189384.000000
190571.000000
191622.000000
192780.000000
193838.000000
194974.000000
196063.000000
197170.000000
198310.000000
199394.000000
200557.000000
201629.000000
202819.000000
203885.000000
205055.000000
206154.000000
207292.000000
208423.000000
209529.000000
210675.000000
211751.000000
212910.000000
213980.000000
215141.000000
216227.000000
217374.000000
218486.000000
219585.000000
220729.000000
221794.000000
222947.000000
224029.000000
225205.000000
226302.000000
227463.000000
228574.000000
229729.000000
230869.000000
232017.000000
233183.000000
234276.000000
235427.000000
236527.000000
237705.000000
238771.000000
239966.000000
241052.000000
242236.000000
243345.000000
244512.000000
245621.000000
246756.000000
247845.000000
248980.000000
250063.000000
251193.000000
252354.000000
253442.000000
254610.000000
255680.000000
256828.000000
257878.000000
259034.000000
260143.000000
261266.000000
262416.000000
263495.000000
264648.000000
265709.000000
266832.000000
267810.000000
268783.000000
269768.000000
270587.000000
271350.000000
272685.000000
273825.000000
274988.000000
276088.000000
277314.000000
278411.000000
279638.000000
280795.000000
281988.000000
283230.000000
284373.000000
285618.000000
286743.000000
287936.000000
289142.000000
290281.000000
291524.000000
292671.000000
293916.000000
295082.000000
296284.000000
297472.000000
298653.000000
299877.000000
300992.000000
302234.000000
303335.000000
304529.000000
305714.000000
306837.000000
308034.000000
309119.000000
310308.000000
311412.000000
312575.000000
313674.000000
314820.000000
315956.000000
317056.000000
318230.000000
319332.000000
320503.000000
321580.000000
322712.000000
323620.000000
324845.000000
325914.000000
327054.000000
328104.000000
329428.000000
330595.000000
331780.000000
332923.000000
334020.000000
335166.000000
336220.000000
337402.000000
338496.000000
339622.000000
340761.000000
341870.000000
343051.000000
344122.000000
345321.000000
346433.000000
347575.000000
348709.000000
349817.000000
350968.000000
352034.000000
353219.000000
354307.000000
355441.000000
356563.000000
357679.000000
358818.000000
359892.000000
361070.000000
362164.000000
363318.000000
364435.000000
365559.000000
366709.000000
367796.000000
368972.000000
370047.000000
371235.000000
372362.000000
373513.000000
374648.000000
375739.000000
376757.000000
377546.000000
378381.000000
379604.000000
380856.000000
381956.000000
383124.000000
384297.000000
385375.000000
386558.000000
387666.000000
388833.000000
389999.000000
391140.000000
392387.000000
393566.000000
394809.000000
395934.000000
397098.000000
398277.000000
399369.000000
400593.000000
401702.000000
402857.000000
404030.000000
405156.000000
406337.000000
407417.000000
408584.000000
409698.000000
410853.000000
412013.000000
413167.000000
414383.000000
415457.000000
416638.000000
417755.000000
418864.000000
420094.000000
421262.000000
422496.000000
423629.000000
424857.000000
425994.000000
427208.000000
428395.000000
429565.000000
430743.000000
431881.000000
433070.000000
434167.000000
435379.000000
436489.000000
437706.000000
438851.000000
439995.000000
441172.000000
442274.000000
443458.000000
444534.000000
445712.000000
446817.000000
447958.000000
449116.000000
450185.000000
451372.000000
452443.000000
453597.000000
454750.000000
455874.000000
457057.000000
458147.000000
459337.000000
460426.000000
461613.000000
462747.000000
463888.000000
465045.000000
466156.000000
467398.000000
468535.000000
469716.000000
470891.000000
471994.000000
473206.000000
474306.000000
475506.000000
476709.000000
477817.000000
479007.000000
480116.000000
481267.000000
482417.000000
483514.000000
484695.000000
485764.000000
486911.000000
488002.000000
489106.000000
490232.000000
491286.000000
492445.000000
493510.000000
494666.000000
495772.000000
496866.000000
498046.000000
499137.000000
500318.000000
501437.000000
502566.000000
503716.000000
504772.000000
505916.000000
507000.000000
508125.000000
509232.000000
510325.000000
511471.000000
512502.000000
513476.000000
514258.000000
515514.000000
516569.000000
517697.000000
518732.000000
520099.000000
521195.000000
522460.000000
523666.000000
524811.000000
526163.000000
527286.000000
528580.000000
529811.000000
530964.000000
532208.000000
533363.000000
534556.000000
535675.000000
536824.000000
538005.000000
539103.000000
540345.000000
541478.000000
542650.000000
543776.000000
544919.000000
546093.000000
547198.000000
548426.000000
549589.000000
550734.000000
551892.000000
553023.000000
554210.000000
555310.000000
556549.000000
557731.000000
558892.000000
560067.000000
561146.000000
562348.000000
563439.000000
564606.000000
565755.000000
566861.000000
568061.000000
569143.000000
570330.000000
571409.000000
572535.000000
573674.000000
574759.000000
575953.000000
577026.000000
578199.000000
579291.000000
580425.000000
581590.000000
582679.000000
583854.000000
584937.000000
586059.000000
587179.000000
588219.000000
589339.000000
590385.000000
591510.000000
592576.000000
593835.000000
595044.000000
596197.000000
597370.000000
598462.000000
599896.000000
601087.000000
602451.000000
603664.000000
604796.000000
606076.000000
607235.000000
608699.000000
609903.000000
611184.000000
612363.000000
613446.000000
614607.000000
615684.000000
617113.000000
618269.000000
619580.000000
620679.000000
621932.000000
623076.000000
624228.000000
625438.000000
626529.000000
627757.000000
628914.000000
630101.000000
631213.000000
632328.000000
633462.000000
634547.000000
635689.000000
636759.000000
637914.000000
638978.000000
640121.000000
641238.000000
642343.000000
643480.000000
644586.000000
645744.000000
646806.000000
647978.000000
649094.000000
650210.000000
651358.000000
652452.000000
653652.000000
654794.000000
655940.000000
657065.000000
658156.000000
659341.000000
660438.000000
661640.000000
662798.000000
663894.000000
665057.000000
666120.000000
667291.000000
668398.000000
669514.000000
670651.000000
671717.000000
672875.000000
673967.000000
675080.000000
676214.000000
677291.000000
678303.000000
679097.000000
680346.000000
681448.000000
682567.000000
683603.000000
684761.000000
685842.000000
686969.000000
688127.000000
689197.000000
690374.000000
691483.000000
692623.000000
693760.000000
694859.000000
696021.000000
697108.000000
698291.000000
699410.000000
700538.000000
701703.000000
702774.000000
703945.000000
705051.000000
706171.000000
707333.000000
708400.000000
709577.000000
710664.000000
711818.000000
712960.000000
714036.000000
715207.000000
716277.000000
717452.000000
718597.000000
719715.000000
720897.000000
721970.000000
723155.000000
724246.000000
725410.000000
726533.000000
727646.000000
728785.000000
729820.000000
730967.000000
732014.000000
733130.000000
734248.000000
735340.000000
736503.000000
737553.000000
738734.000000
739821.000000
740950.000000
742102.000000
743147.000000
744299.000000
745362.000000
746466.000000
747596.000000
748655.000000
749815.000000
750852.000000
751986.000000
753055.000000
754161.000000
755293.000000
756351.000000
757490.000000
758529.000000
759684.000000
760745.000000
761860.000000
762985.000000
764054.000000
765216.000000
766266.000000
767440.000000
768553.000000
769672.000000
770754.000000
771829.000000
772957.000000
774015.000000
775371.000000
776464.000000
777740.000000
778841.000000
779941.000000
781149.000000
782254.000000
783443.000000
784760.000000
786039.000000
787284.000000
788469.000000
789682.000000
790749.000000
791925.000000
793058.000000
794174.000000
795371.000000
796524.000000
797727.000000
798817.000000
799967.000000
801078.000000
802174.000000
803323.000000
804398.000000
805584.000000
806707.000000
807833.000000
808959.000000
810022.000000
811193.000000
812280.000000
813406.000000
814576.000000
815647.000000
816824.000000
817914.000000
819034.000000
820180.000000
821261.000000
822416.000000
823502.000000
824610.000000
825719.000000
826716.000000
827907.000000
828959.000000
830081.000000
831221.000000
832342.000000
833537.000000
834606.000000
835800.000000
836874.000000
838014.000000
839110.000000
840212.000000
841360.000000
842420.000000
843624.000000
844715.000000
845863.000000
846960.000000
848040.000000
849230.000000
850322.000000
851698.000000
852873.000000
854132.000000
855309.000000
856389.000000
857564.000000
858639.000000
859964.000000
861046.000000
862295.000000
863429.000000
864581.000000
865718.000000
866772.000000
868105.000000
869139.000000
870204.000000
871450.000000
872417.000000
873674.000000
874800.000000
875939.000000
877091.000000
878154.000000
879323.000000
880406.000000
881537.000000
882670.000000
883547.000000
884321.000000
885601.000000
886629.000000
887711.000000
888844.000000
889977.000000
891203.000000
892337.000000
893506.000000
894570.000000
895704.000000
897021.000000
898018.000000
899373.000000
900531.000000
901636.000000
902968.000000
904135.000000
905419.000000
906590.000000
907746.000000
908918.000000
910052.000000
911338.000000
912548.000000
913765.000000
914899.000000
916003.000000
917170.000000
918254.000000
919489.000000
920634.000000
921788.000000
922973.000000
924030.000000
925200.000000
926316.000000
927445.000000
928603.000000
929639.000000
930780.000000
931824.000000
932931.000000
934072.000000
935112.000000
936311.000000
937459.000000
938594.000000
939764.000000
940840.000000
942034.000000
943167.000000
944329.000000
945530.000000
946674.000000
947879.000000
949020.000000
950188.000000
951379.000000
952469.000000
953657.000000
954756.000000
955930.000000
957121.000000
958219.000000
959402.000000
960488.000000
961641.000000
962766.000000
963887.000000
965061.000000
966142.000000
967298.000000
968377.000000
969528.000000
970680.000000
971798.000000
972988.000000
974093.000000
975284.000000
976447.000000
977624.000000
978829.000000
979972.000000
981160.000000
982248.000000
983419.000000
984499.000000
985622.000000
986749.000000
987817.000000
988970.000000
990047.000000
991168.000000
992327.000000
993399.000000
994581.000000
995659.000000
996793.000000
997922.000000
998986.000000
1000114.000000
1001138.000000
1002246.000000
1003308.000000
1004388.000000
1005488.000000
1006531.000000
1007644.000000
1008675.000000
1009806.000000
1010869.000000
1011958.000000
1013080.000000
1014124.000000
1015240.000000
1016251.000000
1017377.000000
1018455.000000
1019537.000000
1020679.000000
1021731.000000
1022888.000000
1023966.000000
1025063.000000
1026190.000000
1027240.000000
1028376.000000
1029418.000000
1030531.000000
1031643.000000
1032705.000000
1033865.000000
1034902.000000
1036032.000000
1037130.000000
1038192.000000
1039306.000000
1040256.000000
1041052.000000
1041802.000000
1043003.000000
1044090.000000
1045190.000000
1046215.000000
1047397.000000
1048489.000000
1049641.000000
1050827.000000
1051928.000000
1053118.000000
1054183.000000
1055347.000000
1056484.000000
1057605.000000
1058786.000000
1059847.000000
1061036.000000
1062103.000000
1063240.000000
1064349.000000
1065415.000000
1066590.000000
1067638.000000
1068788.000000
1069931.000000
1071025.000000
1072193.000000
1073265.000000
1074414.000000
1075505.000000
1076607.000000
1077735.000000
1078773.000000
1079903.000000
1080975.000000
1082068.000000
1083185.000000
1084268.000000
1085422.000000
1086448.000000
1087585.000000
1088643.000000
1089730.000000
1090866.000000
1091917.000000
1093074.000000
1094193.000000
1095323.000000
1096466.000000
1097555.000000
1098770.000000
1099891.000000
1101078.000000
1102232.000000
1103292.000000
1104119.000000
1104946.000000
1106347.000000
1107463.000000
1108545.000000
1109477.000000
1110316.000000
1111739.000000
1112890.000000
1114311.000000
1115538.000000
1116850.000000
1118142.000000
1119394.000000
1120661.000000
1121808.000000
1123058.000000
1124301.000000
1125465.000000
1126702.000000
1127834.000000
1129018.000000
1130221.000000
1131369.000000
1132568.000000
1133751.000000
1134875.000000
1136071.000000
1137166.000000
1138363.000000
1139561.000000
1140694.000000
1141886.000000
1143044.000000
1144151.000000
1145318.000000
1146408.000000
1147531.000000
1148679.000000
1149771.000000
1150944.000000
1152086.000000
1153200.000000
1154338.000000
1155328.000000
1156206.000000
1157164.000000
1157991.000000
1158837.000000
1160037.000000
1161324.000000
1162374.000000
1163533.000000
1164698.000000
1165763.000000
1166964.000000
1168052.000000
1169224.000000
1170403.000000
1171545.000000
1172786.000000
1173943.000000
1175135.000000
1176301.000000
1177458.000000
1178662.000000
1179879.000000
1180944.000000
1182020.000000
1183143.000000
1184358.000000
1185301.000000
1186146.000000
1187476.000000
1188687.000000
1189879.000000
1190944.000000
1192088.000000
1193315.000000
1194390.000000
1195603.000000
1196761.000000
1197924.000000
1199171.000000
1200292.000000
1201500.000000
1202702.000000
1203838.000000
1205043.000000
1206203.000000
1207361.000000
1208552.000000
1209656.000000
1210891.000000
1212018.000000
1213172.000000
1214376.000000
1215488.000000
1216714.000000
1217833.000000
1218960.000000
1220115.000000
1221148.000000
1222315.000000
