ECG (ms)
533.000000
1406.000000
2243.000000
3097.000000
3984.000000
4842.000000
5657.000000
6509.000000
7393.000000
8262.000000
9078.000000
9915.000000
10777.000000
11656.000000
12491.000000
13337.000000
14207.000000
15096.000000
15966.000000
16811.000000
17678.000000
18567.000000
19440.000000
20280.000000
21140.000000
22013.000000
22847.000000
23687.000000
24557.000000
25439.000000
26294.000000
27158.000000
27969.000000
28757.000000
29576.000000
30446.000000
31339.000000
32172.000000
33016.000000
33887.000000
34775.000000
35605.000000
36414.000000
37244.000000
38097.000000
38925.000000
39731.000000
40562.000000
41415.000000
42285.000000
43121.000000
43988.000000
44863.000000
45706.000000
46529.000000
47373.000000
48238.000000
49096.000000
49906.000000
50716.000000
51540.000000
52374.000000
53183.000000
53981.000000
54800.000000
55665.000000
56528.000000
57347.000000
58171.000000
59001.000000
59830.000000
60613.000000
61389.000000
62203.000000
63047.000000
63942.000000
64802.000000
65669.000000
66574.000000
67477.000000
68295.000000
69107.000000
69934.000000
70777.000000
71587.000000
72399.000000
73241.000000
74113.000000
74941.000000
75747.000000
76587.000000
77439.000000
78246.000000
79048.000000
79877.000000
80740.000000
81606.000000
82446.000000
83321.000000
84213.000000
85057.000000
85894.000000
86749.000000
87612.000000
88433.000000
89252.000000
90098.000000
90987.000000
91867.000000
92711.000000
93558.000000
94420.000000
95294.000000
96116.000000
96932.000000
97756.000000
98604.000000
99422.000000
100225.000000
101056.000000
101917.000000
102767.000000
103590.000000
104422.000000
105259.000000
106084.000000
106866.000000
107678.000000
108525.000000
109387.000000
110212.000000
111051.000000
111938.000000
112845.000000
113713.000000
114533.000000
115357.000000
116191.000000
116998.000000
117782.000000
118623.000000
119537.000000
120502.000000
121399.000000
122272.000000
123146.000000
123977.000000
124769.000000
125573.000000
126401.000000
127227.000000
128031.000000
128846.000000
129689.000000
130538.000000
131338.000000
132176.000000
133049.000000
133899.000000
134712.000000
135543.000000
136394.000000
137226.000000
138051.000000
138893.000000
139755.000000
140600.000000
141405.000000
142242.000000
143109.000000
143981.000000
144783.000000
145574.000000
146385.000000
147232.000000
148085.000000
148904.000000
149730.000000
150584.000000
151464.000000
152312.000000
153131.000000
153978.000000
154829.000000
155688.000000
156523.000000
157322.000000
158126.000000
158928.000000
159740.000000
160533.000000
161324.000000
162164.000000
163049.000000
163964.000000
164838.000000
165682.000000
166531.000000
167402.000000
168262.000000
169085.000000
169930.000000
170791.000000
171682.000000
172522.000000
173366.000000
174208.000000
175067.000000
175926.000000
176753.000000
177590.000000
178457.000000
179311.000000
180106.000000
180883.000000
181699.000000
182573.000000
183486.000000
184361.000000
185265.000000
186275.000000
187261.000000
188161.000000
189017.000000
189844.000000
190661.000000
191472.000000
192310.000000
193286.000000
194315.000000
195304.000000
196235.000000
197186.000000
198148.000000
199093.000000
200001.000000
200915.000000
201839.000000
202738.000000
203589.000000
204464.000000
205357.000000
206262.000000
207139.000000
208038.000000
208951.000000
209849.000000
210758.000000
211696.000000
212635.000000
213540.000000
214464.000000
215399.000000
216331.000000
217203.000000
218023.000000
218867.000000
219782.000000
220745.000000
221722.000000
222610.000000
223503.000000
224413.000000
225358.000000
226227.000000
227072.000000
227975.000000
228922.000000
229773.000000
230611.000000
231449.000000
232282.000000
233078.000000
233894.000000
234746.000000
235642.000000
236478.000000
237306.000000
238170.000000
239073.000000
239938.000000
240745.000000
241564.000000
242399.000000
243245.000000
244050.000000
244831.000000
245627.000000
246445.000000
247246.000000
248016.000000
248805.000000
249616.000000
250417.000000
251189.000000
251935.000000
252677.000000
253414.000000
254161.000000
254935.000000
255786.000000
256789.000000
257764.000000
258725.000000
259718.000000
260720.000000
261693.000000
262654.000000
263628.000000
264597.000000
265480.000000
266309.000000
267162.000000
268001.000000
268815.000000
269672.000000
270583.000000
271520.000000
272389.000000
273251.000000
274149.000000
275052.000000
275901.000000
276722.000000
277573.000000
278469.000000
279330.000000
280169.000000
281029.000000
281934.000000
282825.000000
283661.000000
284509.000000
285361.000000
286168.000000
286951.000000
287766.000000
288620.000000
289466.000000
290278.000000
291112.000000
291968.000000
292807.000000
293616.000000
294429.000000
295250.000000
296070.000000
296855.000000
297668.000000
298475.000000
299231.000000
299967.000000
300676.000000
301384.000000
302103.000000
302884.000000
303721.000000
304582.000000
305386.000000
306197.000000
307018.000000
307842.000000
308629.000000
309398.000000
310174.000000
310968.000000
311749.000000
312523.000000
313357.000000
314222.000000
315080.000000
315873.000000
316661.000000
317474.000000
318314.000000
319138.000000
319977.000000
320895.000000
321856.000000
322746.000000
323645.000000
324549.000000
325384.000000
326224.000000
327088.000000
327930.000000
328745.000000
329608.000000
330502.000000
331363.000000
332199.000000
333071.000000
333964.000000
334809.000000
335671.000000
336567.000000
337479.000000
338326.000000
339196.000000
340089.000000
340966.000000
341790.000000
342656.000000
343551.000000
344422.000000
345261.000000
346159.000000
347068.000000
347950.000000
348794.000000
349683.000000
350628.000000
351558.000000
352423.000000
353319.000000
354231.000000
355163.000000
356018.000000
356842.000000
357689.000000
358587.000000
359502.000000
360392.000000
361356.000000
362388.000000
363368.000000
364284.000000
365242.000000
366218.000000
367132.000000
368014.000000
368900.000000
369773.000000
370629.000000
371525.000000
372558.000000
373661.000000
374701.000000
375669.000000
376654.000000
377640.000000
378546.000000
379421.000000
380318.000000
381243.000000
382123.000000
383009.000000
383912.000000
384826.000000
385689.000000
386563.000000
387447.000000
388322.000000
389141.000000
389960.000000
390813.000000
391708.000000
392579.000000
393494.000000
394431.000000
395353.000000
396225.000000
397106.000000
397980.000000
398826.000000
399652.000000
400522.000000
401452.000000
402388.000000
403268.000000
404195.000000
405175.000000
406154.000000
407093.000000
408005.000000
408853.000000
409652.000000
410451.000000
411349.000000
412393.000000
413396.000000
414349.000000
415329.000000
416318.000000
417214.000000
418094.000000
419003.000000
419919.000000
420788.000000
421654.000000
422545.000000
423451.000000
424293.000000
425128.000000
426008.000000
426919.000000
427772.000000
428591.000000
429440.000000
430308.000000
431142.000000
431969.000000
432831.000000
433704.000000
434536.000000
435406.000000
436301.000000
437166.000000
438019.000000
438884.000000
439745.000000
440578.000000
441403.000000
442228.000000
443038.000000
443812.000000
444597.000000
445408.000000
446240.000000
447049.000000
447840.000000
448655.000000
449498.000000
450342.000000
451142.000000
451938.000000
452746.000000
453567.000000
454356.000000
455158.000000
455991.000000
456842.000000
457676.000000
458477.000000
459295.000000
460127.000000
460972.000000
461771.000000
462563.000000
463381.000000
464217.000000
465025.000000
465815.000000
466650.000000
467515.000000
468372.000000
469183.000000
470016.000000
470868.000000
471733.000000
472600.000000
473497.000000
474385.000000
475205.000000
475990.000000
476795.000000
477612.000000
478443.000000
479241.000000
480023.000000
480845.000000
481694.000000
482529.000000
483321.000000
484112.000000
484916.000000
485724.000000
486501.000000
487267.000000
488066.000000
488914.000000
489750.000000
490555.000000
491380.000000
492224.000000
493034.000000
493811.000000
494604.000000
495429.000000
496257.000000
497044.000000
497854.000000
498708.000000
499592.000000
500422.000000
501245.000000
502049.000000
502819.000000
503582.000000
504409.000000
505458.000000
506502.000000
507474.000000
508489.000000
509511.000000
510481.000000
511434.000000
512387.000000
513284.000000
514125.000000
514971.000000
515847.000000
516723.000000
517574.000000
518476.000000
519408.000000
520306.000000
521207.000000
522126.000000
523049.000000
523916.000000
524810.000000
525737.000000
526658.000000
527568.000000
528499.000000
529430.000000
530359.000000
531239.000000
532116.000000
533015.000000
533955.000000
534876.000000
535732.000000
536584.000000
537485.000000
538422.000000
539306.000000
540165.000000
541065.000000
542007.000000
542918.000000
543773.000000
544644.000000
545535.000000
546419.000000
547261.000000
548099.000000
548960.000000
549846.000000
550701.000000
551514.000000
552342.000000
553188.000000
554019.000000
554810.000000
555624.000000
556465.000000
557324.000000
558143.000000
558984.000000
559832.000000
560666.000000
561456.000000
562265.000000
563081.000000
563884.000000
564660.000000
565457.000000
566281.000000
567124.000000
567933.000000
568739.000000
569562.000000
570395.000000
571186.000000
571948.000000
572720.000000
573511.000000
574304.000000
575091.000000
575912.000000
576801.000000
577700.000000
578549.000000
579430.000000
580352.000000
581295.000000
582184.000000
583082.000000
584007.000000
584949.000000
585812.000000
586610.000000
587428.000000
588301.000000
589315.000000
590286.000000
591221.000000
592169.000000
593094.000000
593964.000000
594802.000000
595662.000000
596562.000000
597418.000000
598262.000000
599165.000000
600109.000000
600999.000000
601880.000000
602784.000000
603736.000000
604617.000000
605493.000000
606389.000000
607312.000000
608175.000000
609064.000000
609972.000000
610831.000000
611653.000000
612522.000000
613418.000000
614279.000000
615097.000000
615957.000000
616836.000000
617689.000000
618515.000000
619363.000000
620253.000000
621123.000000
621925.000000
622695.000000
623497.000000
624393.000000
625351.000000
626294.000000
627257.000000
628260.000000
629233.000000
630144.000000
631042.000000
631942.000000
632793.000000
633630.000000
634507.000000
635438.000000
636321.000000
637150.000000
638016.000000
638897.000000
639746.000000
640553.000000
641405.000000
642298.000000
643162.000000
644004.000000
644907.000000
645814.000000
646665.000000
647562.000000
648480.000000
649394.000000
650253.000000
651144.000000
652058.000000
652942.000000
653784.000000
654667.000000
655559.000000
656424.000000
657269.000000
658133.000000
658995.000000
659809.000000
660581.000000
661337.000000
662136.000000
663040.000000
663948.000000
664772.000000
665599.000000
666453.000000
667332.000000
668153.000000
668940.000000
669755.000000
670597.000000
671456.000000
672286.000000
673091.000000
673925.000000
674767.000000
675623.000000
676423.000000
677221.000000
678041.000000
678895.000000
679707.000000
680485.000000
681298.000000
682143.000000
683014.000000
683839.000000
684646.000000
685476.000000
686308.000000
687112.000000
687891.000000
688684.000000
689503.000000
690317.000000
691105.000000
691919.000000
692783.000000
693641.000000
694449.000000
695232.000000
696038.000000
696854.000000
697660.000000
698435.000000
699241.000000
700048.000000
700863.000000
701655.000000
702473.000000
703365.000000
704297.000000
705168.000000
706038.000000
706913.000000
707747.000000
708505.000000
709232.000000
709983.000000
710827.000000
711830.000000
712791.000000
713713.000000
714657.000000
715610.000000
716510.000000
717351.000000
718191.000000
719082.000000
719960.000000
720792.000000
721674.000000
722588.000000
723464.000000
724288.000000
725138.000000
726017.000000
726875.000000
727683.000000
728508.000000
729375.000000
730292.000000
731161.000000
731995.000000
732853.000000
733705.000000
734519.000000
735296.000000
736083.000000
736895.000000
737733.000000
738558.000000
739407.000000
740311.000000
741225.000000
742134.000000
742962.000000
743739.000000
744517.000000
745324.000000
746144.000000
746960.000000
747842.000000
748788.000000
749714.000000
750582.000000
751467.000000
752351.000000
753199.000000
754015.000000
754832.000000
755647.000000
756444.000000
757230.000000
758073.000000
758973.000000
759859.000000
760751.000000
761655.000000
762513.000000
763302.000000
764068.000000
764839.000000
765652.000000
766501.000000
767343.000000
768199.000000
769072.000000
769917.000000
770720.000000
771547.000000
772407.000000
773289.000000
774113.000000
774940.000000
775806.000000
776696.000000
777558.000000
778386.000000
779263.000000
780154.000000
781042.000000
781896.000000
782806.000000
783738.000000
784631.000000
785461.000000
786321.000000
787216.000000
788126.000000
788998.000000
789962.000000
790942.000000
791919.000000
792774.000000
793565.000000
794380.000000
795321.000000
796297.000000
797243.000000
798265.000000
799330.000000
800326.000000
801259.000000
802187.000000
803124.000000
804001.000000
804862.000000
805769.000000
806681.000000
807526.000000
808373.000000
809249.000000
810158.000000
811051.000000
812018.000000
813034.000000
814032.000000
814951.000000
815887.000000
816830.000000
817758.000000
818626.000000
819488.000000
820352.000000
821269.000000
822139.000000
823012.000000
823942.000000
824892.000000
825768.000000
826623.000000
827502.000000
828393.000000
829226.000000
830049.000000
830904.000000
831785.000000
832618.000000
833437.000000
834293.000000
835173.000000
836013.000000
836823.000000
837665.000000
838515.000000
839314.000000
840087.000000
840876.000000
841699.000000
842527.000000
843325.000000
844149.000000
845004.000000
845863.000000
846672.000000
847472.000000
848280.000000
849094.000000
849870.000000
850640.000000
851417.000000
852190.000000
852948.000000
853717.000000
854501.000000
855280.000000
856042.000000
856806.000000
857583.000000
858358.000000
859107.000000
859854.000000
860615.000000
861403.000000
862176.000000
862935.000000
863717.000000
864525.000000
865339.000000
866109.000000
866880.000000
867661.000000
868447.000000
869235.000000
870004.000000
870797.000000
871628.000000
872484.000000
873309.000000
874162.000000
875050.000000
875949.000000
876795.000000
877663.000000
878596.000000
879531.000000
880405.000000
881255.000000
882130.000000
883032.000000
883966.000000
884855.000000
885732.000000
886619.000000
887515.000000
888397.000000
889240.000000
890071.000000
890920.000000
891797.000000
892616.000000
893389.000000
894193.000000
895043.000000
895896.000000
896695.000000
897507.000000
898342.000000
899204.000000
900031.000000
900823.000000
901643.000000
902499.000000
903362.000000
904168.000000
904980.000000
905785.000000
906563.000000
907316.000000
908075.000000
908856.000000
909670.000000
910500.000000
911303.000000
912126.000000
912969.000000
913811.000000
914606.000000
915386.000000
916175.000000
916981.000000
917797.000000
918585.000000
919367.000000
920160.000000
920980.000000
921811.000000
922615.000000
923384.000000
924164.000000
924966.000000
925806.000000
926649.000000
927449.000000
928261.000000
929085.000000
929916.000000
930716.000000
931546.000000
932417.000000
933330.000000
934192.000000
935069.000000
935975.000000
936858.000000
937677.000000
938497.000000
939396.000000
940338.000000
941263.000000
942126.000000
943049.000000
944016.000000
944984.000000
945867.000000
946723.000000
947627.000000
948562.000000
949505.000000
950386.000000
951235.000000
952102.000000
952997.000000
953876.000000
954712.000000
955556.000000
956430.000000
957327.000000
958170.000000
959019.000000
959866.000000
960693.000000
961493.000000
962311.000000
963141.000000
963978.000000
964787.000000
965653.000000
966561.000000
967487.000000
968403.000000
969309.000000
970191.000000
971030.000000
971908.000000
972811.000000
973700.000000
974545.000000
975441.000000
976362.000000
977229.000000
978085.000000
978987.000000
979931.000000
980845.000000
981749.000000
982656.000000
983527.000000
984381.000000
985308.000000
986308.000000
987249.000000
988106.000000
988982.000000
989875.000000
990739.000000
991542.000000
992336.000000
993137.000000
993961.000000
994767.000000
995554.000000
996365.000000
997213.000000
998117.000000
998981.000000
999839.000000
1000718.000000
1001587.000000
1002413.000000
1003251.000000
1004113.000000
1004971.000000
1005803.000000
1006712.000000
1007684.000000
1008608.000000
1009471.000000
1010356.000000
1011256.000000
1012157.000000
1013000.000000
1013860.000000
1014735.000000
1015641.000000
1016507.000000
1017412.000000
1018331.000000
1019241.000000
1020087.000000
1020984.000000
1021889.000000
1022763.000000
1023568.000000
1024412.000000
1025304.000000
1026188.000000
1027047.000000
1027956.000000
1028898.000000
1029783.000000
1030664.000000
1031597.000000
1032503.000000
1033351.000000
1034216.000000
1035050.000000
1035841.000000
1036591.000000
1037365.000000
1038245.000000
1039276.000000
1040273.000000
1041300.000000
1042309.000000
1043238.000000
1044167.000000
1045083.000000
1045985.000000
1046838.000000
1047720.000000
1048640.000000
1049572.000000
1050464.000000
1051412.000000
1052412.000000
1053377.000000
1054306.000000
1055232.000000
1056163.000000
1057027.000000
1057913.000000
1058856.000000
1059769.000000
1060662.000000
1061573.000000
1062478.000000
1063312.000000
1064123.000000
1064932.000000
1065727.000000
1066508.000000
1067317.000000
1068158.000000
1069013.000000
1069824.000000
1070628.000000
1071457.000000
1072302.000000
1073157.000000
1074004.000000
1074819.000000
1075625.000000
1076439.000000
1077269.000000
1078088.000000
1078888.000000
1079710.000000
1080547.000000
1081388.000000
1082213.000000
1083028.000000
1083837.000000
1084619.000000
1085378.000000
1086139.000000
1086914.000000
1087722.000000
1088513.000000
1089262.000000
1089973.000000
1090690.000000
1091397.000000
1092100.000000
1092836.000000
1093614.000000
1094446.000000
1095255.000000
1096025.000000
1096802.000000
1097586.000000
1098373.000000
1099132.000000
1099881.000000
1100656.000000
1101465.000000
1102285.000000
1103069.000000
1103874.000000
1104693.000000
1105535.000000
1106357.000000
1107138.000000
1107919.000000
1108719.000000
1109563.000000
1110407.000000
1111219.000000
1112024.000000
1112849.000000
1113699.000000
1114550.000000
1115344.000000
1116110.000000
1116893.000000
1117713.000000
1118580.000000
1119420.000000
1120296.000000
1121189.000000
1122090.000000
1122944.000000
1123750.000000
1124553.000000
1125381.000000
1126205.000000
1126992.000000
1127791.000000
1128612.000000
1129458.000000
1130329.000000
1131154.000000
1131991.000000
1132844.000000
1133700.000000
1134526.000000
1135308.000000
1136089.000000
1136881.000000
1137703.000000
1138508.000000
1139301.000000
1140121.000000
1140973.000000
1141826.000000
1142637.000000
1143459.000000
1144289.000000
1145140.000000
1145985.000000
1146792.000000
1147606.000000
1148441.000000
1149293.000000
1150124.000000
1150927.000000
1151756.000000
1152612.000000
1153466.000000
1154286.000000
1155138.000000
1156016.000000
1156860.000000
1157663.000000
1158485.000000
1159339.000000
1160203.000000
1161024.000000
1161817.000000
1162625.000000
1163461.000000
1164314.000000
1165121.000000
1165947.000000
1166824.000000
1167724.000000
1168582.000000
1169416.000000
1170266.000000
1171108.000000
1171908.000000
1172732.000000
1173562.000000
1174380.000000
1175179.000000
1176027.000000
1176927.000000
1177836.000000
1178688.000000
1179556.000000
1180454.000000
1181357.000000
1182209.000000
1183039.000000
1183885.000000
1184743.000000
1185577.000000
1186384.000000
1187214.000000
1188064.000000
1188927.000000
1189747.000000
1190537.000000
1191341.000000
1192169.000000
1193015.000000
1193822.000000
1194629.000000
1195466.000000
1196322.000000
1197165.000000
1197973.000000
1198803.000000
1199669.000000
1200540.000000
1201377.000000
1202210.000000
1203073.000000
1203930.000000
1204784.000000
1205605.000000
1206448.000000
1207312.000000
1208177.000000
1208993.000000
1209794.000000
