ECG (ms)
601.000000
1381.000000
2173.000000
2963.000000
3838.000000
4800.000000
5673.000000
6552.000000
7402.000000
8238.000000
9073.000000
9912.000000
10743.000000
11578.000000
12405.000000
13229.000000
14043.000000
14857.000000
15665.000000
16473.000000
17271.000000
18063.000000
18857.000000
19653.000000
20446.000000
21254.000000
22094.000000
23097.000000
24057.000000
24950.000000
25805.000000
26658.000000
27521.000000
28355.000000
29223.000000
30093.000000
30922.000000
31745.000000
32555.000000
33358.000000
34159.000000
34963.000000
35767.000000
36564.000000
37365.000000
38178.000000
39002.000000
39879.000000
40730.000000
41594.000000
42430.000000
43455.000000
44387.000000
45216.000000
46122.000000
46979.000000
47819.000000
48657.000000
49501.000000
50348.000000
51194.000000
52041.000000
52886.000000
53714.000000
54528.000000
55360.000000
56190.000000
57099.000000
57991.000000
58843.000000
59691.000000
60523.000000
61353.000000
62169.000000
62982.000000
63842.000000
64829.000000
65757.000000
66611.000000
67458.000000
68292.000000
69120.000000
69938.000000
70744.000000
71566.000000
72394.000000
73475.000000
74370.000000
75204.000000
76020.000000
76823.000000
77618.000000
78408.000000
79197.000000
79984.000000
80775.000000
81571.000000
82394.000000
83363.000000
84273.000000
85204.000000
86036.000000
86923.000000
87771.000000
88622.000000
89451.000000
90286.000000
91114.000000
91944.000000
92763.000000
93577.000000
94383.000000
95197.000000
96034.000000
97050.000000
97906.000000
98780.000000
99586.000000
100385.000000
101178.000000
101995.000000
102835.000000
103856.000000
104758.000000
105609.000000
106457.000000
107305.000000
108144.000000
108973.000000
109796.000000
110631.000000
111506.000000
112450.000000
113377.000000
114258.000000
115118.000000
115955.000000
116785.000000
117602.000000
118408.000000
119240.000000
120054.000000
120952.000000
121845.000000
122722.000000
123597.000000
124445.000000
125281.000000
126105.000000
126918.000000
127723.000000
128516.000000
129299.000000
130095.000000
130914.000000
131874.000000
132734.000000
133622.000000
134454.000000
135259.000000
136054.000000
136852.000000
137668.000000
138473.000000
139358.000000
140220.000000
141085.000000
141942.000000
142798.000000
143649.000000
144502.000000
145363.000000
146212.000000
147061.000000
147902.000000
148754.000000
149591.000000
150429.000000
151258.000000
152081.000000
152897.000000
153706.000000
154495.000000
155275.000000
156064.000000
156820.000000
157561.000000
158414.000000
159251.000000
160137.000000
161039.000000
161826.000000
162555.000000
163557.000000
164401.000000
165298.000000
166147.000000
166979.000000
167820.000000
168648.000000
169483.000000
170311.000000
171141.000000
171968.000000
172796.000000
173624.000000
174456.000000
175294.000000
176126.000000
176958.000000
177782.000000
178610.000000
179424.000000
180238.000000
181052.000000
181870.000000
182698.000000
183534.000000
184373.000000
185209.000000
186054.000000
186900.000000
187749.000000
188602.000000
189451.000000
190308.000000
191157.000000
192023.000000
192880.000000
193742.000000
194584.000000
195426.000000
196261.000000
197105.000000
197942.000000
198787.000000
199649.000000
200509.000000
201375.000000
202244.000000
203111.000000
203965.000000
204824.000000
205679.000000
206533.000000
207386.000000
208244.000000
209097.000000
209951.000000
210789.000000
211628.000000
212464.000000
213302.000000
214141.000000
214978.000000
215815.000000
216663.000000
217514.000000
218370.000000
219224.000000
220084.000000
220935.000000
221793.000000
222639.000000
223505.000000
224360.000000
225222.000000
226076.000000
226931.000000
227786.000000
228643.000000
229498.000000
230355.000000
231201.000000
232039.000000
232867.000000
233694.000000
234523.000000
235354.000000
236188.000000
237026.000000
237868.000000
238717.000000
239563.000000
240408.000000
241259.000000
242100.000000
242954.000000
243796.000000
244655.000000
245503.000000
246364.000000
247208.000000
248068.000000
248913.000000
249761.000000
250599.000000
251435.000000
252266.000000
253098.000000
253921.000000
254749.000000
255579.000000
256417.000000
257262.000000
258109.000000
258963.000000
259808.000000
260657.000000
261503.000000
262352.000000
263199.000000
264069.000000
264935.000000
265783.000000
266653.000000
267502.000000
268351.000000
269195.000000
270027.000000
270850.000000
271664.000000
272506.000000
273333.000000
274255.000000
275145.000000
276023.000000
276891.000000
277725.000000
278555.000000
279373.000000
280184.000000
280994.000000
281820.000000
282649.000000
283651.000000
284598.000000
285474.000000
286314.000000
287150.000000
287988.000000
288829.000000
289673.000000
290516.000000
291365.000000
292212.000000
293068.000000
293918.000000
294776.000000
295620.000000
296469.000000
297300.000000
298124.000000
298941.000000
299772.000000
300609.000000
301437.000000
302241.000000
303051.000000
303855.000000
304645.000000
305424.000000
306188.000000
306924.000000
307630.000000
308576.000000
309524.000000
310375.000000
311130.000000
311974.000000
312809.000000
313629.000000
314420.000000
315185.000000
315950.000000
316712.000000
317777.000000
318677.000000
319513.000000
320345.000000
321180.000000
322017.000000
322846.000000
323673.000000
324489.000000
325303.000000
326107.000000
326903.000000
327690.000000
328473.000000
329255.000000
330037.000000
330815.000000
331591.000000
332366.000000
333142.000000
333922.000000
334700.000000
335480.000000
336262.000000
337043.000000
337817.000000
338590.000000
339361.000000
340135.000000
340905.000000
341676.000000
342446.000000
343214.000000
343982.000000
344748.000000
345514.000000
346282.000000
347050.000000
347812.000000
348572.000000
349663.000000
350517.000000
351296.000000
352069.000000
352954.000000
353787.000000
354640.000000
355470.000000
356339.000000
357177.000000
358015.000000
358772.000000
359479.000000
360481.000000
361004.000000
362221.000000
363020.000000
363821.000000
364571.000000
365293.000000
365989.000000
366969.000000
367861.000000
368710.000000
369521.000000
370340.000000
371165.000000
372038.000000
372881.000000
373742.000000
374657.000000
375631.000000
376550.000000
377430.000000
378289.000000
379143.000000
379993.000000
380832.000000
381673.000000
382503.000000
383333.000000
384150.000000
384964.000000
385767.000000
386557.000000
387339.000000
388122.000000
388909.000000
389698.000000
390496.000000
391295.000000
392095.000000
392904.000000
393717.000000
394527.000000
395338.000000
396150.000000
396964.000000
397779.000000
398603.000000
399425.000000
400254.000000
401081.000000
401909.000000
402743.000000
403570.000000
404399.000000
405219.000000
406047.000000
406874.000000
407710.000000
408544.000000
409377.000000
410211.000000
411044.000000
411873.000000
412701.000000
413529.000000
414354.000000
415170.000000
415986.000000
416800.000000
417611.000000
418423.000000
419237.000000
420050.000000
420861.000000
421668.000000
422471.000000
423272.000000
424073.000000
424867.000000
425672.000000
426487.000000
427306.000000
428133.000000
428963.000000
429796.000000
430625.000000
431465.000000
432297.000000
433139.000000
433971.000000
434808.000000
435640.000000
436482.000000
437318.000000
438165.000000
439007.000000
439859.000000
440693.000000
441531.000000
442361.000000
443186.000000
443998.000000
444802.000000
445596.000000
446407.000000
447228.000000
448135.000000
449003.000000
449856.000000
450687.000000
451498.000000
452291.000000
453075.000000
453874.000000
454694.000000
455578.000000
456622.000000
457517.000000
458414.000000
459272.000000
460129.000000
460994.000000
461842.000000
462697.000000
463541.000000
464391.000000
465229.000000
466050.000000
466874.000000
467750.000000
468832.000000
469751.000000
470604.000000
471432.000000
472256.000000
473110.000000
474047.000000
475069.000000
475949.000000
476789.000000
477620.000000
478450.000000
479275.000000
480087.000000
480898.000000
481672.000000
482378.000000
483072.000000
484014.000000
484947.000000
485826.000000
486682.000000
487511.000000
488326.000000
489147.000000
489979.000000
490800.000000
491624.000000
492453.000000
493283.000000
494109.000000
494934.000000
495756.000000
496572.000000
497388.000000
498202.000000
499017.000000
499838.000000
500660.000000
501490.000000
502315.000000
503155.000000
503992.000000
504827.000000
505652.000000
506469.000000
507278.000000
508084.000000
508896.000000
510017.000000
510953.000000
511782.000000
512589.000000
513373.000000
514110.000000
514844.000000
515588.000000
516407.000000
517231.000000
518042.000000
518911.000000
519750.000000
520566.000000
521374.000000
522181.000000
522995.000000
523810.000000
524621.000000
525431.000000
526252.000000
527078.000000
527900.000000
528726.000000
529550.000000
530380.000000
531208.000000
532031.000000
532849.000000
533652.000000
534450.000000
535237.000000
536154.000000
537011.000000
537875.000000
538820.000000
539613.000000
540352.000000
541377.000000
542293.000000
543178.000000
544052.000000
544915.000000
545756.000000
546597.000000
547456.000000
548320.000000
549210.000000
550083.000000
550963.000000
551825.000000
552701.000000
553565.000000
554428.000000
555267.000000
556095.000000
556904.000000
557695.000000
558467.000000
559227.000000
559965.000000
560665.000000
561378.000000
562398.000000
563254.000000
564119.000000
565078.000000
565971.000000
566840.000000
567683.000000
568521.000000
569352.000000
570193.000000
571082.000000
571932.000000
572806.000000
573663.000000
574528.000000
575379.000000
576241.000000
577086.000000
577943.000000
578797.000000
579647.000000
580478.000000
581297.000000
582112.000000
582917.000000
583715.000000
584511.000000
585298.000000
586071.000000
586955.000000
587820.000000
588753.000000
589634.000000
590492.000000
591326.000000
592161.000000
592994.000000
593839.000000
594688.000000
595542.000000
596385.000000
597225.000000
598059.000000
598885.000000
599691.000000
600475.000000
601248.000000
602025.000000
602774.000000
603747.000000
604626.000000
605457.000000
606260.000000
607047.000000
607829.000000
608612.000000
609390.000000
610172.000000
610949.000000
611740.000000
612532.000000
613447.000000
614379.000000
615266.000000
616169.000000
617027.000000
617884.000000
618738.000000
619600.000000
620439.000000
621278.000000
622116.000000
622962.000000
623796.000000
624625.000000
625438.000000
626243.000000
627038.000000
627850.000000
628644.000000
629589.000000
630502.000000
631392.000000
632261.000000
633119.000000
633997.000000
634842.000000
635675.000000
636508.000000
637339.000000
638167.000000
638993.000000
639813.000000
640623.000000
641430.000000
642231.000000
643031.000000
643832.000000
644627.000000
645422.000000
646256.000000
647177.000000
648206.000000
649174.000000
650047.000000
650900.000000
651746.000000
652591.000000
653422.000000
654257.000000
655091.000000
655942.000000
656793.000000
657658.000000
658506.000000
659367.000000
660229.000000
661104.000000
661960.000000
662832.000000
663685.000000
664544.000000
665394.000000
666244.000000
667091.000000
667943.000000
668775.000000
669604.000000
670413.000000
671216.000000
672076.000000
673058.000000
673988.000000
674829.000000
675691.000000
676525.000000
677346.000000
678149.000000
678940.000000
679727.000000
680518.000000
681313.000000
682221.000000
683108.000000
683936.000000
684748.000000
685549.000000
686359.000000
687178.000000
687968.000000
688747.000000
689498.000000
690259.000000
691004.000000
692045.000000
692964.000000
693773.000000
694659.000000
695499.000000
696337.000000
697185.000000
698033.000000
698879.000000
699723.000000
700563.000000
701398.000000
702236.000000
703053.000000
703867.000000
704673.000000
705478.000000
706279.000000
707080.000000
707882.000000
708677.000000
709462.000000
710248.000000
711052.000000
711963.000000
712905.000000
713764.000000
714643.000000
715510.000000
716385.000000
717241.000000
718095.000000
718937.000000
719774.000000
720601.000000
721424.000000
722252.000000
723077.000000
723925.000000
724929.000000
725868.000000
726774.000000
727626.000000
728465.000000
729295.000000
730135.000000
730968.000000
731818.000000
732633.000000
733443.000000
734510.000000
735411.000000
736246.000000
737059.000000
737860.000000
738701.000000
739535.000000
740425.000000
741293.000000
742159.000000
743031.000000
743881.000000
744721.000000
745543.000000
746348.000000
747127.000000
747886.000000
748619.000000
749343.000000
750036.000000
751158.000000
752074.000000
753267.000000
754178.000000
755048.000000
755915.000000
756755.000000
757586.000000
758409.000000
759190.000000
759951.000000
760683.000000
761395.000000
762442.000000
763273.000000
764042.000000
765044.000000
765847.000000
766603.000000
767348.000000
768320.000000
769156.000000
769947.000000
770721.000000
771542.000000
772595.000000
773436.000000
774271.000000
775079.000000
775991.000000
776901.000000
777735.000000
778533.000000
779319.000000
780057.000000
781250.000000
782058.000000
782851.000000
783856.000000
784703.000000
785487.000000
786253.000000
787027.000000
788027.000000
788862.000000
789651.000000
790476.000000
791479.000000
792312.000000
793102.000000
793938.000000
794936.000000
795773.000000
796577.000000
797391.000000
798289.000000
799157.000000
799977.000000
800771.000000
801644.000000
802637.000000
803477.000000
804269.000000
805081.000000
805973.000000
806844.000000
807663.000000
808492.000000
809357.000000
810309.000000
811116.000000
811858.000000
812570.000000
813494.000000
814352.000000
815141.000000
815906.000000
816671.000000
817643.000000
818465.000000
819237.000000
820008.000000
820772.000000
821781.000000
822610.000000
823390.000000
824182.000000
825220.000000
826076.000000
826872.000000
827671.000000
828452.000000
829430.000000
830279.000000
831088.000000
831983.000000
832994.000000
833850.000000
834665.000000
835531.000000
836503.000000
837376.000000
838200.000000
839054.000000
840146.000000
841026.000000
841846.000000
842706.000000
843746.000000
844609.000000
845403.000000
846217.000000
847217.000000
848057.000000
848860.000000
849647.000000
850464.000000
851467.000000
852327.000000
853150.000000
853989.000000
854925.000000
855827.000000
856684.000000
857514.000000
858343.000000
859307.000000
860223.000000
861082.000000
861915.000000
862748.000000
863683.000000
864620.000000
865469.000000
866293.000000
867101.000000
867967.000000
868996.000000
869851.000000
870652.000000
871469.000000
872378.000000
873267.000000
874115.000000
874945.000000
875785.000000
876707.000000
877634.000000
878517.000000
879377.000000
880213.000000
881101.000000
882110.000000
882997.000000
883828.000000
884643.000000
885459.000000
886353.000000
887347.000000
888205.000000
889021.000000
889850.000000
890756.000000
891633.000000
892482.000000
893299.000000
894105.000000
894990.000000
896017.000000
896872.000000
