ECG (ms)
270.000000
1191.000000
2089.000000
2987.000000
3890.000000
4801.000000
5729.000000
6704.000000
7728.000000
8753.000000
9766.000000
10740.000000
11681.000000
12580.000000
13432.000000
14268.000000
15114.000000
16005.000000
16970.000000
18022.000000
19071.000000
20099.000000
21080.000000
22026.000000
22925.000000
23755.000000
24531.000000
25282.000000
26081.000000
27054.000000
28106.000000
29157.000000
30181.000000
31177.000000
32142.000000
33055.000000
33946.000000
34829.000000
35738.000000
36660.000000
37659.000000
38694.000000
39698.000000
40727.000000
41736.000000
42684.000000
43613.000000
44518.000000
45414.000000
46357.000000
47394.000000
48456.000000
49484.000000
50533.000000
51545.000000
52498.000000
53432.000000
54369.000000
55285.000000
56206.000000
57174.000000
58178.000000
59146.000000
60138.000000
61117.000000
62055.000000
63011.000000
63963.000000
64887.000000
65802.000000
66750.000000
67694.000000
68640.000000
69588.000000
70492.000000
71352.000000
72217.000000
73100.000000
74023.000000
74962.000000
75870.000000
76781.000000
77709.000000
78612.000000
79520.000000
80457.000000
81400.000000
82327.000000
83281.000000
84252.000000
85182.000000
86097.000000
87019.000000
87944.000000
88850.000000
89795.000000
90776.000000
91721.000000
92679.000000
93639.000000
94572.000000
95491.000000
96405.000000
97311.000000
98197.000000
99120.000000
100068.000000
100979.000000
101913.000000
102856.000000
103763.000000
104671.000000
105567.000000
106414.000000
107215.000000
108004.000000
108837.000000
109790.000000
110785.000000
111809.000000
112847.000000
113818.000000
114753.000000
115680.000000
116594.000000
117512.000000
118491.000000
119485.000000
120466.000000
121486.000000
122470.000000
123439.000000
124420.000000
125366.000000
126309.000000
127273.000000
128208.000000
129138.000000
130092.000000
131057.000000
132002.000000
132978.000000
133945.000000
134873.000000
135810.000000
136751.000000
137672.000000
138638.000000
139623.000000
140572.000000
141542.000000
142502.000000
143428.000000
144375.000000
145346.000000
146274.000000
147239.000000
148225.000000
149177.000000
150135.000000
151083.000000
151991.000000
152902.000000
153812.000000
154704.000000
155613.000000
156524.000000
157419.000000
158332.000000
159252.000000
160152.000000
161061.000000
161969.000000
162862.000000
163813.000000
164826.000000
165803.000000
166808.000000
167813.000000
168772.000000
169713.000000
170653.000000
171559.000000
172479.000000
173410.000000
174290.000000
175135.000000
176000.000000
176909.000000
177882.000000
178858.000000
179784.000000
180719.000000
181657.000000
182562.000000
183472.000000
184401.000000
185332.000000
186272.000000
187256.000000
188218.000000
189171.000000
190115.000000
191000.000000
191866.000000
192728.000000
193594.000000
194499.000000
195464.000000
196426.000000
197380.000000
198334.000000
199242.000000
200133.000000
201017.000000
201893.000000
202777.000000
203679.000000
204587.000000
205501.000000
206427.000000
207341.000000
208253.000000
209177.000000
210076.000000
210969.000000
211868.000000
212760.000000
213668.000000
214601.000000
215533.000000
216477.000000
217455.000000
218397.000000
219335.000000
220292.000000
221217.000000
222138.000000
223070.000000
223997.000000
224939.000000
225918.000000
226879.000000
227847.000000
228815.000000
229743.000000
230674.000000
231600.000000
232506.000000
233433.000000
234374.000000
235302.000000
236270.000000
237248.000000
238194.000000
239135.000000
240040.000000
240919.000000
241760.000000
242562.000000
243413.000000
244313.000000
245304.000000
246310.000000
247280.000000
248258.000000
249202.000000
250105.000000
251008.000000
251925.000000
252821.000000
253739.000000
254709.000000
255708.000000
256670.000000
257614.000000
258572.000000
259525.000000
260486.000000
261420.000000
262359.000000
263363.000000
264387.000000
265378.000000
266378.000000
267339.000000
268271.000000
269184.000000
270071.000000
270983.000000
271931.000000
272884.000000
273859.000000
274850.000000
275788.000000
276719.000000
277628.000000
278502.000000
279373.000000
280251.000000
281136.000000
282065.000000
283028.000000
283951.000000
284883.000000
285808.000000
286700.000000
287580.000000
288436.000000
289259.000000
290078.000000
290915.000000
291785.000000
292689.000000
293557.000000
294387.000000
295209.000000
296024.000000
296857.000000
297714.000000
298587.000000
299465.000000
300382.000000
301332.000000
302265.000000
303218.000000
304171.000000
305102.000000
306057.000000
307017.000000
307964.000000
308940.000000
309911.000000
310874.000000
311867.000000
312835.000000
313774.000000
314697.000000
315588.000000
316483.000000
317422.000000
318391.000000
319385.000000
320380.000000
321342.000000
322305.000000
323250.000000
324143.000000
325033.000000
325938.000000
326839.000000
327780.000000
328728.000000
329663.000000
330619.000000
331558.000000
332479.000000
333403.000000
334329.000000
335230.000000
336167.000000
337137.000000
338087.000000
339046.000000
339981.000000
340882.000000
341792.000000
342698.000000
343546.000000
344399.000000
345275.000000
346206.000000
347183.000000
348117.000000
349059.000000
349974.000000
350852.000000
351719.000000
352582.000000
353454.000000
354368.000000
355303.000000
356229.000000
357179.000000
358104.000000
359011.000000
359912.000000
360794.000000
361671.000000
362564.000000
363464.000000
364403.000000
365388.000000
366344.000000
367322.000000
368296.000000
369217.000000
370120.000000
371012.000000
371893.000000
372808.000000
373795.000000
374794.000000
375824.000000
376827.000000
377789.000000
378742.000000
379672.000000
380587.000000
381508.000000
382445.000000
383411.000000
384373.000000
385301.000000
386231.000000
387114.000000
387949.000000
388778.000000
389618.000000
390504.000000
391480.000000
392441.000000
393433.000000
394432.000000
395378.000000
396284.000000
397155.000000
398007.000000
398858.000000
399743.000000
400731.000000
401781.000000
402827.000000
403859.000000
404842.000000
405787.000000
406701.000000
407599.000000
408480.000000
409382.000000
410310.000000
411290.000000
412295.000000
413288.000000
414258.000000
415179.000000
416073.000000
416962.000000
417858.000000
418790.000000
419754.000000
420737.000000
421738.000000
422694.000000
423606.000000
424484.000000
425335.000000
426153.000000
427011.000000
427923.000000
428916.000000
429934.000000
430909.000000
431855.000000
432773.000000
433640.000000
434502.000000
435382.000000
436293.000000
437234.000000
438212.000000
439156.000000
440105.000000
441034.000000
441920.000000
442794.000000
443667.000000
444537.000000
445445.000000
446400.000000
447330.000000
448272.000000
449200.000000
450090.000000
450978.000000
451875.000000
452766.000000
453688.000000
454690.000000
455664.000000
456668.000000
457666.000000
458607.000000
459520.000000
460398.000000
461252.000000
462113.000000
462997.000000
463869.000000
464725.000000
465623.000000
466551.000000
467500.000000
468441.000000
469394.000000
470343.000000
471250.000000
472151.000000
473048.000000
473921.000000
474799.000000
475670.000000
476536.000000
477438.000000
478371.000000
479278.000000
480194.000000
481091.000000
481962.000000
482833.000000
483694.000000
484538.000000
485388.000000
486241.000000
487080.000000
487936.000000
488803.000000
489672.000000
490553.000000
491470.000000
492398.000000
493318.000000
494237.000000
495150.000000
496022.000000
496879.000000
497755.000000
498628.000000
499486.000000
500344.000000
501219.000000
502112.000000
503013.000000
503951.000000
504895.000000
505799.000000
506699.000000
507583.000000
508444.000000
509307.000000
510189.000000
511044.000000
511862.000000
512672.000000
513529.000000
514429.000000
515329.000000
516236.000000
517138.000000
518015.000000
518870.000000
519730.000000
520614.000000
521503.000000
522435.000000
523417.000000
524356.000000
525302.000000
526250.000000
527157.000000
528059.000000
528964.000000
529868.000000
530809.000000
531804.000000
532772.000000
533761.000000
534725.000000
535656.000000
536563.000000
537447.000000
538316.000000
539185.000000
540051.000000
540933.000000
541899.000000
542950.000000
543968.000000
544968.000000
545964.000000
546901.000000
547808.000000
548704.000000
549591.000000
550490.000000
551429.000000
552411.000000
553377.000000
554378.000000
555347.000000
556261.000000
557158.000000
558034.000000
558894.000000
559754.000000
560616.000000
561457.000000
562282.000000
563137.000000
564023.000000
564928.000000
565833.000000
566734.000000
567667.000000
568635.000000
569603.000000
570543.000000
571461.000000
572373.000000
573289.000000
574213.000000
575140.000000
576117.000000
577125.000000
578147.000000
579129.000000
580099.000000
581050.000000
582000.000000
582968.000000
583928.000000
584913.000000
585909.000000
586906.000000
587901.000000
588895.000000
589903.000000
590907.000000
591875.000000
592840.000000
593813.000000
594762.000000
595737.000000
596763.000000
597798.000000
598867.000000
599924.000000
600924.000000
601902.000000
602885.000000
603850.000000
604822.000000
605841.000000
606844.000000
607856.000000
608878.000000
609851.000000
610807.000000
611750.000000
612693.000000
613615.000000
614555.000000
615555.000000
616585.000000
617568.000000
618565.000000
619578.000000
620596.000000
621555.000000
622490.000000
623427.000000
624394.000000
625405.000000
626376.000000
627346.000000
628339.000000
629309.000000
630264.000000
631227.000000
632171.000000
633095.000000
634020.000000
634953.000000
635868.000000
636809.000000
637784.000000
638720.000000
639670.000000
640619.000000
641544.000000
642495.000000
643463.000000
644394.000000
645318.000000
646258.000000
647221.000000
648168.000000
649138.000000
650101.000000
651040.000000
651948.000000
652805.000000
653632.000000
654456.000000
655312.000000
656259.000000
657236.000000
658232.000000
659226.000000
660173.000000
661098.000000
662013.000000
662912.000000
663849.000000
664846.000000
665833.000000
666850.000000
667853.000000
668823.000000
669782.000000
670716.000000
671650.000000
672603.000000
673571.000000
674581.000000
675627.000000
676604.000000
677576.000000
678520.000000
679442.000000
680370.000000
681302.000000
682243.000000
683210.000000
684170.000000
685122.000000
686071.000000
686971.000000
687821.000000
688647.000000
689497.000000
690368.000000
691304.000000
692245.000000
693231.000000
694209.000000
695150.000000
696090.000000
697030.000000
697955.000000
698911.000000
699894.000000
700860.000000
701859.000000
702857.000000
703828.000000
704797.000000
705738.000000
706661.000000
707604.000000
708582.000000
709581.000000
710598.000000
711596.000000
712572.000000
713550.000000
714484.000000
715426.000000
716379.000000
717277.000000
718172.000000
719067.000000
719994.000000
720940.000000
721848.000000
722752.000000
723666.000000
724598.000000
725514.000000
726439.000000
727392.000000
728346.000000
729268.000000
730189.000000
731111.000000
731999.000000
732884.000000
733787.000000
734723.000000
735659.000000
736626.000000
737631.000000
738594.000000
739540.000000
740473.000000
741397.000000
742281.000000
743166.000000
744090.000000
745052.000000
746022.000000
747025.000000
748022.000000
748979.000000
749924.000000
750841.000000
751749.000000
752681.000000
753627.000000
754563.000000
755525.000000
756497.000000
757418.000000
758318.000000
759224.000000
760128.000000
761040.000000
761992.000000
762977.000000
763923.000000
764869.000000
765808.000000
766711.000000
767599.000000
768490.000000
769376.000000
770257.000000
771162.000000
772087.000000
773010.000000
773946.000000
774858.000000
775728.000000
776593.000000
777456.000000
778307.000000
779171.000000
780054.000000
780935.000000
781825.000000
782728.000000
783597.000000
784459.000000
785317.000000
786162.000000
787008.000000
787866.000000
788747.000000
789613.000000
790482.000000
791327.000000
792118.000000
792890.000000
793682.000000
794516.000000
795422.000000
796328.000000
797241.000000
798158.000000
799065.000000
799939.000000
800788.000000
801658.000000
802597.000000
803573.000000
804564.000000
805592.000000
806607.000000
807594.000000
808559.000000
809490.000000
810405.000000
811317.000000
812215.000000
813111.000000
814010.000000
814943.000000
815882.000000
816846.000000
817812.000000
818759.000000
819707.000000
820635.000000
821545.000000
822493.000000
823479.000000
824456.000000
825472.000000
826525.000000
827534.000000
828531.000000
829542.000000
830536.000000
831493.000000
832479.000000
833483.000000
834475.000000
835466.000000
836489.000000
837488.000000
838503.000000
839523.000000
840502.000000
841488.000000
842458.000000
843407.000000
844398.000000
845410.000000
846415.000000
847467.000000
848492.000000
849501.000000
850514.000000
851479.000000
852436.000000
853394.000000
854337.000000
855312.000000
856324.000000
857314.000000
858327.000000
859330.000000
860303.000000
861289.000000
862248.000000
863200.000000
864159.000000
865094.000000
866036.000000
867013.000000
867973.000000
868884.000000
869757.000000
870641.000000
871548.000000
872504.000000
873431.000000
874290.000000
875108.000000
875936.000000
876784.000000
877672.000000
878556.000000
879455.000000
880372.000000
881274.000000
882157.000000
883058.000000
883988.000000
884905.000000
885859.000000
886847.000000
887821.000000
888756.000000
889709.000000
890672.000000
891604.000000
892543.000000
893493.000000
894411.000000
895354.000000
896334.000000
897287.000000
898248.000000
899214.000000
900137.000000
901042.000000
901933.000000
902827.000000
903719.000000
904634.000000
905586.000000
906538.000000
907509.000000
908486.000000
909411.000000
910330.000000
911247.000000
912139.000000
913039.000000
913958.000000
914878.000000
915834.000000
916810.000000
917757.000000
918720.000000
919654.000000
