ECG (ms)
596.000000
1388.000000
2154.000000
2983.000000
3827.000000
4633.000000
5479.000000
6367.000000
7194.000000
8048.000000
8920.000000
9757.000000
10630.000000
11488.000000
12318.000000
13126.000000
13878.000000
14664.000000
15459.000000
16238.000000
17067.000000
17898.000000
18688.000000
19496.000000
20343.000000
21154.000000
21968.000000
22807.000000
23668.000000
24474.000000
25324.000000
26211.000000
27098.000000
27882.000000
28703.000000
29577.000000
30432.000000
31227.000000
32050.000000
32895.000000
33720.000000
34510.000000
35327.000000
36180.000000
36973.000000
37826.000000
38688.000000
39537.000000
40384.000000
41245.000000
42090.000000
42896.000000
43737.000000
44575.000000
45370.000000
46100.000000
46900.000000
47722.000000
48562.000000
49380.000000
50100.000000
50814.000000
51582.000000
52388.000000
53280.000000
54171.000000
55012.000000
55779.000000
56469.000000
57263.000000
58057.000000
58868.000000
59604.000000
60366.000000
61106.000000
61852.000000
62692.000000
63476.000000
64261.000000
65108.000000
65996.000000
66802.000000
67645.000000
68490.000000
69326.000000
70113.000000
70936.000000
71805.000000
72666.000000
73512.000000
74391.000000
75277.000000
76085.000000
76923.000000
77797.000000
78652.000000
79455.000000
80293.000000
81141.000000
81938.000000
82781.000000
83632.000000
84405.000000
85202.000000
86011.000000
86830.000000
87627.000000
88467.000000
89303.000000
90082.000000
90899.000000
91768.000000
92560.000000
93373.000000
94210.000000
94999.000000
95791.000000
96602.000000
97362.000000
98156.000000
99007.000000
99871.000000
100694.000000
101541.000000
102398.000000
103180.000000
103987.000000
104816.000000
105625.000000
106396.000000
107205.000000
108049.000000
108835.000000
109627.000000
110455.000000
111274.000000
112038.000000
112829.000000
113642.000000
114420.000000
115224.000000
116067.000000
116876.000000
117683.000000
118505.000000
119304.000000
120065.000000
120865.000000
121713.000000
122585.000000
123391.000000
124216.000000
125073.000000
125957.000000
126803.000000
127582.000000
128344.000000
129151.000000
129985.000000
130766.000000
131526.000000
132348.000000
133240.000000
134063.000000
134881.000000
135720.000000
136525.000000
137310.000000
138138.000000
139001.000000
139860.000000
140660.000000
141487.000000
142342.000000
143150.000000
143930.000000
144732.000000
145524.000000
146284.000000
147075.000000
147909.000000
148715.000000
149553.000000
150415.000000
151234.000000
151986.000000
152764.000000
153562.000000
154308.000000
155044.000000
155821.000000
156622.000000
157383.000000
158171.000000
159003.000000
159839.000000
160608.000000
161437.000000
162295.000000
163075.000000
163911.000000
164781.000000
165620.000000
166418.000000
167268.000000
168101.000000
168886.000000
169706.000000
170567.000000
171385.000000
172245.000000
173125.000000
173941.000000
174765.000000
175635.000000
176490.000000
177292.000000
178124.000000
178979.000000
179785.000000
180572.000000
181384.000000
182195.000000
182960.000000
183764.000000
184591.000000
185377.000000
186187.000000
187003.000000
187785.000000
188594.000000
189406.000000
190188.000000
190975.000000
191792.000000
192611.000000
193369.000000
194142.000000
194880.000000
195618.000000
196415.000000
197186.000000
198004.000000
198850.000000
199653.000000
200430.000000
201230.000000
202016.000000
202745.000000
203508.000000
204288.000000
205039.000000
205803.000000
206610.000000
207468.000000
208285.000000
209095.000000
209961.000000
210835.000000
211631.000000
212453.000000
213286.000000
214070.000000
214833.000000
215661.000000
216511.000000
217292.000000
218104.000000
218932.000000
219752.000000
220533.000000
221374.000000
222255.000000
223077.000000
223916.000000
224763.000000
225621.000000
226413.000000
227235.000000
228071.000000
228844.000000
229614.000000
230456.000000
231335.000000
232173.000000
232973.000000
233793.000000
234667.000000
235535.000000
236344.000000
237112.000000
237872.000000
238687.000000
239529.000000
240352.000000
241170.000000
242055.000000
242958.000000
243793.000000
244640.000000
245530.000000
246397.000000
247205.000000
248008.000000
248844.000000
249696.000000
250523.000000
251366.000000
252217.000000
253063.000000
253866.000000
254681.000000
255514.000000
256306.000000
257116.000000
257958.000000
258822.000000
259643.000000
260494.000000
261365.000000
262193.000000
263030.000000
263857.000000
264650.000000
265477.000000
266332.000000
267191.000000
268022.000000
268898.000000
269804.000000
270627.000000
271479.000000
272347.000000
273149.000000
273979.000000
274812.000000
275626.000000
276419.000000
277268.000000
278110.000000
278902.000000
279736.000000
280597.000000
281394.000000
282236.000000
283107.000000
283948.000000
284795.000000
285639.000000
286438.000000
287231.000000
288034.000000
288848.000000
289625.000000
290453.000000
291350.000000
292174.000000
293044.000000
293944.000000
294792.000000
295668.000000
296559.000000
297385.000000
298192.000000
299022.000000
299839.000000
300606.000000
301405.000000
302233.000000
303045.000000
303807.000000
304615.000000
305447.000000
306241.000000
307018.000000
307845.000000
308704.000000
309488.000000
310281.000000
311099.000000
311871.000000
312664.000000
313492.000000
314316.000000
315094.000000
315929.000000
316814.000000
317611.000000
318411.000000
319257.000000
320105.000000
320909.000000
321734.000000
322584.000000
323385.000000
324204.000000
325059.000000
325933.000000
326734.000000
327552.000000
328370.000000
329127.000000
329875.000000
330658.000000
331465.000000
332232.000000
333037.000000
333878.000000
334641.000000
335396.000000
336203.000000
337054.000000
337812.000000
338596.000000
339402.000000
340170.000000
340961.000000
341783.000000
342559.000000
343341.000000
344155.000000
345009.000000
345800.000000
346632.000000
347470.000000
348227.000000
349027.000000
349836.000000
350576.000000
351390.000000
352216.000000
352963.000000
353726.000000
354567.000000
355377.000000
356141.000000
356904.000000
357779.000000
358574.000000
359345.000000
360202.000000
361036.000000
361796.000000
362581.000000
363425.000000
364312.000000
365147.000000
366022.000000
366914.000000
367734.000000
368574.000000
369461.000000
370353.000000
371176.000000
372024.000000
372868.000000
373657.000000
374487.000000
375363.000000
376198.000000
376995.000000
377824.000000
378675.000000
379474.000000
380299.000000
381159.000000
381993.000000
382772.000000
383587.000000
384424.000000
385214.000000
386021.000000
386856.000000
387676.000000
388448.000000
389256.000000
390069.000000
390832.000000
391638.000000
392467.000000
393243.000000
394031.000000
394849.000000
395634.000000
396421.000000
397281.000000
398188.000000
399006.000000
399851.000000
400726.000000
401522.000000
402310.000000
403138.000000
403967.000000
404725.000000
405521.000000
406351.000000
407146.000000
407959.000000
408796.000000
409571.000000
410373.000000
411212.000000
412043.000000
412820.000000
413663.000000
414549.000000
415374.000000
416193.000000
417029.000000
417869.000000
418666.000000
419504.000000
420345.000000
421193.000000
421988.000000
422816.000000
423670.000000
424487.000000
425342.000000
426214.000000
427020.000000
427862.000000
428724.000000
429541.000000
430323.000000
431150.000000
431996.000000
432789.000000
433516.000000
434296.000000
435051.000000
435789.000000
436580.000000
437440.000000
438216.000000
439011.000000
439829.000000
440704.000000
441483.000000
442262.000000
443083.000000
443944.000000
444751.000000
445472.000000
446181.000000
446951.000000
447760.000000
448527.000000
449323.000000
450141.000000
450921.000000
451666.000000
452450.000000
453205.000000
453958.000000
454818.000000
455682.000000
456458.000000
457256.000000
458088.000000
458861.000000
459661.000000
460515.000000
461334.000000
462087.000000
462884.000000
463731.000000
464544.000000
465408.000000
466318.000000
467119.000000
467935.000000
468769.000000
469551.000000
470359.000000
471193.000000
472093.000000
472919.000000
473776.000000
474647.000000
475454.000000
476291.000000
477138.000000
477948.000000
478766.000000
479616.000000
480487.000000
481300.000000
482077.000000
482921.000000
483804.000000
484686.000000
485481.000000
486261.000000
487084.000000
487946.000000
488795.000000
489593.000000
490380.000000
491220.000000
492122.000000
492996.000000
493785.000000
494583.000000
495416.000000
496217.000000
497059.000000
497899.000000
498705.000000
499541.000000
500407.000000
501227.000000
502077.000000
502962.000000
503834.000000
504652.000000
505500.000000
506380.000000
507199.000000
508049.000000
508907.000000
509730.000000
510509.000000
511309.000000
512141.000000
512949.000000
513756.000000
514600.000000
515466.000000
516291.000000
517082.000000
517925.000000
518767.000000
519534.000000
520324.000000
521126.000000
521886.000000
522633.000000
523378.000000
524131.000000
524881.000000
525680.000000
526477.000000
527240.000000
528066.000000
528896.000000
529655.000000
530399.000000
531123.000000
531910.000000
532675.000000
533444.000000
534269.000000
535211.000000
536087.000000
536988.000000
537888.000000
538786.000000
539605.000000
540422.000000
541288.000000
542176.000000
543003.000000
543806.000000
544669.000000
545577.000000
546405.000000
547210.000000
548047.000000
548949.000000
549783.000000
550597.000000
551463.000000
552355.000000
553176.000000
553992.000000
554833.000000
555685.000000
556504.000000
557282.000000
558093.000000
558958.000000
559834.000000
560657.000000
561494.000000
562377.000000
563224.000000
564040.000000
564897.000000
565794.000000
566635.000000
567500.000000
568381.000000
569235.000000
570066.000000
570929.000000
571796.000000
572592.000000
573428.000000
574270.000000
575076.000000
575931.000000
576792.000000
577587.000000
578423.000000
579301.000000
580105.000000
580912.000000
581736.000000
582546.000000
583325.000000
584149.000000
585006.000000
585811.000000
586668.000000
587564.000000
588438.000000
589276.000000
590132.000000
590995.000000
591824.000000
592655.000000
593519.000000
594378.000000
595176.000000
596021.000000
596917.000000
597725.000000
598584.000000
599472.000000
600323.000000
601197.000000
602090.000000
602934.000000
603762.000000
604594.000000
605403.000000
606160.000000
606957.000000
607814.000000
608609.000000
609424.000000
610268.000000
611052.000000
611850.000000
612688.000000
613558.000000
614358.000000
615225.000000
616090.000000
616886.000000
617710.000000
618569.000000
619384.000000
620166.000000
620989.000000
621824.000000
622601.000000
623409.000000
624226.000000
625021.000000
625776.000000
626576.000000
627390.000000
628153.000000
628953.000000
629789.000000
630580.000000
631343.000000
632136.000000
632969.000000
633743.000000
634515.000000
635356.000000
636245.000000
637045.000000
637869.000000
638727.000000
639529.000000
640312.000000
641126.000000
641955.000000
642725.000000
643536.000000
644363.000000
645178.000000
645969.000000
646791.000000
647636.000000
648432.000000
649274.000000
650118.000000
650947.000000
651753.000000
652580.000000
653436.000000
654236.000000
655089.000000
655973.000000
656820.000000
657618.000000
658437.000000
659255.000000
660033.000000
660851.000000
661695.000000
662495.000000
663333.000000
664206.000000
665061.000000
665859.000000
666685.000000
667543.000000
668360.000000
669221.000000
670136.000000
671019.000000
671861.000000
672738.000000
673611.000000
674416.000000
675266.000000
676153.000000
677006.000000
677833.000000
678700.000000
679573.000000
680382.000000
681213.000000
682095.000000
682924.000000
683730.000000
684569.000000
685433.000000
686278.000000
687082.000000
687882.000000
688736.000000
689627.000000
690480.000000
691260.000000
692100.000000
692941.000000
693809.000000
694626.000000
695483.000000
696377.000000
697213.000000
698088.000000
698980.000000
699856.000000
700675.000000
701517.000000
702387.000000
703204.000000
704051.000000
704935.000000
705813.000000
706649.000000
707540.000000
708426.000000
709249.000000
710110.000000
711018.000000
711896.000000
712776.000000
713697.000000
714588.000000
715434.000000
716318.000000
717233.000000
718085.000000
718943.000000
719861.000000
720772.000000
721600.000000
722435.000000
723282.000000
724091.000000
724900.000000
725763.000000
726668.000000
727505.000000
728366.000000
729246.000000
730127.000000
730946.000000
731835.000000
732778.000000
733669.000000
734514.000000
735413.000000
736310.000000
737146.000000
737992.000000
738844.000000
739632.000000
740446.000000
741291.000000
742093.000000
742903.000000
743762.000000
744615.000000
745403.000000
746208.000000
747076.000000
747889.000000
748670.000000
749502.000000
750357.000000
751205.000000
752076.000000
752911.000000
753676.000000
754445.000000
755274.000000
756131.000000
756898.000000
757690.000000
758519.000000
759307.000000
760101.000000
760937.000000
761732.000000
762498.000000
763333.000000
764209.000000
765042.000000
765850.000000
766688.000000
767556.000000
768385.000000
769253.000000
770171.000000
771035.000000
771906.000000
772797.000000
773658.000000
774489.000000
775358.000000
776269.000000
777140.000000
777956.000000
778839.000000
779730.000000
780613.000000
781420.000000
782231.000000
783047.000000
783865.000000
784643.000000
785442.000000
786274.000000
787103.000000
787868.000000
788658.000000
789468.000000
790227.000000
791063.000000
791987.000000
792822.000000
793612.000000
794412.000000
795195.000000
795943.000000
796637.000000
797447.000000
798322.000000
799209.000000
799991.000000
800820.000000
801678.000000
802496.000000
803366.000000
804242.000000
805091.000000
805897.000000
806718.000000
807597.000000
808437.000000
809273.000000
810138.000000
811011.000000
811825.000000
812663.000000
813538.000000
814388.000000
815288.000000
816221.000000
817115.000000
817995.000000
818885.000000
819687.000000
820484.000000
821306.000000
822159.000000
822963.000000
823820.000000
824701.000000
825518.000000
826355.000000
827233.000000
828101.000000
828889.000000
829687.000000
830529.000000
831361.000000
832176.000000
833007.000000
833872.000000
834687.000000
835522.000000
836402.000000
837241.000000
838089.000000
838979.000000
839875.000000
840701.000000
841595.000000
842494.000000
843312.000000
844132.000000
844961.000000
845835.000000
846643.000000
847495.000000
848404.000000
849220.000000
850075.000000
850949.000000
851756.000000
852569.000000
853399.000000
854204.000000
854929.000000
855757.000000
856628.000000
857426.000000
858219.000000
859056.000000
859942.000000
860759.000000
861637.000000
862530.000000
863402.000000
864264.000000
865162.000000
866067.000000
866925.000000
867852.000000
868785.000000
869655.000000
870580.000000
871494.000000
872346.000000
873183.000000
874018.000000
874826.000000
875628.000000
876487.000000
877370.000000
878177.000000
879087.000000
879980.000000
880782.000000
881634.000000
882522.000000
883353.000000
884187.000000
885049.000000
885891.000000
886725.000000
887578.000000
888437.000000
889244.000000
890074.000000
890953.000000
891799.000000
892616.000000
893461.000000
894319.000000
895117.000000
895964.000000
896859.000000
897740.000000
898615.000000
899520.000000
900407.000000
901261.000000
902169.000000
903086.000000
903924.000000
904723.000000
905543.000000
906471.000000
907420.000000
908259.000000
909092.000000
909947.000000
910822.000000
911620.000000
912425.000000
913263.000000
914139.000000
914950.000000
915835.000000
916736.000000
917573.000000
918440.000000
919308.000000
920135.000000
920995.000000
921865.000000
922709.000000
923583.000000
924435.000000
925245.000000
926080.000000
926948.000000
927760.000000
928620.000000
929508.000000
930316.000000
931163.000000
932023.000000
932841.000000
933653.000000
934500.000000
935350.000000
936156.000000
937013.000000
937889.000000
938699.000000
939547.000000
940422.000000
941234.000000
942056.000000
942927.000000
943789.000000
944601.000000
945456.000000
946297.000000
947090.000000
947941.000000
948808.000000
949621.000000
950470.000000
951353.000000
952179.000000
953027.000000
953874.000000
954681.000000
955533.000000
956404.000000
957208.000000
958025.000000
958859.000000
959657.000000
960461.000000
961307.000000
962169.000000
962961.000000
963784.000000
964651.000000
965478.000000
966326.000000
967203.000000
968075.000000
968910.000000
969760.000000
970631.000000
971429.000000
972276.000000
973141.000000
973962.000000
974822.000000
975684.000000
976499.000000
977355.000000
978233.000000
979073.000000
979912.000000
980772.000000
981644.000000
982446.000000
983280.000000
984128.000000
984966.000000
985750.000000
986587.000000
987448.000000
988243.000000
989073.000000
989935.000000
990744.000000
991564.000000
992421.000000
993225.000000
994080.000000
994992.000000
995878.000000
996687.000000
997550.000000
998431.000000
999250.000000
1000096.000000
1000962.000000
1001804.000000
1002642.000000
1003520.000000
1004381.000000
1005189.000000
1006049.000000
1006940.000000
1007780.000000
1008633.000000
1009534.000000
1010412.000000
1011247.000000
1012127.000000
1013023.000000
1013841.000000
1014712.000000
1015628.000000
1016474.000000
1017331.000000
1018228.000000
1019054.000000
1019852.000000
1020717.000000
1021579.000000
1022286.000000
1023062.000000
1023813.000000
1024573.000000
1025405.000000
1026201.000000
1027017.000000
1027927.000000
1028843.000000
1029681.000000
1030522.000000
1031389.000000
1032265.000000
1033062.000000
1033896.000000
1034769.000000
1035633.000000
1036423.000000
1037241.000000
1038087.000000
1038906.000000
1039717.000000
1040562.000000
1041408.000000
1042215.000000
1043049.000000
1043908.000000
1044753.000000
1045556.000000
1046409.000000
1047321.000000
1048207.000000
1049087.000000
1049988.000000
1050868.000000
1051711.000000
1052567.000000
1053436.000000
1054256.000000
1055113.000000
1056008.000000
1056827.000000
1057654.000000
1058536.000000
1059425.000000
1060213.000000
1061059.000000
1061952.000000
1062849.000000
1063682.000000
1064568.000000
1065507.000000
1066458.000000
1067330.000000
1068263.000000
1069187.000000
1070015.000000
1070850.000000
1071719.000000
1072550.000000
1073318.000000
1074139.000000
1075035.000000
1075897.000000
1076758.000000
1077632.000000
1078475.000000
1079287.000000
1080134.000000
1081000.000000
1081827.000000
1082665.000000
1083586.000000
1084467.000000
1085321.000000
1086206.000000
1087101.000000
1087924.000000
1088781.000000
1089680.000000
1090487.000000
1091347.000000
1092242.000000
1093081.000000
1093930.000000
1094817.000000
1095690.000000
1096504.000000
1097360.000000
1098284.000000
1099144.000000
1100053.000000
1100975.000000
1101852.000000
1102680.000000
1103559.000000
1104463.000000
1105302.000000
1106115.000000
1106968.000000
1107809.000000
1108617.000000
1109460.000000
1110357.000000
1111194.000000
1112077.000000
1112990.000000
1113829.000000
1114698.000000
1115577.000000
1116414.000000
1117217.000000
1118059.000000
1118902.000000
1119690.000000
1120545.000000
1121439.000000
1122329.000000
1123223.000000
1124176.000000
1125090.000000
1125938.000000
1126830.000000
1127736.000000
1128600.000000
1129429.000000
1130282.000000
1131147.000000
1131960.000000
1132830.000000
1133751.000000
1134626.000000
1135539.000000
1136470.000000
1137357.000000
1138242.000000
1139192.000000
1140095.000000
1140955.000000
1141871.000000
1142819.000000
1143774.000000
1144638.000000
1145528.000000
1146464.000000
1147412.000000
1148302.000000
1149149.000000
1150058.000000
1151015.000000
1151912.000000
1152747.000000
1153599.000000
1154534.000000
1155482.000000
1156335.000000
1157141.000000
1157984.000000
1158901.000000
1159829.000000
1160692.000000
1161627.000000
1162589.000000
1163544.000000
1164424.000000
1165345.000000
1166338.000000
1167332.000000
1168264.000000
1169212.000000
1170132.000000
1171049.000000
1171987.000000
1172916.000000
1173791.000000
1174705.000000
1175632.000000
1176515.000000
1177466.000000
1178407.000000
1179266.000000
1180158.000000
1181098.000000
1181936.000000
1182792.000000
1183730.000000
1184640.000000
1185495.000000
1186414.000000
1187354.000000
1188256.000000
1189185.000000
1190108.000000
1190987.000000
1191907.000000
1192834.000000
1193705.000000
1194594.000000
1195534.000000
1196416.000000
1197346.000000
1198317.000000
1199216.000000
1200149.000000
1201110.000000
1201976.000000
1202857.000000
1203791.000000
1204717.000000
1205554.000000
1206449.000000
1207419.000000
1208346.000000
1209217.000000
1210136.000000
1211139.000000
1212049.000000
1212975.000000
1213871.000000
1214699.000000
1215536.000000
1216423.000000
1217322.000000
1218146.000000
1219013.000000
1219908.000000
1220748.000000
1221639.000000
1222531.000000
1223376.000000
1224249.000000
1225135.000000
1225975.000000
1226858.000000
1227761.000000
1228620.000000
1229534.000000
1230486.000000
1231367.000000
1232236.000000
1233148.000000
1234072.000000
1234906.000000
1235775.000000
1236702.000000
1237582.000000
1238478.000000
1239399.000000
1240344.000000
1241221.000000
1242116.000000
1243031.000000
1243867.000000
1244735.000000
1245702.000000
1246640.000000
1247522.000000
1248464.000000
1249423.000000
1250285.000000
1251181.000000
1252112.000000
1252970.000000
1253885.000000
1254818.000000
1255688.000000
1256612.000000
1257554.000000
1258417.000000
1259343.000000
1260330.000000
1261304.000000
1262271.000000
1263249.000000
1264148.000000
1264989.000000
1265864.000000
1266789.000000
1267644.000000
1268533.000000
1269529.000000
1270574.000000
1271506.000000
1272410.000000
1273295.000000
1274137.000000
1275048.000000
1276013.000000
1276915.000000
1277863.000000
1278805.000000
1279671.000000
1280610.000000
1281565.000000
1282455.000000
1283360.000000
1284310.000000
1285218.000000
1286118.000000
1287037.000000
1287956.000000
1288813.000000
1289708.000000
1290660.000000
1291547.000000
1292407.000000
1293352.000000
1294296.000000
1295152.000000
1296063.000000
1297036.000000
1297925.000000
1298789.000000
1299707.000000
1300583.000000
1301408.000000
1302299.000000
1303217.000000
1304067.000000
1304968.000000
1305854.000000
1306667.000000
1307508.000000
1308394.000000
1309241.000000
1310095.000000
1310997.000000
1311810.000000
1312685.000000
1313582.000000
1314389.000000
1315256.000000
1316168.000000
1317046.000000
1317901.000000
1318794.000000
1319675.000000
1320488.000000
1321349.000000
1322243.000000
1323096.000000
1323976.000000
1324848.000000
1325675.000000
1326550.000000
1327441.000000
1328279.000000
1329141.000000
1330026.000000
1330873.000000
1331688.000000
1332539.000000
1333390.000000
1334188.000000
1334969.000000
1335822.000000
1336715.000000
1337536.000000
1338400.000000
1339274.000000
1340092.000000
1340872.000000
1341729.000000
1342643.000000
1343559.000000
1344390.000000
1345201.000000
1346079.000000
1346978.000000
1347798.000000
1348611.000000
1349450.000000
1350281.000000
1351056.000000
1351889.000000
1352739.000000
1353558.000000
1354440.000000
1355332.000000
1356133.000000
1356978.000000
1357859.000000
1358677.000000
1359480.000000
1360322.000000
1361164.000000
1361976.000000
1362861.000000
1363753.000000
1364565.000000
1365437.000000
1366330.000000
1367162.000000
1368058.000000
1368967.000000
1369829.000000
1370760.000000
1371692.000000
1372579.000000
1373535.000000
1374452.000000
1375378.000000
1376326.000000
1377272.000000
1378173.000000
1379107.000000
1380042.000000
1380892.000000
1381767.000000
1382701.000000
1383564.000000
1384491.000000
1385440.000000
1386288.000000
1387175.000000
1388098.000000
1388937.000000
1389793.000000
1390708.000000
1391598.000000
1392408.000000
1393273.000000
1394204.000000
1395083.000000
1395936.000000
1396824.000000
1397734.000000
1398551.000000
1399419.000000
1400325.000000
1401169.000000
1402053.000000
1402926.000000
1403752.000000
1404595.000000
1405455.000000
1406259.000000
1407104.000000
1407965.000000
1408752.000000
1409598.000000
1410448.000000
1411245.000000
1412005.000000
1412823.000000
1413672.000000
1414457.000000
1415294.000000
1416193.000000
1416982.000000
1417843.000000
1418754.000000
1419609.000000
1420488.000000
1421414.000000
1422258.000000
1423132.000000
1424019.000000
1424859.000000
1425725.000000
1426570.000000
1427363.000000
1428220.000000
1429084.000000
1429891.000000
1430755.000000
1431629.000000
1432437.000000
1433328.000000
1434223.000000
1435031.000000
1435878.000000
1436747.000000
1437568.000000
1438419.000000
1439266.000000
1440081.000000
1440939.000000
1441757.000000
1442591.000000
1443464.000000
1444276.000000
1445111.000000
1445973.000000
1446781.000000
1447591.000000
1448427.000000
1449221.000000
1450063.000000
1450916.000000
1451727.000000
1452560.000000
1453440.000000
1454240.000000
1455102.000000
1456002.000000
1456831.000000
1457658.000000
1458602.000000
1459540.000000
1460378.000000
1461267.000000
1462193.000000
1463050.000000
1463963.000000
1464837.000000
1465671.000000
1466573.000000
1467503.000000
1468365.000000
1469266.000000
1470218.000000
1471158.000000
1472012.000000
1472906.000000
1473837.000000
1474687.000000
1475523.000000
1476422.000000
1477298.000000
1478109.000000
1478910.000000
1479770.000000
1480678.000000
1481592.000000
1482408.000000
1483200.000000
1484043.000000
1484968.000000
1485882.000000
1486711.000000
1487496.000000
1488312.000000
1489209.000000
1490111.000000
1490918.000000
1491751.000000
1492629.000000
1493490.000000
1494332.000000
1495239.000000
1496159.000000
1496994.000000
1497840.000000
1498705.000000
1499528.000000
1500338.000000
1501201.000000
1502063.000000
1502869.000000
1503754.000000
1504671.000000
1505510.000000
1506404.000000
1507304.000000
1508154.000000
1509043.000000
1509964.000000
1510839.000000
1511722.000000
1512613.000000
1513516.000000
1514366.000000
1515268.000000
1516213.000000
1517090.000000
1518017.000000
1518963.000000
1519845.000000
1520705.000000
1521600.000000
1522499.000000
1523334.000000
1524204.000000
1525125.000000
1526040.000000
1526888.000000
1527781.000000
1528705.000000
1529630.000000
1530454.000000
1531259.000000
1532113.000000
1533075.000000
1534127.000000
1535052.000000
1535965.000000
1536891.000000
1537783.000000
1538644.000000
1539556.000000
1540516.000000
1541391.000000
1542288.000000
1543241.000000
1544181.000000
1545034.000000
1545880.000000
1546787.000000
1547730.000000
1548557.000000
1549383.000000
1550262.000000
1551190.000000
1552028.000000
1552891.000000
1553824.000000
1554745.000000
1555563.000000
1556437.000000
1557352.000000
1558210.000000
1559073.000000
1559955.000000
1560776.000000
1561612.000000
1562481.000000
1563320.000000
1564154.000000
1565012.000000
1565825.000000
1566619.000000
1567489.000000
1568360.000000
1569199.000000
1570100.000000
1571046.000000
1571911.000000
1572792.000000
1573665.000000
1574470.000000
1575332.000000
1576208.000000
1577038.000000
1577938.000000
1578763.000000
1579566.000000
1580343.000000
1581070.000000
1581919.000000
1582789.000000
1583596.000000
1584431.000000
1585316.000000
1586144.000000
1587007.000000
1587854.000000
1588672.000000
1589514.000000
1590334.000000
1591115.000000
1591955.000000
1592821.000000
1593648.000000
1594491.000000
1595255.000000
1596045.000000
1596890.000000
1597705.000000
1598515.000000
1599370.000000
1600216.000000
1601023.000000
1601766.000000
1602604.000000
1603475.000000
1604305.000000
1605101.000000
1605938.000000
1606816.000000
1607654.000000
1608512.000000
1609428.000000
1610267.000000
1611088.000000
1611899.000000
1612686.000000
1613492.000000
1614339.000000
1615179.000000
1615997.000000
1616879.000000
1617752.000000
1618539.000000
1619343.000000
1620192.000000
1621016.000000
1621836.000000
1622699.000000
1623538.000000
1624342.000000
1625211.000000
1626093.000000
1626905.000000
1627749.000000
1628613.000000
1629431.000000
1630275.000000
1631133.000000
1631940.000000
1632771.000000
1633589.000000
1634346.000000
1635105.000000
1635891.000000
1636661.000000
1637426.000000
1638229.000000
1638977.000000
1639741.000000
1640566.000000
1641383.000000
1642104.000000
1642884.000000
1643687.000000
1644458.000000
1645275.000000
1646119.000000
1646911.000000
1647759.000000
1648617.000000
1649392.000000
1650148.000000
1650941.000000
1651792.000000
1652632.000000
1653516.000000
1654361.000000
1655180.000000
1656032.000000
1656891.000000
1657689.000000
1658517.000000
1659356.000000
1660150.000000
1660987.000000
1661821.000000
1662606.000000
1663428.000000
1664323.000000
1665239.000000
1666110.000000
1667003.000000
1667856.000000
1668658.000000
1669493.000000
1670331.000000
1671136.000000
1671984.000000
1672864.000000
1673724.000000
1674561.000000
1675423.000000
1676268.000000
1677068.000000
1677918.000000
1678805.000000
1679654.000000
1680528.000000
1681419.000000
1682224.000000
1683025.000000
1683826.000000
1684579.000000
1685353.000000
1686183.000000
1687030.000000
1687856.000000
1688716.000000
1689556.000000
1690373.000000
1691204.000000
1691989.000000
1692759.000000
1693552.000000
1694398.000000
1695182.000000
1696032.000000
1696926.000000
1697740.000000
1698579.000000
1699486.000000
1700347.000000
1701226.000000
1702111.000000
1702927.000000
1703765.000000
1704610.000000
1705399.000000
1706228.000000
1707094.000000
1707920.000000
1708739.000000
1709567.000000
1710380.000000
1711197.000000
1712033.000000
1712862.000000
1713690.000000
1714572.000000
1715472.000000
1716294.000000
1717162.000000
1718019.000000
1718817.000000
1719655.000000
1720505.000000
1721296.000000
1722118.000000
1722980.000000
1723785.000000
1724654.000000
1725548.000000
1726390.000000
1727243.000000
1728104.000000
1728925.000000
1729722.000000
1730558.000000
1731413.000000
1732208.000000
1733064.000000
1733936.000000
1734758.000000
1735615.000000
1736490.000000
1737303.000000
1738152.000000
1739035.000000
1739855.000000
1740717.000000
1741657.000000
1742555.000000
1743408.000000
1744291.000000
1745177.000000
1745983.000000
1746800.000000
1747655.000000
1748501.000000
1749312.000000
1750170.000000
1751032.000000
1751841.000000
1752711.000000
1753584.000000
1754389.000000
1755210.000000
1756026.000000
1756796.000000
1757579.000000
1758399.000000
1759190.000000
1760044.000000
1760915.000000
1761677.000000
1762493.000000
1763348.000000
1764177.000000
1765073.000000
1765971.000000
1766788.000000
1767637.000000
1768466.000000
1769262.000000
1770113.000000
1771006.000000
1771821.000000
1772686.000000
1773568.000000
1774380.000000
1775233.000000
1776105.000000
1776923.000000
1777760.000000
1778620.000000
1779432.000000
1780266.000000
1781144.000000
1781996.000000
1782841.000000
1783689.000000
1784479.000000
1785226.000000
1785997.000000
1786847.000000
1787687.000000
1788574.000000
1789499.000000
1790345.000000
1791204.000000
1792086.000000
1792919.000000
1793739.000000
1794605.000000
1795480.000000
1796291.000000
1797140.000000
1798013.000000
1798831.000000
1799664.000000
1800520.000000
1801340.000000
1802203.000000
