ECG (ms)
467.000000
1782.000000
3054.000000
4278.000000
5599.000000
6762.000000
7956.000000
9255.000000
10505.000000
11755.000000
13077.000000
14331.000000
15453.000000
16799.000000
18037.000000
19009.000000
20325.000000
21711.000000
22778.000000
23899.000000
25234.000000
26241.000000
27246.000000
28228.000000
29104.000000
29957.000000
31354.000000
32770.000000
34017.000000
35102.000000
36319.000000
37522.000000
38594.000000
40050.000000
41412.000000
42593.000000
43999.000000
45321.000000
46376.000000
47503.000000
48857.000000
50096.000000
51464.000000
52684.000000
53842.000000
55294.000000
56516.000000
57845.000000
59181.000000
60342.000000
61677.000000
62924.000000
64081.000000
65525.000000
66819.000000
67943.000000
69129.000000
70479.000000
71607.000000
72554.000000
73597.000000
75063.000000
76251.000000
77592.000000
78843.000000
79971.000000
81114.000000
82204.000000
83235.000000
84316.000000
85671.000000
86772.000000
88146.000000
89369.000000
90397.000000
91753.000000
93057.000000
94265.000000
95608.000000
96867.000000
97894.000000
99121.000000
100642.000000
101922.000000
103128.000000
104337.000000
105455.000000
106474.000000
107713.000000
109036.000000
110187.000000
111468.000000
112751.000000
113867.000000
115122.000000
116331.000000
117366.000000
118788.000000
120075.000000
121191.000000
122572.000000
123860.000000
124953.000000
126211.000000
127418.000000
128480.000000
129895.000000
131146.000000
132183.000000
133540.000000
134920.000000
135982.000000
137273.000000
138667.000000
139775.000000
141023.000000
142415.000000
143640.000000
144703.000000
146064.000000
147411.000000
148624.000000
149991.000000
151224.000000
152267.000000
153632.000000
155092.000000
156321.000000
157643.000000
158953.000000
160086.000000
161353.000000
162620.000000
163691.000000
164963.000000
166196.000000
167310.000000
168616.000000
169917.000000
171007.000000
172203.000000
173483.000000
174588.000000
175799.000000
177130.000000
178293.000000
179256.000000
180149.000000
181416.000000
182432.000000
183755.000000
185055.000000
186084.000000
187223.000000
188369.000000
189355.000000
190402.000000
191823.000000
192946.000000
194150.000000
195454.000000
196589.000000
197727.000000
199159.000000
200442.000000
201576.000000
202926.000000
204109.000000
205123.000000
206007.000000
207592.000000
208812.000000
209973.000000
211320.000000
212621.000000
213760.000000
214914.000000
216299.000000
217513.000000
218763.000000
219999.000000
221109.000000
222482.000000
223732.000000
224882.000000
226122.000000
227449.000000
228571.000000
229840.000000
230993.000000
232021.000000
233150.000000
234418.000000
235512.000000
236595.000000
237961.000000
239250.000000
240335.000000
241610.000000
242973.000000
244051.000000
245347.000000
246684.000000
247814.000000
249227.000000
250508.000000
251541.000000
252982.000000
254371.000000
255530.000000
256982.000000
258447.000000
259774.000000
261046.000000
262144.000000
263463.000000
264809.000000
266010.000000
267399.000000
268693.000000
269833.000000
271214.000000
272486.000000
273653.000000
274924.000000
276247.000000
277389.000000
278617.000000
279777.000000
280852.000000
282008.000000
283314.000000
284529.000000
285694.000000
286990.000000
288154.000000
289130.000000
290164.000000
291633.000000
292659.000000
293651.000000
295141.000000
296190.000000
297427.000000
298412.000000
299277.000000
300112.000000
301044.000000
302541.000000
303824.000000
305031.000000
306372.000000
307596.000000
308623.000000
309710.000000
310948.000000
312083.000000
313163.000000
314596.000000
315851.000000
316907.000000
318360.000000
319774.000000
320828.000000
321965.000000
323426.000000
324577.000000
325524.000000
326766.000000
328242.000000
329448.000000
330846.000000
332202.000000
333243.000000
334373.000000
335760.000000
336859.000000
338237.000000
339505.000000
340524.000000
341832.000000
343097.000000
344221.000000
345670.000000
346834.000000
347985.000000
349436.000000
350636.000000
351706.000000
353161.000000
354539.000000
355648.000000
356828.000000
357992.000000
359102.000000
360130.000000
361091.000000
361942.000000
362773.000000
364173.000000
365489.000000
366732.000000
367788.000000
368829.000000
369751.000000
370639.000000
371453.000000
372243.000000
373078.000000
374547.000000
375861.000000
376955.000000
378146.000000
379214.000000
380274.000000
381604.000000
382672.000000
383599.000000
384525.000000
385593.000000
386462.000000
387332.000000
388822.000000
390219.000000
391360.000000
392619.000000
393834.000000
394992.000000
396110.000000
397355.000000
398538.000000
399635.000000
400872.000000
402160.000000
403229.000000
404557.000000
405951.000000
407062.000000
408133.000000
409561.000000
410988.000000
412098.000000
413409.000000
414740.000000
415767.000000
416973.000000
418343.000000
419532.000000
421017.000000
422367.000000
423511.000000
424783.000000
426112.000000
427194.000000
428422.000000
429692.000000
430796.000000
432136.000000
433482.000000
434598.000000
435927.000000
437203.000000
438290.000000
439189.000000
440066.000000
441551.000000
442760.000000
443783.000000
444775.000000
445677.000000
446518.000000
447952.000000
449022.000000
450086.000000
451356.000000
452608.000000
453647.000000
454686.000000
455911.000000
457185.000000
458175.000000
459233.000000
460703.000000
462025.000000
463111.000000
464492.000000
465903.000000
467020.000000
468435.000000
469904.000000
471155.000000
472309.000000
473747.000000
475046.000000
476172.000000
477506.000000
478833.000000
480067.000000
481428.000000
482682.000000
483765.000000
484891.000000
486217.000000
487282.000000
488523.000000
489919.000000
491191.000000
492338.000000
493728.000000
495052.000000
496141.000000
497306.000000
498647.000000
499939.000000
501090.000000
502411.000000
503698.000000
504842.000000
506065.000000
507399.000000
508498.000000
509706.000000
511059.000000
512212.000000
513397.000000
514713.000000
515965.000000
517151.000000
518434.000000
519661.000000
520731.000000
521828.000000
523094.000000
524202.000000
525213.000000
526578.000000
527924.000000
529028.000000
530383.000000
531582.000000
532593.000000
533711.000000
535182.000000
536467.000000
537693.000000
539037.000000
540317.000000
541397.000000
542552.000000
543840.000000
544954.000000
546093.000000
547372.000000
548490.000000
549795.000000
550925.000000
551896.000000
552858.000000
553891.000000
554828.000000
555682.000000
556530.000000
557382.000000
558478.000000
559620.000000
560607.000000
561469.000000
562375.000000
563559.000000
564499.000000
565429.000000
566428.000000
567533.000000
568638.000000
569646.000000
570904.000000
572085.000000
573244.000000
574520.000000
575713.000000
576779.000000
578070.000000
579293.000000
580399.000000
581657.000000
582927.000000
584004.000000
585326.000000
586633.000000
587699.000000
589007.000000
590346.000000
591468.000000
592804.000000
594132.000000
595265.000000
596616.000000
597923.000000
599047.000000
600352.000000
601681.000000
602751.000000
604122.000000
605458.000000
606424.000000
607360.000000
608833.000000
609843.000000
610924.000000
612343.000000
613267.000000
614135.000000
615607.000000
616996.000000
618191.000000
619328.000000
620589.000000
621668.000000
622709.000000
623905.000000
625062.000000
626158.000000
627419.000000
628662.000000
629769.000000
630941.000000
632148.000000
633114.000000
634017.000000
634901.000000
636095.000000
637569.000000
638817.000000
639965.000000
641178.000000
642353.000000
643410.000000
644461.000000
645710.000000
646768.000000
647831.000000
649315.000000
650649.000000
651711.000000
652889.000000
654292.000000
655487.000000
656563.000000
658067.000000
659448.000000
660589.000000
661812.000000
663123.000000
664183.000000
665468.000000
666845.000000
668121.000000
669212.000000
670373.000000
671778.000000
672977.000000
674316.000000
675610.000000
676724.000000
677957.000000
679273.000000
680322.000000
681532.000000
682869.000000
683993.000000
685346.000000
686605.000000
687692.000000
688964.000000
690260.000000
691388.000000
692669.000000
694000.000000
695271.000000
696559.000000
697780.000000
698847.000000
700044.000000
701449.000000
702630.000000
703951.000000
705185.000000
706217.000000
707547.000000
708813.000000
710113.000000
711172.000000
712301.000000
713644.000000
714801.000000
716011.000000
717381.000000
718520.000000
719675.000000
721102.000000
722333.000000
723446.000000
724702.000000
726019.000000
727056.000000
728145.000000
729576.000000
730735.000000
732095.000000
733418.000000
734567.000000
735823.000000
737082.000000
738011.000000
738889.000000
740420.000000
741608.000000
742695.000000
743919.000000
745059.000000
745988.000000
746878.000000
747753.000000
748565.000000
749402.000000
750868.000000
752194.000000
753332.000000
754433.000000
755620.000000
756754.000000
757801.000000
758899.000000
760308.000000
761552.000000
762589.000000
763970.000000
765465.000000
766809.000000
768028.000000
769508.000000
770859.000000
771969.000000
773340.000000
774697.000000
775771.000000
776949.000000
778517.000000
779768.000000
780903.000000
782295.000000
783545.000000
784677.000000
786005.000000
786923.000000
787781.000000
789237.000000
790189.000000
791086.000000
792567.000000
793776.000000
794760.000000
795747.000000
796631.000000
797515.000000
798883.000000
799857.000000
800856.000000
802025.000000
802924.000000
803758.000000
804575.000000
805393.000000
806219.000000
807012.000000
807788.000000
808564.000000
809379.000000
810299.000000
811288.000000
812318.000000
813394.000000
814312.000000
815187.000000
816072.000000
816951.000000
817813.000000
818645.000000
819446.000000
820230.000000
821005.000000
821784.000000
822636.000000
823996.000000
825148.000000
826101.000000
827250.000000
828490.000000
829480.000000
830542.000000
831832.000000
833043.000000
834109.000000
835271.000000
836556.000000
837629.000000
838709.000000
840082.000000
841340.000000
842545.000000
843891.000000
845190.000000
846422.000000
847752.000000
849055.000000
850223.000000
851637.000000
852865.000000
854166.000000
855577.000000
856875.000000
857924.000000
859292.000000
860691.000000
861888.000000
863171.000000
864581.000000
865746.000000
867044.000000
868363.000000
869544.000000
870948.000000
872208.000000
873507.000000
874853.000000
876066.000000
877043.000000
877974.000000
878902.000000
879864.000000
880752.000000
882431.000000
883903.000000
885097.000000
886340.000000
887524.000000
888574.000000
889891.000000
891104.000000
892300.000000
893351.000000
894641.000000
895977.000000
897036.000000
898371.000000
899791.000000
900965.000000
902092.000000
903427.000000
904540.000000
905695.000000
