ECG (ms)
652.000000
1445.000000
2242.000000
3005.000000
3769.000000
4537.000000
5287.000000
6039.000000
6807.000000
7581.000000
8374.000000
9158.000000
9954.000000
10770.000000
11576.000000
12371.000000
13156.000000
13930.000000
14678.000000
15405.000000
16124.000000
16828.000000
17516.000000
18180.000000
18846.000000
19524.000000
20230.000000
20946.000000
21671.000000
22405.000000
23144.000000
23874.000000
24580.000000
25273.000000
25967.000000
26697.000000
27439.000000
28200.000000
28954.000000
29697.000000
30448.000000
31198.000000
31947.000000
32673.000000
33378.000000
34079.000000
34783.000000
35497.000000
36207.000000
36907.000000
37609.000000
38327.000000
39053.000000
39769.000000
40488.000000
41221.000000
41961.000000
42704.000000
43431.000000
44168.000000
44895.000000
45612.000000
46350.000000
47109.000000
47883.000000
48647.000000
49403.000000
50163.000000
50927.000000
51680.000000
52421.000000
53183.000000
53953.000000
54718.000000
55457.000000
56195.000000
56941.000000
57689.000000
58425.000000
59158.000000
59914.000000
60669.000000
61437.000000
62191.000000
62931.000000
63692.000000
64456.000000
65212.000000
65947.000000
66687.000000
67432.000000
68179.000000
68917.000000
69674.000000
70445.000000
71229.000000
72014.000000
72790.000000
73549.000000
74280.000000
75021.000000
75770.000000
76518.000000
77251.000000
78019.000000
78803.000000
79594.000000
80404.000000
81195.000000
81969.000000
82716.000000
83455.000000
84173.000000
84883.000000
85601.000000
86327.000000
87062.000000
87806.000000
88541.000000
89290.000000
90045.000000
90807.000000
91544.000000
92280.000000
93015.000000
93746.000000
94473.000000
95201.000000
95937.000000
96666.000000
97394.000000
98142.000000
98901.000000
99654.000000
100384.000000
101120.000000
101880.000000
102653.000000
103431.000000
104211.000000
104977.000000
105740.000000
106504.000000
107268.000000
108003.000000
108740.000000
109487.000000
110242.000000
111010.000000
111772.000000
112542.000000
113324.000000
114104.000000
114868.000000
115620.000000
116386.000000
117159.000000
117935.000000
118706.000000
119486.000000
120281.000000
121069.000000
121833.000000
122596.000000
123373.000000
124162.000000
124946.000000
125743.000000
126534.000000
127308.000000
128080.000000
128858.000000
129633.000000
130380.000000
131118.000000
131858.000000
132602.000000
133328.000000
134071.000000
134826.000000
135596.000000
136370.000000
137139.000000
137899.000000
138660.000000
139426.000000
140190.000000
140969.000000
141760.000000
142559.000000
143350.000000
144134.000000
144912.000000
145686.000000
146443.000000
147184.000000
147942.000000
148722.000000
149525.000000
150325.000000
151118.000000
151920.000000
152720.000000
153499.000000
154240.000000
154969.000000
155693.000000
156423.000000
157163.000000
157895.000000
158625.000000
159373.000000
160136.000000
160914.000000
161691.000000
162451.000000
163212.000000
163973.000000
164729.000000
165475.000000
166250.000000
167041.000000
167869.000000
168687.000000
169497.000000
170307.000000
171109.000000
171890.000000
172635.000000
173388.000000
174145.000000
174877.000000
175606.000000
176342.000000
177097.000000
177850.000000
178564.000000
179252.000000
179937.000000
180621.000000
181314.000000
182031.000000
182755.000000
183496.000000
184216.000000
184927.000000
185638.000000
186361.000000
187087.000000
187803.000000
188512.000000
189226.000000
189951.000000
190689.000000
191425.000000
192143.000000
192862.000000
193601.000000
194348.000000
195103.000000
195855.000000
196610.000000
197371.000000
198138.000000
198891.000000
199649.000000
200413.000000
201179.000000
201952.000000
202712.000000
203446.000000
204191.000000
204940.000000
205698.000000
206464.000000
207227.000000
207985.000000
208754.000000
209536.000000
210324.000000
211100.000000
211853.000000
212622.000000
213391.000000
214160.000000
214912.000000
215685.000000
216471.000000
217252.000000
218006.000000
218758.000000
219522.000000
220291.000000
221052.000000
221802.000000
222572.000000
223342.000000
224117.000000
224869.000000
225619.000000
226387.000000
227158.000000
227943.000000
228718.000000
229476.000000
230252.000000
231029.000000
231810.000000
232584.000000
233342.000000
234109.000000
234880.000000
235657.000000
236424.000000
237169.000000
237919.000000
238680.000000
239457.000000
240242.000000
241020.000000
241804.000000
242599.000000
243382.000000
244136.000000
244876.000000
245628.000000
246385.000000
247133.000000
247896.000000
248683.000000
249477.000000
250263.000000
251037.000000
251787.000000
252547.000000
253312.000000
254083.000000
254858.000000
255648.000000
256451.000000
257272.000000
258067.000000
258846.000000
259610.000000
260367.000000
261106.000000
261834.000000
262573.000000
263329.000000
264107.000000
264896.000000
265686.000000
266490.000000
267309.000000
268119.000000
268910.000000
269691.000000
270473.000000
271258.000000
272019.000000
272751.000000
273480.000000
274217.000000
274957.000000
275707.000000
276458.000000
277228.000000
278019.000000
278806.000000
279578.000000
280326.000000
281091.000000
281844.000000
282606.000000
283363.000000
284110.000000
284868.000000
285632.000000
286407.000000
287180.000000
287943.000000
288710.000000
289479.000000
290244.000000
291008.000000
291772.000000
292544.000000
293326.000000
294088.000000
294839.000000
295593.000000
296343.000000
297098.000000
297845.000000
298581.000000
299335.000000
300100.000000
300870.000000
301641.000000
302375.000000
303128.000000
303871.000000
304613.000000
305356.000000
306096.000000
306848.000000
307618.000000
308408.000000
309204.000000
309987.000000
310738.000000
311504.000000
312258.000000
313008.000000
313738.000000
314467.000000
315215.000000
315959.000000
316698.000000
317438.000000
318192.000000
318955.000000
319712.000000
320452.000000
321203.000000
321956.000000
322690.000000
323422.000000
324155.000000
324906.000000
325665.000000
326415.000000
327143.000000
327863.000000
328585.000000
329296.000000
329983.000000
330648.000000
331327.000000
332046.000000
332813.000000
333609.000000
334419.000000
335202.000000
335926.000000
336632.000000
337325.000000
338021.000000
338716.000000
339428.000000
340145.000000
340852.000000
341568.000000
342294.000000
343036.000000
343808.000000
344589.000000
345380.000000
346166.000000
346942.000000
347716.000000
348498.000000
349281.000000
350062.000000
350830.000000
351577.000000
352295.000000
353020.000000
353755.000000
354499.000000
355249.000000
356005.000000
356761.000000
357504.000000
358254.000000
359018.000000
359785.000000
360542.000000
361268.000000
361997.000000
362717.000000
363437.000000
364149.000000
364879.000000
365634.000000
366407.000000
367177.000000
367935.000000
368681.000000
369435.000000
370198.000000
370950.000000
371685.000000
372448.000000
373214.000000
373980.000000
374735.000000
375458.000000
376175.000000
376896.000000
377616.000000
378336.000000
379054.000000
379787.000000
380539.000000
381306.000000
382078.000000
382841.000000
383584.000000
384325.000000
385056.000000
385777.000000
386482.000000
387196.000000
387923.000000
388653.000000
389392.000000
390137.000000
390887.000000
391648.000000
392422.000000
393191.000000
393943.000000
394693.000000
395445.000000
396206.000000
396971.000000
397725.000000
398478.000000
399237.000000
400003.000000
400780.000000
401555.000000
402324.000000
403101.000000
403884.000000
404671.000000
405443.000000
406189.000000
406950.000000
407714.000000
408476.000000
409226.000000
409949.000000
410684.000000
411434.000000
412196.000000
412964.000000
413719.000000
414451.000000
415200.000000
415945.000000
416695.000000
417446.000000
418179.000000
418922.000000
419665.000000
420409.000000
421155.000000
421882.000000
422594.000000
423310.000000
424035.000000
424755.000000
425469.000000
426174.000000
426876.000000
427604.000000
428344.000000
429085.000000
429821.000000
430543.000000
431257.000000
431979.000000
432710.000000
433453.000000
434194.000000
434952.000000
435733.000000
436519.000000
437286.000000
438038.000000
438780.000000
439513.000000
440231.000000
440938.000000
441644.000000
442364.000000
443109.000000
443869.000000
444632.000000
445398.000000
446169.000000
446941.000000
447702.000000
448444.000000
449204.000000
449959.000000
450709.000000
451448.000000
452196.000000
452954.000000
453724.000000
454505.000000
455289.000000
456072.000000
456850.000000
457614.000000
458364.000000
459118.000000
459877.000000
460642.000000
461399.000000
462138.000000
462895.000000
463652.000000
464408.000000
465170.000000
465937.000000
466706.000000
467467.000000
468221.000000
468990.000000
469768.000000
470555.000000
471337.000000
472130.000000
472919.000000
473690.000000
474456.000000
475219.000000
475990.000000
476749.000000
477488.000000
478239.000000
478983.000000
479723.000000
480465.000000
481177.000000
481865.000000
482549.000000
483232.000000
483920.000000
484629.000000
485362.000000
486127.000000
486906.000000
487669.000000
488422.000000
489175.000000
489919.000000
490650.000000
491387.000000
492131.000000
492893.000000
493676.000000
494453.000000
495217.000000
495997.000000
496796.000000
497608.000000
498405.000000
499187.000000
499952.000000
500716.000000
501474.000000
502220.000000
502941.000000
503654.000000
504368.000000
505088.000000
505823.000000
506576.000000
507342.000000
508120.000000
508913.000000
509699.000000
510471.000000
511220.000000
511966.000000
512704.000000
513430.000000
514140.000000
514847.000000
515553.000000
516263.000000
516971.000000
517677.000000
518401.000000
519132.000000
519873.000000
520608.000000
521341.000000
522079.000000
522820.000000
523560.000000
524307.000000
525059.000000
525819.000000
526582.000000
527336.000000
528096.000000
528857.000000
529613.000000
530363.000000
531113.000000
531861.000000
532613.000000
533348.000000
534084.000000
534834.000000
535585.000000
536338.000000
537075.000000
537798.000000
538525.000000
539258.000000
539992.000000
540719.000000
541455.000000
542201.000000
542955.000000
543711.000000
544453.000000
545190.000000
545924.000000
546663.000000
547390.000000
548098.000000
548810.000000
549534.000000
550269.000000
551002.000000
551732.000000
552469.000000
553219.000000
553980.000000
554733.000000
555480.000000
556229.000000
556980.000000
557728.000000
558460.000000
559198.000000
559933.000000
560681.000000
561427.000000
562172.000000
562931.000000
563704.000000
564489.000000
565272.000000
566067.000000
566866.000000
567667.000000
568441.000000
569200.000000
569954.000000
570698.000000
571427.000000
572150.000000
572890.000000
573648.000000
574432.000000
575213.000000
575995.000000
576777.000000
577577.000000
578369.000000
579122.000000
579867.000000
580626.000000
581375.000000
582110.000000
582842.000000
583583.000000
584329.000000
585089.000000
585857.000000
586631.000000
587400.000000
588188.000000
588976.000000
589767.000000
590535.000000
591277.000000
592020.000000
592765.000000
593516.000000
594272.000000
595010.000000
595758.000000
596505.000000
597261.000000
598028.000000
598806.000000
599596.000000
600373.000000
601145.000000
601920.000000
602705.000000
603496.000000
604280.000000
605062.000000
605834.000000
606581.000000
607325.000000
608049.000000
608759.000000
609503.000000
610270.000000
611051.000000
611823.000000
612569.000000
613321.000000
614062.000000
614795.000000
615516.000000
616229.000000
616945.000000
617679.000000
618419.000000
619174.000000
619942.000000
620715.000000
621492.000000
622249.000000
622978.000000
623712.000000
624472.000000
625243.000000
626024.000000
626794.000000
627556.000000
628312.000000
629063.000000
629811.000000
630570.000000
631341.000000
632125.000000
632927.000000
633729.000000
634511.000000
635292.000000
636078.000000
636874.000000
637671.000000
638454.000000
639225.000000
639997.000000
640766.000000
641528.000000
642267.000000
643019.000000
643778.000000
644567.000000
645350.000000
646126.000000
646908.000000
647681.000000
648445.000000
649194.000000
649919.000000
650640.000000
651377.000000
652138.000000
652941.000000
653775.000000
654591.000000
655380.000000
656157.000000
656923.000000
657677.000000
658397.000000
659102.000000
659787.000000
660476.000000
661205.000000
661952.000000
662712.000000
663474.000000
664213.000000
664960.000000
665707.000000
666448.000000
667177.000000
667906.000000
668636.000000
669358.000000
670076.000000
670800.000000
671532.000000
672273.000000
673020.000000
673771.000000
674524.000000
675272.000000
676012.000000
676762.000000
677526.000000
678275.000000
679028.000000
679778.000000
680533.000000
681297.000000
682080.000000
682861.000000
683638.000000
684407.000000
685175.000000
685932.000000
686666.000000
687398.000000
688125.000000
688864.000000
689602.000000
690340.000000
691084.000000
691838.000000
692606.000000
693383.000000
694156.000000
694916.000000
695659.000000
696395.000000
697134.000000
697884.000000
698625.000000
699378.000000
700144.000000
700922.000000
701702.000000
702459.000000
703206.000000
703949.000000
704664.000000
705353.000000
706040.000000
706738.000000
707448.000000
708173.000000
708916.000000
709667.000000
710406.000000
711131.000000
711852.000000
712569.000000
713290.000000
714020.000000
714745.000000
715479.000000
716224.000000
716988.000000
717771.000000
718560.000000
719336.000000
720105.000000
720871.000000
721637.000000
722394.000000
723148.000000
723888.000000
724617.000000
725366.000000
726130.000000
726919.000000
727713.000000
728517.000000
729310.000000
730077.000000
730797.000000
731512.000000
732210.000000
732890.000000
733555.000000
734222.000000
734901.000000
735583.000000
736269.000000
736958.000000
737655.000000
738361.000000
739078.000000
739804.000000
740537.000000
741270.000000
742010.000000
742761.000000
743529.000000
744312.000000
745104.000000
745873.000000
746636.000000
747383.000000
748126.000000
748873.000000
749614.000000
750353.000000
751095.000000
751843.000000
752586.000000
753323.000000
754065.000000
754816.000000
755574.000000
756321.000000
757068.000000
757815.000000
758565.000000
759294.000000
760019.000000
760743.000000
761465.000000
762184.000000
762893.000000
763604.000000
764324.000000
765058.000000
765796.000000
766525.000000
767249.000000
767992.000000
768737.000000
769485.000000
770221.000000
770957.000000
771697.000000
772457.000000
773237.000000
774006.000000
774777.000000
775548.000000
776335.000000
777122.000000
777896.000000
778665.000000
779433.000000
780209.000000
780989.000000
781776.000000
782572.000000
783381.000000
784185.000000
784980.000000
785775.000000
786561.000000
787336.000000
788110.000000
788883.000000
789672.000000
790461.000000
791233.000000
792006.000000
792782.000000
793576.000000
794362.000000
795136.000000
795895.000000
796656.000000
797418.000000
798178.000000
798926.000000
799656.000000
800399.000000
801149.000000
801915.000000
802691.000000
803459.000000
804224.000000
804999.000000
805785.000000
806580.000000
807381.000000
808182.000000
808968.000000
809741.000000
810484.000000
811223.000000
811977.000000
812756.000000
813572.000000
814394.000000
815211.000000
816021.000000
816820.000000
817611.000000
818369.000000
819124.000000
819888.000000
820653.000000
821417.000000
822162.000000
822909.000000
823661.000000
824419.000000
825188.000000
825960.000000
826731.000000
827504.000000
828279.000000
829062.000000
829826.000000
830574.000000
831334.000000
832085.000000
832840.000000
833592.000000
834328.000000
835064.000000
835796.000000
836542.000000
837295.000000
838048.000000
838801.000000
839555.000000
840316.000000
841075.000000
841828.000000
842581.000000
843329.000000
844076.000000
844812.000000
845536.000000
846261.000000
846987.000000
847720.000000
848452.000000
849186.000000
849939.000000
850713.000000
851506.000000
852303.000000
853087.000000
853857.000000
854620.000000
855382.000000
856154.000000
856921.000000
857664.000000
858393.000000
859143.000000
859904.000000
860693.000000
861463.000000
862216.000000
862966.000000
863711.000000
864442.000000
865147.000000
865824.000000
866481.000000
867135.000000
867790.000000
868456.000000
869140.000000
869847.000000
870560.000000
871266.000000
871981.000000
872704.000000
873435.000000
874156.000000
874856.000000
875551.000000
876249.000000
876959.000000
877679.000000
878410.000000
879156.000000
879932.000000
880727.000000
881506.000000
882264.000000
883019.000000
883772.000000
884511.000000
885229.000000
885934.000000
886639.000000
887355.000000
888080.000000
888807.000000
889542.000000
890298.000000
891070.000000
891848.000000
892630.000000
893382.000000
894116.000000
894845.000000
895574.000000
896296.000000
897013.000000
897736.000000
898483.000000
899248.000000
900018.000000
900788.000000
901526.000000
902252.000000
902988.000000
903729.000000
904490.000000
905285.000000
906083.000000
906893.000000
907698.000000
908505.000000
909309.000000
910088.000000
910853.000000
911607.000000
912360.000000
913121.000000
913901.000000
914671.000000
915427.000000
916188.000000
916947.000000
917715.000000
918482.000000
919245.000000
920020.000000
920800.000000
921582.000000
922342.000000
923073.000000
923806.000000
924544.000000
925279.000000
926030.000000
926784.000000
927532.000000
928278.000000
929037.000000
929807.000000
930589.000000
931357.000000
932115.000000
932873.000000
933639.000000
934411.000000
935184.000000
935943.000000
936684.000000
937431.000000
938168.000000
938909.000000
939648.000000
940387.000000
941132.000000
941899.000000
942682.000000
943478.000000
944254.000000
944998.000000
945742.000000
946477.000000
947203.000000
947926.000000
948651.000000
949398.000000
950170.000000
950975.000000
951784.000000
952574.000000
953367.000000
954154.000000
954937.000000
955706.000000
956437.000000
957157.000000
957873.000000
958587.000000
959305.000000
960031.000000
960749.000000
961466.000000
962203.000000
962944.000000
963696.000000
964443.000000
965191.000000
965953.000000
966743.000000
967543.000000
968328.000000
969106.000000
969878.000000
970650.000000
971386.000000
972104.000000
972812.000000
973523.000000
974240.000000
974969.000000
975706.000000
976456.000000
977229.000000
978012.000000
978790.000000
979555.000000
980282.000000
981002.000000
981730.000000
982475.000000
983248.000000
984053.000000
984861.000000
985679.000000
986498.000000
987320.000000
988120.000000
988900.000000
989676.000000
990443.000000
991210.000000
991948.000000
992679.000000
993416.000000
994169.000000
994937.000000
995726.000000
996518.000000
997297.000000
998053.000000
998826.000000
999601.000000
1000398.000000
1001199.000000
1001986.000000
1002767.000000
1003545.000000
1004315.000000
1005079.000000
1005831.000000
1006595.000000
1007369.000000
1008150.000000
1008929.000000
1009708.000000
1010493.000000
1011283.000000
1012080.000000
1012877.000000
1013675.000000
1014482.000000
1015290.000000
1016082.000000
1016864.000000
1017631.000000
1018408.000000
1019193.000000
1019990.000000
1020774.000000
1021533.000000
1022299.000000
1023054.000000
1023821.000000
1024581.000000
1025329.000000
1026092.000000
1026871.000000
1027663.000000
1028446.000000
1029219.000000
1029989.000000
1030762.000000
1031531.000000
1032281.000000
1033007.000000
1033738.000000
1034471.000000
1035208.000000
1035943.000000
1036679.000000
1037425.000000
1038182.000000
1038952.000000
1039727.000000
1040489.000000
1041232.000000
1041955.000000
1042685.000000
1043412.000000
1044146.000000
1044874.000000
1045603.000000
1046333.000000
1047076.000000
1047831.000000
1048567.000000
1049294.000000
1050020.000000
1050741.000000
1051461.000000
1052182.000000
1052893.000000
1053598.000000
1054292.000000
1054980.000000
1055655.000000
1056311.000000
1056948.000000
1057588.000000
1058246.000000
1058932.000000
1059639.000000
1060364.000000
1061095.000000
1061833.000000
1062558.000000
1063272.000000
1063981.000000
1064688.000000
1065391.000000
1066084.000000
1066776.000000
1067490.000000
1068253.000000
1069030.000000
1069812.000000
1070588.000000
1071329.000000
1072062.000000
1072785.000000
1073515.000000
1074235.000000
1074942.000000
1075629.000000
1076295.000000
1076966.000000
1077661.000000
1078391.000000
1079145.000000
1079918.000000
1080670.000000
1081403.000000
1082123.000000
1082841.000000
1083565.000000
1084275.000000
1084992.000000
1085726.000000
1086481.000000
1087256.000000
1088026.000000
1088790.000000
1089550.000000
1090319.000000
1091086.000000
1091830.000000
1092544.000000
1093243.000000
1093949.000000
1094672.000000
1095395.000000
1096111.000000
1096821.000000
1097527.000000
1098232.000000
1098932.000000
1099639.000000
1100359.000000
1101094.000000
1101845.000000
1102604.000000
1103374.000000
1104146.000000
1104908.000000
1105655.000000
1106380.000000
1107105.000000
1107841.000000
1108579.000000
1109332.000000
1110102.000000
1110883.000000
1111666.000000
1112432.000000
1113187.000000
1113930.000000
1114670.000000
1115410.000000
1116136.000000
1116852.000000
1117572.000000
1118314.000000
1119065.000000
1119821.000000
1120565.000000
1121309.000000
1122046.000000
1122781.000000
1123514.000000
1124232.000000
1124956.000000
1125692.000000
1126448.000000
1127202.000000
1127946.000000
1128674.000000
1129411.000000
1130149.000000
1130906.000000
1131673.000000
1132441.000000
1133206.000000
1133979.000000
1134754.000000
1135515.000000
1136276.000000
1137028.000000
1137773.000000
1138521.000000
1139274.000000
1140022.000000
1140778.000000
1141547.000000
1142320.000000
1143089.000000
1143838.000000
1144567.000000
1145301.000000
1146033.000000
1146778.000000
1147530.000000
1148279.000000
1149037.000000
1149798.000000
1150557.000000
1151309.000000
1152043.000000
1152783.000000
1153536.000000
1154306.000000
1155080.000000
1155845.000000
1156609.000000
1157378.000000
1158148.000000
1158913.000000
1159655.000000
1160387.000000
1161128.000000
1161867.000000
1162613.000000
1163349.000000
1164090.000000
1164841.000000
1165600.000000
1166363.000000
1167114.000000
1167862.000000
1168617.000000
1169384.000000
1170149.000000
1170906.000000
1171651.000000
1172403.000000
1173165.000000
1173928.000000
1174682.000000
1175440.000000
1176203.000000
1176966.000000
1177720.000000
1178470.000000
1179222.000000
1179975.000000
1180727.000000
1181461.000000
1182186.000000
1182917.000000
1183650.000000
1184390.000000
1185129.000000
1185864.000000
1186614.000000
1187372.000000
1188138.000000
1188897.000000
1189626.000000
1190365.000000
1191089.000000
1191816.000000
1192531.000000
1193252.000000
1193998.000000
1194777.000000
1195575.000000
1196368.000000
1197145.000000
1197911.000000
1198666.000000
1199394.000000
1200105.000000
1200812.000000
1201520.000000
1202238.000000
1202957.000000
1203674.000000
1204396.000000
1205130.000000
1205871.000000
1206614.000000
1207361.000000
1208114.000000
1208879.000000
1209638.000000
1210376.000000
1211086.000000
1211798.000000
1212509.000000
1213227.000000
1213939.000000
1214634.000000
1215316.000000
1216001.000000
1216695.000000
1217398.000000
1218104.000000
1218812.000000
1219499.000000
1220180.000000
1220855.000000
1221526.000000
1222193.000000
1222845.000000
1223488.000000
1224123.000000
1224759.000000
1225414.000000
1226086.000000
1226771.000000
1227454.000000
1228123.000000
1228769.000000
1229406.000000
1230044.000000
1230693.000000
1231344.000000
1232014.000000
1232702.000000
1233422.000000
1234158.000000
1234894.000000
1235626.000000
1236356.000000
1237074.000000
1237770.000000
1238460.000000
1239140.000000
1239810.000000
1240500.000000
1241217.000000
1241935.000000
1242661.000000
1243402.000000
1244176.000000
1244960.000000
1245726.000000
1246469.000000
1247223.000000
1247968.000000
1248683.000000
1249385.000000
1250081.000000
1250779.000000
1251486.000000
1252196.000000
1252913.000000
1253627.000000
1254350.000000
1255085.000000
1255845.000000
1256621.000000
1257379.000000
1258121.000000
1258870.000000
1259610.000000
1260358.000000
1261099.000000
1261842.000000
1262588.000000
1263348.000000
1264117.000000
1264879.000000
1265643.000000
1266400.000000
1267155.000000
1267903.000000
1268629.000000
1269364.000000
1270116.000000
1270883.000000
1271659.000000
1272428.000000
1273216.000000
1274006.000000
1274793.000000
1275576.000000
1276335.000000
1277072.000000
1277804.000000
1278537.000000
1279273.000000
1280013.000000
1280764.000000
1281512.000000
1282257.000000
1283013.000000
1283781.000000
1284547.000000
1285299.000000
1286031.000000
1286772.000000
1287510.000000
1288246.000000
1288981.000000
1289719.000000
1290471.000000
1291234.000000
1291987.000000
1292718.000000
1293450.000000
1294192.000000
1294953.000000
1295741.000000
1296528.000000
1297318.000000
1298127.000000
1298951.000000
1299762.000000
1300543.000000
1301287.000000
1302021.000000
1302774.000000
1303548.000000
1304357.000000
1305184.000000
1306001.000000
1306825.000000
1307642.000000
1308440.000000
1309201.000000
1309945.000000
1310698.000000
1311462.000000
1312249.000000
1313047.000000
1313833.000000
1314621.000000
1315421.000000
1316215.000000
1317009.000000
1317779.000000
1318550.000000
1319323.000000
1320092.000000
1320874.000000
1321650.000000
1322416.000000
1323176.000000
1323942.000000
1324720.000000
1325508.000000
1326291.000000
1327085.000000
1327865.000000
1328631.000000
1329390.000000
1330141.000000
1330902.000000
1331667.000000
1332417.000000
1333166.000000
1333910.000000
1334651.000000
1335378.000000
1336109.000000
1336817.000000
1337501.000000
1338179.000000
1338860.000000
1339539.000000
1340219.000000
1340913.000000
1341621.000000
1342332.000000
1343030.000000
1343728.000000
1344428.000000
1345132.000000
1345827.000000
1346521.000000
1347214.000000
1347924.000000
1348664.000000
1349404.000000
1350153.000000
1350908.000000
1351659.000000
1352381.000000
1353102.000000
1353838.000000
1354575.000000
1355321.000000
1356065.000000
1356825.000000
1357597.000000
1358375.000000
1359153.000000
1359940.000000
1360719.000000
1361497.000000
1362279.000000
1363070.000000
1363868.000000
1364674.000000
1365463.000000
1366253.000000
1367044.000000
1367843.000000
1368630.000000
1369399.000000
1370168.000000
1370945.000000
1371725.000000
1372493.000000
1373261.000000
1374030.000000
1374797.000000
1375576.000000
1376335.000000
1377062.000000
1377763.000000
1378452.000000
1379146.000000
1379850.000000
1380552.000000
1381250.000000
1381945.000000
1382642.000000
1383335.000000
1384025.000000
1384725.000000
1385436.000000
1386161.000000
1386894.000000
1387632.000000
1388380.000000
1389142.000000
1389905.000000
1390661.000000
1391413.000000
1392175.000000
1392942.000000
1393706.000000
1394478.000000
1395255.000000
1396055.000000
1396866.000000
1397683.000000
1398478.000000
1399263.000000
1400034.000000
1400819.000000
1401614.000000
1402396.000000
1403182.000000
1403979.000000
1404776.000000
1405576.000000
1406359.000000
1407121.000000
1407889.000000
1408658.000000
1409421.000000
1410174.000000
1410930.000000
1411697.000000
1412478.000000
1413266.000000
1414049.000000
1414845.000000
1415652.000000
1416462.000000
1417250.000000
1417996.000000
1418734.000000
1419475.000000
1420237.000000
1421023.000000
1421809.000000
1422607.000000
1423426.000000
1424257.000000
1425089.000000
1425886.000000
1426675.000000
1427458.000000
1428242.000000
1429035.000000
1429813.000000
1430590.000000
1431375.000000
1432171.000000
1432968.000000
1433749.000000
1434514.000000
1435281.000000
1436048.000000
1436819.000000
1437578.000000
1438337.000000
1439105.000000
1439884.000000
1440682.000000
1441479.000000
1442253.000000
1443036.000000
1443817.000000
1444632.000000
1445441.000000
1446224.000000
1446981.000000
1447745.000000
1448513.000000
1449297.000000
1450081.000000
1450847.000000
1451610.000000
1452385.000000
1453165.000000
1453943.000000
1454707.000000
1455443.000000
1456178.000000
1456916.000000
1457657.000000
1458407.000000
1459155.000000
1459890.000000
1460640.000000
1461393.000000
1462164.000000
1462927.000000
1463674.000000
1464407.000000
1465129.000000
1465851.000000
1466568.000000
1467287.000000
1468015.000000
1468756.000000
1469521.000000
1470301.000000
1471072.000000
1471822.000000
1472550.000000
1473277.000000
1473999.000000
1474708.000000
1475401.000000
1476084.000000
1476765.000000
1477445.000000
1478129.000000
1478817.000000
1479510.000000
1480215.000000
1480938.000000
1481673.000000
1482419.000000
1483158.000000
1483886.000000
1484619.000000
1485352.000000
1486067.000000
1486765.000000
1487457.000000
1488147.000000
1488835.000000
1489522.000000
1490200.000000
1490877.000000
1491563.000000
1492263.000000
1492986.000000
1493727.000000
1494474.000000
1495225.000000
1495986.000000
1496754.000000
1497529.000000
1498272.000000
1499005.000000
1499734.000000
1500470.000000
1501203.000000
1501923.000000
1502646.000000
1503375.000000
1504115.000000
1504854.000000
1505584.000000
1506310.000000
1507048.000000
1507797.000000
1508552.000000
1509294.000000
1510024.000000
1510752.000000
1511483.000000
1512219.000000
1512970.000000
1513730.000000
1514505.000000
1515304.000000
1516110.000000
1516895.000000
1517629.000000
1518345.000000
1519038.000000
1519717.000000
1520388.000000
1521056.000000
1521723.000000
1522397.000000
1523081.000000
1523810.000000
1524571.000000
1525332.000000
1526093.000000
1526840.000000
1527564.000000
1528289.000000
1529013.000000
1529720.000000
1530412.000000
1531098.000000
1531779.000000
1532464.000000
1533157.000000
1533853.000000
1534561.000000
1535285.000000
1536029.000000
1536780.000000
1537520.000000
1538252.000000
1538979.000000
1539703.000000
1540429.000000
1541137.000000
1541843.000000
1542548.000000
1543249.000000
1543952.000000
1544649.000000
1545342.000000
1546054.000000
1546789.000000
1547550.000000
1548315.000000
1549074.000000
1549807.000000
1550525.000000
1551244.000000
1551949.000000
1552659.000000
1553364.000000
1554060.000000
1554759.000000
1555467.000000
1556185.000000
1556910.000000
1557622.000000
1558324.000000
1559027.000000
1559721.000000
1560413.000000
1561099.000000
1561783.000000
1562472.000000
1563182.000000
1563932.000000
1564693.000000
1565440.000000
1566182.000000
1566924.000000
1567661.000000
1568391.000000
1569092.000000
1569783.000000
1570450.000000
1571094.000000
1571727.000000
1572367.000000
1573015.000000
1573680.000000
1574381.000000
1575103.000000
1575836.000000
1576560.000000
1577279.000000
1578005.000000
1578728.000000
1579439.000000
1580152.000000
1580873.000000
1581599.000000
1582328.000000
1583059.000000
1583782.000000
1584516.000000
1585251.000000
1585994.000000
1586733.000000
1587465.000000
1588210.000000
1588968.000000
1589744.000000
1590534.000000
1591305.000000
1592068.000000
1592823.000000
1593574.000000
1594306.000000
1595033.000000
1595774.000000
1596520.000000
1597280.000000
1598033.000000
1598790.000000
1599552.000000
1600328.000000
1601117.000000
1601892.000000
1602660.000000
1603432.000000
1604212.000000
1605003.000000
1605801.000000
1606585.000000
1607358.000000
1608129.000000
1608904.000000
1609690.000000
1610462.000000
1611229.000000
1611998.000000
1612771.000000
1613543.000000
1614312.000000
1615076.000000
1615850.000000
1616631.000000
1617398.000000
1618139.000000
1618886.000000
1619639.000000
1620413.000000
1621182.000000
1621936.000000
1622689.000000
1623448.000000
1624225.000000
1624993.000000
1625760.000000
1626526.000000
1627292.000000
1628061.000000
1628825.000000
1629607.000000
1630402.000000
1631199.000000
1631972.000000
1632726.000000
1633474.000000
1634223.000000
1634971.000000
1635724.000000
1636469.000000
1637209.000000
1637945.000000
1638698.000000
1639471.000000
1640246.000000
1641010.000000
1641765.000000
1642519.000000
1643266.000000
1644011.000000
1644744.000000
1645458.000000
1646170.000000
1646886.000000
1647591.000000
1648293.000000
1649005.000000
1649740.000000
1650467.000000
1651182.000000
1651881.000000
1652552.000000
1653212.000000
1653876.000000
1654555.000000
1655232.000000
1655899.000000
1656551.000000
1657210.000000
1657881.000000
1658572.000000
1659272.000000
1659984.000000
1660717.000000
1661481.000000
1662243.000000
1663001.000000
1663751.000000
1664504.000000
1665265.000000
1666025.000000
1666760.000000
1667485.000000
1668225.000000
1668998.000000
1669780.000000
1670554.000000
1671312.000000
1672038.000000
1672749.000000
1673456.000000
1674161.000000
1674866.000000
1675583.000000
1676324.000000
1677101.000000
1677885.000000
1678658.000000
1679424.000000
1680178.000000
1680923.000000
1681659.000000
1682388.000000
1683098.000000
1683816.000000
1684544.000000
1685304.000000
1686091.000000
1686889.000000
1687687.000000
1688475.000000
1689237.000000
1689975.000000
1690714.000000
1691450.000000
1692195.000000
1692957.000000
1693730.000000
1694492.000000
1695242.000000
1695985.000000
1696734.000000
1697476.000000
1698218.000000
1698949.000000
1699683.000000
1700424.000000
1701176.000000
1701929.000000
1702671.000000
1703397.000000
1704133.000000
1704861.000000
1705592.000000
1706316.000000
1707026.000000
1707726.000000
1708429.000000
1709133.000000
1709848.000000
1710573.000000
1711291.000000
1712006.000000
1712725.000000
1713447.000000
1714172.000000
1714890.000000
1715598.000000
1716304.000000
1717016.000000
1717729.000000
1718443.000000
1719149.000000
1719852.000000
1720564.000000
1721284.000000
1722025.000000
1722790.000000
1723556.000000
1724334.000000
1725103.000000
1725868.000000
1726617.000000
1727372.000000
1728142.000000
1728917.000000
1729710.000000
1730486.000000
1731257.000000
1732028.000000
1732799.000000
1733564.000000
1734310.000000
1735063.000000
1735829.000000
1736611.000000
1737390.000000
1738174.000000
1738965.000000
1739768.000000
1740559.000000
1741348.000000
1742131.000000
1742908.000000
1743673.000000
1744422.000000
1745179.000000
1745932.000000
1746688.000000
1747443.000000
1748216.000000
1748998.000000
1749795.000000
1750578.000000
1751351.000000
1752123.000000
1752895.000000
1753658.000000
1754405.000000
1755163.000000
1755916.000000
1756673.000000
1757422.000000
1758167.000000
1758921.000000
1759691.000000
1760463.000000
1761217.000000
1761966.000000
1762713.000000
1763448.000000
1764182.000000
1764900.000000
1765627.000000
1766364.000000
1767127.000000
1767918.000000
1768719.000000
1769511.000000
1770277.000000
1771002.000000
1771711.000000
1772406.000000
1773101.000000
1773791.000000
1774487.000000
1775201.000000
1775941.000000
1776711.000000
1777482.000000
1778245.000000
1779010.000000
1779770.000000
1780527.000000
1781266.000000
1781985.000000
1782680.000000
1783367.000000
1784057.000000
1784755.000000
1785464.000000
1786180.000000
1786911.000000
1787661.000000
1788421.000000
1789186.000000
1789936.000000
1790692.000000
1791446.000000
1792215.000000
1792997.000000
1793776.000000
1794550.000000
1795328.000000
1796103.000000
1796877.000000
1797645.000000
1798398.000000
1799179.000000
1799954.000000
1800747.000000
1801533.000000
1802299.000000
1803059.000000
1803835.000000
1804613.000000
1805406.000000
1806199.000000
1806978.000000
1807749.000000
1808519.000000
1809291.000000
1810065.000000
1810820.000000
1811552.000000
1812282.000000
1813026.000000
1813785.000000
1814573.000000
1815375.000000
1816179.000000
1816966.000000
1817748.000000
1818516.000000
1819264.000000
1820011.000000
1820754.000000
1821499.000000
1822242.000000
1822978.000000
1823717.000000
1824452.000000
1825172.000000
1825886.000000
1826610.000000
1827355.000000
1828102.000000
1828820.000000
1829517.000000
1830197.000000
1830872.000000
1831542.000000
1832218.000000
1832894.000000
1833575.000000
1834255.000000
1834934.000000
1835619.000000
1836316.000000
1837019.000000
1837741.000000
1838469.000000
1839187.000000
1839904.000000
1840626.000000
1841354.000000
1842091.000000
1842827.000000
1843555.000000
1844294.000000
1845042.000000
1845791.000000
1846531.000000
1847267.000000
1848017.000000
1848781.000000
1849553.000000
1850326.000000
1851097.000000
1851872.000000
1852650.000000
1853435.000000
1854223.000000
1854985.000000
1855731.000000
1856494.000000
1857272.000000
1858062.000000
1858854.000000
1859636.000000
1860420.000000
1861207.000000
1861994.000000
1862762.000000
1863504.000000
1864253.000000
1865005.000000
1865752.000000
1866509.000000
1867262.000000
1868001.000000
1868746.000000
1869491.000000
1870232.000000
1870964.000000
1871702.000000
1872472.000000
1873255.000000
1874041.000000
1874803.000000
1875541.000000
1876284.000000
1877022.000000
1877754.000000
1878480.000000
1879209.000000
1879961.000000
1880723.000000
1881484.000000
