ECG (ms)
260.000000
1147.000000
1947.000000
2897.000000
3917.000000
4861.000000
5809.000000
6801.000000
7834.000000
8783.000000
9774.000000
10791.000000
11716.000000
12553.000000
13441.000000
14521.000000
15560.000000
16437.000000
17393.000000
18400.000000
19391.000000
20240.000000
21113.000000
22162.000000
23188.000000
24053.000000
24964.000000
25974.000000
26880.000000
27810.000000
28978.000000
29991.000000
30953.000000
31920.000000
32795.000000
33805.000000
34819.000000
35704.000000
36616.000000
37658.000000
38590.000000
39505.000000
40453.000000
41298.000000
42083.000000
42891.000000
44074.000000
45124.000000
46009.000000
46938.000000
47971.000000
48920.000000
49784.000000
50822.000000
51902.000000
52818.000000
53619.000000
54615.000000
55588.000000
56438.000000
57316.000000
58396.000000
59301.000000
60226.000000
61219.000000
62144.000000
63024.000000
64093.000000
65075.000000
65885.000000
66765.000000
67817.000000
68858.000000
69731.000000
70766.000000
71769.000000
72677.000000
73594.000000
74632.000000
75548.000000
76379.000000
77245.000000
78168.000000
79092.000000
80174.000000
81186.000000
82059.000000
83092.000000
84080.000000
84904.000000
85717.000000
86585.000000
87403.000000
88243.000000
89531.000000
90560.000000
91650.000000
92778.000000
93715.000000
94673.000000
95575.000000
96344.000000
97121.000000
97971.000000
98934.000000
99773.000000
100885.000000
101917.000000
102982.000000
104052.000000
104965.000000
105832.000000
106824.000000
107724.000000
108545.000000
109527.000000
110455.000000
111290.000000
112472.000000
113492.000000
114376.000000
115518.000000
116576.000000
117437.000000
118269.000000
119305.000000
120294.000000
121137.000000
122086.000000
123196.000000
124178.000000
125091.000000
126172.000000
127147.000000
127976.000000
128841.000000
129829.000000
130647.000000
131455.000000
132653.000000
133637.000000
134459.000000
135403.000000
136494.000000
137519.000000
138601.000000
139602.000000
140469.000000
141337.000000
142221.000000
143018.000000
143859.000000
144827.000000
145623.000000
146389.000000
147404.000000
148280.000000
149077.000000
150233.000000
151262.000000
152151.000000
152947.000000
153994.000000
155133.000000
156110.000000
157108.000000
158205.000000
159141.000000
160040.000000
160979.000000
161851.000000
162657.000000
163579.000000
164554.000000
165406.000000
166446.000000
167499.000000
168489.000000
169580.000000
170539.000000
171406.000000
172315.000000
173335.000000
174192.000000
175084.000000
176159.000000
177084.000000
178085.000000
179246.000000
180216.000000
181238.000000
182364.000000
183399.000000
184447.000000
185578.000000
186559.000000
187464.000000
188422.000000
189317.000000
190169.000000
191344.000000
192341.000000
193172.000000
194082.000000
195093.000000
195940.000000
196831.000000
197962.000000
198911.000000
199984.000000
201043.000000
201962.000000
202984.000000
204010.000000
204876.000000
205792.000000
206813.000000
207722.000000
208694.000000
209727.000000
210689.000000
211707.000000
212713.000000
213580.000000
214394.000000
215276.000000
216327.000000
217185.000000
218257.000000
219251.000000
220086.000000
221048.000000
221960.000000
222774.000000
223602.000000
224476.000000
225289.000000
226227.000000
227335.000000
228241.000000
229264.000000
230209.000000
230993.000000
231804.000000
232607.000000
233423.000000
234694.000000
235812.000000
236712.000000
237866.000000
238832.000000
239697.000000
240803.000000
241826.000000
242644.000000
243505.000000
244658.000000
245606.000000
246640.000000
247676.000000
248697.000000
249716.000000
250757.000000
251623.000000
252477.000000
253365.000000
254275.000000
255212.000000
256291.000000
257247.000000
258172.000000
259218.000000
260181.000000
261028.000000
262142.000000
263245.000000
264234.000000
265071.000000
265917.000000
266815.000000
267666.000000
268694.000000
269728.000000
270572.000000
271448.000000
272321.000000
273142.000000
274100.000000
275170.000000
275996.000000
277132.000000
278065.000000
278852.000000
279713.000000
280642.000000
281491.000000
282474.000000
283401.000000
284206.000000
285248.000000
286292.000000
287148.000000
288164.000000
289142.000000
289947.000000
290796.000000
291910.000000
292870.000000
293827.000000
294954.000000
295927.000000
296925.000000
297956.000000
298834.000000
299647.000000
300533.000000
301699.000000
302580.000000
303652.000000
304711.000000
305634.000000
306658.000000
307579.000000
308408.000000
309565.000000
310550.000000
311369.000000
312405.000000
313485.000000
314389.000000
315415.000000
316484.000000
317420.000000
318505.000000
319573.000000
320544.000000
321556.000000
322528.000000
323419.000000
324449.000000
325498.000000
326500.000000
327585.000000
328634.000000
329620.000000
330603.000000
331582.000000
332456.000000
333322.000000
334354.000000
335295.000000
336119.000000
337308.000000
338259.000000
339047.000000
339892.000000
340869.000000
341675.000000
342414.000000
343143.000000
344437.000000
345557.000000
346654.000000
347704.000000
348807.000000
349914.000000
350909.000000
351923.000000
352962.000000
353989.000000
355019.000000
356031.000000
356962.000000
357991.000000
358970.000000
359827.000000
360826.000000
361757.000000
362605.000000
363757.000000
364788.000000
365672.000000
366670.000000
367558.000000
368352.000000
369229.000000
370405.000000
371344.000000
372281.000000
373331.000000
374177.000000
375047.000000
376094.000000
376985.000000
378056.000000
379105.000000
380079.000000
381198.000000
382247.000000
383123.000000
384077.000000
385053.000000
385923.000000
386893.000000
387956.000000
389004.000000
390105.000000
391066.000000
391924.000000
392929.000000
393915.000000
394852.000000
395869.000000
396809.000000
397800.000000
398889.000000
399917.000000
400808.000000
401664.000000
402684.000000
403531.000000
404421.000000
405485.000000
406373.000000
407478.000000
408483.000000
409461.000000
410466.000000
411415.000000
412277.000000
413277.000000
414253.000000
415139.000000
416217.000000
417212.000000
418035.000000
418933.000000
419965.000000
420799.000000
421695.000000
422704.000000
423635.000000
424724.000000
425795.000000
426763.000000
427756.000000
428695.000000
429653.000000
430642.000000
431541.000000
432416.000000
433359.000000
434411.000000
435244.000000
436154.000000
437089.000000
437923.000000
438860.000000
439952.000000
440888.000000
441845.000000
442777.000000
443648.000000
444640.000000
445579.000000
446454.000000
447445.000000
448349.000000
449146.000000
450031.000000
451170.000000
452088.000000
453084.000000
454135.000000
455111.000000
456127.000000
457172.000000
458062.000000
458985.000000
460067.000000
461014.000000
461881.000000
463065.000000
464062.000000
465033.000000
466082.000000
467010.000000
467939.000000
468960.000000
469946.000000
470849.000000
471862.000000
472918.000000
473973.000000
474941.000000
475769.000000
476655.000000
477511.000000
478651.000000
479539.000000
480506.000000
481457.000000
482305.000000
483488.000000
484481.000000
485380.000000
486487.000000
487637.000000
488539.000000
489403.000000
490327.000000
491269.000000
492237.000000
493474.000000
494590.000000
495600.000000
496648.000000
497690.000000
498624.000000
499604.000000
500493.000000
501304.000000
502148.000000
503265.000000
504090.000000
504906.000000
506253.000000
507278.000000
508191.000000
509250.000000
510204.000000
511103.000000
512169.000000
513124.000000
514016.000000
515095.000000
516044.000000
516983.000000
518039.000000
519070.000000
520024.000000
521072.000000
521992.000000
522865.000000
524029.000000
525106.000000
526067.000000
527188.000000
528269.000000
529167.000000
530191.000000
531260.000000
532169.000000
533276.000000
534321.000000
535212.000000
536367.000000
537423.000000
538330.000000
539281.000000
540400.000000
541474.000000
542364.000000
543440.000000
544547.000000
545470.000000
546472.000000
547603.000000
548657.000000
549617.000000
550605.000000
551593.000000
552519.000000
553682.000000
554859.000000
555854.000000
556958.000000
558064.000000
559078.000000
560154.000000
561292.000000
562251.000000
563065.000000
564241.000000
565358.000000
566334.000000
567606.000000
568715.000000
569793.000000
570966.000000
572037.000000
572937.000000
573970.000000
574966.000000
575961.000000
577165.000000
578255.000000
579196.000000
580297.000000
581506.000000
582502.000000
583408.000000
584451.000000
585512.000000
586491.000000
587769.000000
588929.000000
589952.000000
591097.000000
592242.000000
593252.000000
594278.000000
595343.000000
596324.000000
597286.000000
598424.000000
599517.000000
600497.000000
601577.000000
602543.000000
603386.000000
604576.000000
605448.000000
606440.000000
607506.000000
608339.000000
609418.000000
610514.000000
611491.000000
612652.000000
613801.000000
614844.000000
615943.000000
617052.000000
618122.000000
619153.000000
620268.000000
621411.000000
622371.000000
623457.000000
624707.000000
625805.000000
626950.000000
628187.000000
629393.000000
630398.000000
631490.000000
632592.000000
633590.000000
634779.000000
635921.000000
636981.000000
638166.000000
639235.000000
640188.000000
641269.000000
642406.000000
643404.000000
644467.000000
645707.000000
646824.000000
647943.000000
649185.000000
650319.000000
651459.000000
652642.000000
653777.000000
654820.000000
655874.000000
657026.000000
658117.000000
659238.000000
660473.000000
661594.000000
662672.000000
663820.000000
664867.000000
665806.000000
666962.000000
668076.000000
669057.000000
670094.000000
671197.000000
672187.000000
673061.000000
674235.000000
675339.000000
676339.000000
677362.000000
678373.000000
679229.000000
680304.000000
681331.000000
682324.000000
683588.000000
684743.000000
685854.000000
687013.000000
688095.000000
689185.000000
690263.000000
691297.000000
692199.000000
693022.000000
694116.000000
695237.000000
696301.000000
697174.000000
697941.000000
699294.000000
700427.000000
701538.000000
702724.000000
703895.000000
705040.000000
706233.000000
707430.000000
708661.000000
709912.000000
711019.000000
712012.000000
713254.000000
714509.000000
715671.000000
716838.000000
718054.000000
719172.000000
720143.000000
721228.000000
722336.000000
723338.000000
724499.000000
725611.000000
726512.000000
727585.000000
728714.000000
729725.000000
730678.000000
731793.000000
732932.000000
733947.000000
734987.000000
736074.000000
737042.000000
737917.000000
739157.000000
740223.000000
741244.000000
742436.000000
743553.000000
744555.000000
745650.000000
746812.000000
747839.000000
748839.000000
749986.000000
751113.000000
752182.000000
753465.000000
754620.000000
755687.000000
756891.000000
757995.000000
758978.000000
760153.000000
761181.000000
762315.000000
763434.000000
764594.000000
765671.000000
766752.000000
767987.000000
769164.000000
770209.000000
771304.000000
772452.000000
773520.000000
774484.000000
775665.000000
776798.000000
777825.000000
778755.000000
780029.000000
781197.000000
782103.000000
782982.000000
784112.000000
784952.000000
785815.000000
787095.000000
788274.000000
789381.000000
790434.000000
791508.000000
792597.000000
793648.000000
794682.000000
795681.000000
796581.000000
797425.000000
798533.000000
799627.000000
800642.000000
801802.000000
802910.000000
803978.000000
804933.000000
805981.000000
807082.000000
808128.000000
809058.000000
810207.000000
811423.000000
812477.000000
813450.000000
814645.000000
815645.000000
816457.000000
817787.000000
818792.000000
819810.000000
821049.000000
822139.000000
823270.000000
824511.000000
825573.000000
826447.000000
827690.000000
828805.000000
829781.000000
831079.000000
832151.000000
833230.000000
834342.000000
835217.000000
836326.000000
837425.000000
838574.000000
839759.000000
840834.000000
841974.000000
843073.000000
844026.000000
845161.000000
846205.000000
847268.000000
848363.000000
849393.000000
850513.000000
851562.000000
852517.000000
853641.000000
854766.000000
855799.000000
856824.000000
857970.000000
858969.000000
860038.000000
861196.000000
862237.000000
863370.000000
864462.000000
865367.000000
866530.000000
867671.000000
868567.000000
869735.000000
870832.000000
871796.000000
872976.000000
874029.000000
875104.000000
876244.000000
877333.000000
878449.000000
879547.000000
880596.000000
881674.000000
882748.000000
883646.000000
884691.000000
885894.000000
886924.000000
887792.000000
889105.000000
890238.000000
891269.000000
892505.000000
893625.000000
894628.000000
895795.000000
896916.000000
897891.000000
898817.000000
899990.000000
901135.000000
902085.000000
