ECG (ms)
73.000000
979.000000
1863.000000
2732.000000
3544.000000
4372.000000
5213.000000
6154.000000
7224.000000
8256.000000
9236.000000
10166.000000
11076.000000
11933.000000
12787.000000
13591.000000
14385.000000
15191.000000
16036.000000
16965.000000
17935.000000
18897.000000
19821.000000
20734.000000
21587.000000
22457.000000
23341.000000
24198.000000
24984.000000
25773.000000
26631.000000
27521.000000
28431.000000
29289.000000
30184.000000
31101.000000
31948.000000
32832.000000
33738.000000
34572.000000
35424.000000
36308.000000
37140.000000
37998.000000
38879.000000
39705.000000
40558.000000
41418.000000
42235.000000
43093.000000
43996.000000
44844.000000
45735.000000
46613.000000
47444.000000
48317.000000
49188.000000
50030.000000
50916.000000
51811.000000
52661.000000
53557.000000
54453.000000
55312.000000
56178.000000
57024.000000
57848.000000
58727.000000
59622.000000
60483.000000
61380.000000
62249.000000
63112.000000
64009.000000
64866.000000
65752.000000
66676.000000
67537.000000
68437.000000
69309.000000
70148.000000
71028.000000
71891.000000
72746.000000
73639.000000
74518.000000
75405.000000
76319.000000
77220.000000
78171.000000
79150.000000
80038.000000
80972.000000
81870.000000
82741.000000
83654.000000
84535.000000
85453.000000
86379.000000
87262.000000
88181.000000
89078.000000
89933.000000
90807.000000
91673.000000
92510.000000
93396.000000
94264.000000
95102.000000
95969.000000
96818.000000
97666.000000
98549.000000
99397.000000
100250.000000
101133.000000
101974.000000
102845.000000
103746.000000
104596.000000
105480.000000
106381.000000
107227.000000
108112.000000
108991.000000
109832.000000
110726.000000
111615.000000
112480.000000
113398.000000
114286.000000
115164.000000
116073.000000
116956.000000
117876.000000
118807.000000
119694.000000
120626.000000
121535.000000
122439.000000
123361.000000
124232.000000
125141.000000
126039.000000
126895.000000
127783.000000
128660.000000
129538.000000
130485.000000
131398.000000
132244.000000
133112.000000
133972.000000
134818.000000
135726.000000
136610.000000
137524.000000
138461.000000
139345.000000
140284.000000
141200.000000
142114.000000
143081.000000
143989.000000
144872.000000
145776.000000
146674.000000
147534.000000
148440.000000
149330.000000
150215.000000
151143.000000
152015.000000
152908.000000
153806.000000
154668.000000
155580.000000
156477.000000
157356.000000
158282.000000
159208.000000
160092.000000
161004.000000
161916.000000
162804.000000
163736.000000
164602.000000
165539.000000
166460.000000
167345.000000
168293.000000
169205.000000
170086.000000
170981.000000
171827.000000
172722.000000
173625.000000
174491.000000
175424.000000
176337.000000
177232.000000
178156.000000
179030.000000
179946.000000
180769.000000
181558.000000
182371.000000
183258.000000
184162.000000
185011.000000
185912.000000
186806.000000
187664.000000
188563.000000
189418.000000
190276.000000
191154.000000
192007.000000
192900.000000
193790.000000
194639.000000
195540.000000
196415.000000
197255.000000
198113.000000
198930.000000
199780.000000
200647.000000
201479.000000
202356.000000
203258.000000
204109.000000
205011.000000
205907.000000
206770.000000
207674.000000
208541.000000
209425.000000
210337.000000
211200.000000
212092.000000
212980.000000
213830.000000
214706.000000
215577.000000
216436.000000
217352.000000
218230.000000
219136.000000
220050.000000
220904.000000
221793.000000
222706.000000
223618.000000
224565.000000
225468.000000
226392.000000
227318.000000
228201.000000
229121.000000
230008.000000
230885.000000
231792.000000
232647.000000
233544.000000
234444.000000
235297.000000
236186.000000
237084.000000
237944.000000
238828.000000
239744.000000
240612.000000
241534.000000
242450.000000
243310.000000
244227.000000
245119.000000
246005.000000
246922.000000
247804.000000
248714.000000
249648.000000
250526.000000
251463.000000
252429.000000
253312.000000
254243.000000
255160.000000
256024.000000
256908.000000
257802.000000
258666.000000
259592.000000
260517.000000
261411.000000
262374.000000
263276.000000
264199.000000
265164.000000
266052.000000
266987.000000
267903.000000
268780.000000
269709.000000
270613.000000
271491.000000
272413.000000
273297.000000
274183.000000
275090.000000
275950.000000
276860.000000
277767.000000
278622.000000
279510.000000
280381.000000
281234.000000
282151.000000
283042.000000
283934.000000
284881.000000
285770.000000
286687.000000
287596.000000
288461.000000
289363.000000
290239.000000
291097.000000
291984.000000
292815.000000
293676.000000
294543.000000
295379.000000
296267.000000
297142.000000
298008.000000
298925.000000
299787.000000
300693.000000
301597.000000
302462.000000
303367.000000
304234.000000
305118.000000
305992.000000
306837.000000
307743.000000
308640.000000
309511.000000
310427.000000
311301.000000
312200.000000
313110.000000
313956.000000
314833.000000
315745.000000
316609.000000
317524.000000
318417.000000
319296.000000
320191.000000
321049.000000
321944.000000
322811.000000
323657.000000
324542.000000
325392.000000
326266.000000
327146.000000
327991.000000
328884.000000
329778.000000
330637.000000
331514.000000
332345.000000
333201.000000
334071.000000
334906.000000
335774.000000
336624.000000
337476.000000
338379.000000
339220.000000
340123.000000
341008.000000
341854.000000
342751.000000
343614.000000
344501.000000
345410.000000
346269.000000
347170.000000
348073.000000
348930.000000
349745.000000
350527.000000
351332.000000
352151.000000
353011.000000
353857.000000
354736.000000
355617.000000
356459.000000
357334.000000
358209.000000
359051.000000
359927.000000
360783.000000
361636.000000
362503.000000
363350.000000
364232.000000
365108.000000
365936.000000
366804.000000
367683.000000
368520.000000
369418.000000
370325.000000
371188.000000
372101.000000
372982.000000
373850.000000
374750.000000
375592.000000
376482.000000
377353.000000
378207.000000
379105.000000
379997.000000
380849.000000
381742.000000
382630.000000
383484.000000
384363.000000
385265.000000
386111.000000
387002.000000
387889.000000
388741.000000
389638.000000
390519.000000
391366.000000
392266.000000
393155.000000
394016.000000
394909.000000
395776.000000
396605.000000
397472.000000
398302.000000
399145.000000
400031.000000
400890.000000
401787.000000
402650.000000
403493.000000
404374.000000
405201.000000
406050.000000
406944.000000
407788.000000
408668.000000
409544.000000
410393.000000
411290.000000
412208.000000
413083.000000
413999.000000
414892.000000
415762.000000
416669.000000
417556.000000
418424.000000
419336.000000
420206.000000
421063.000000
421935.000000
422770.000000
423640.000000
424514.000000
425353.000000
426223.000000
427070.000000
427918.000000
428800.000000
429643.000000
430503.000000
431360.000000
432185.000000
433029.000000
433845.000000
434681.000000
435467.000000
436221.000000
436993.000000
437809.000000
438662.000000
439497.000000
440413.000000
441328.000000
442177.000000
443072.000000
443930.000000
444757.000000
445609.000000
446424.000000
447291.000000
448161.000000
448994.000000
449877.000000
450722.000000
451591.000000
452492.000000
453332.000000
454209.000000
455076.000000
455927.000000
456808.000000
457640.000000
458493.000000
459356.000000
460208.000000
461113.000000
462002.000000
462864.000000
463826.000000
464741.000000
465634.000000
466552.000000
467424.000000
468332.000000
469205.000000
470050.000000
470912.000000
471767.000000
472614.000000
473474.000000
474312.000000
475196.000000
476048.000000
476893.000000
477785.000000
478640.000000
479548.000000
480414.000000
481265.000000
482154.000000
483012.000000
483891.000000
484759.000000
485603.000000
486497.000000
487367.000000
488290.000000
489183.000000
490036.000000
490937.000000
491789.000000
492664.000000
493535.000000
494367.000000
495239.000000
496080.000000
496929.000000
497792.000000
498639.000000
499540.000000
500426.000000
501272.000000
502140.000000
502971.000000
503820.000000
504673.000000
505501.000000
506377.000000
507216.000000
508064.000000
508944.000000
509774.000000
510637.000000
511508.000000
512354.000000
513229.000000
514101.000000
514934.000000
515813.000000
516669.000000
517519.000000
518390.000000
519217.000000
520071.000000
520922.000000
521754.000000
522622.000000
523457.000000
524291.000000
525135.000000
525945.000000
526789.000000
527627.000000
528446.000000
529310.000000
530148.000000
531034.000000
531892.000000
532728.000000
533597.000000
534436.000000
535285.000000
536135.000000
536970.000000
537834.000000
538696.000000
539535.000000
540402.000000
541236.000000
542079.000000
542941.000000
543771.000000
544631.000000
545482.000000
546312.000000
547169.000000
547989.000000
548828.000000
549669.000000
550471.000000
551306.000000
552147.000000
552955.000000
553787.000000
554607.000000
555452.000000
556303.000000
557116.000000
557973.000000
558816.000000
559638.000000
560503.000000
561338.000000
562176.000000
563044.000000
563865.000000
564714.000000
565586.000000
566423.000000
567284.000000
568130.000000
568971.000000
569823.000000
570654.000000
571517.000000
572355.000000
573177.000000
574043.000000
574894.000000
575719.000000
576579.000000
577418.000000
578289.000000
579162.000000
580001.000000
580867.000000
581694.000000
582528.000000
583365.000000
584171.000000
585015.000000
585869.000000
586701.000000
587562.000000
588372.000000
589189.000000
590012.000000
590816.000000
591661.000000
592511.000000
593336.000000
594188.000000
595011.000000
595852.000000
596698.000000
597522.000000
598381.000000
599214.000000
600051.000000
600895.000000
601707.000000
602570.000000
603442.000000
604298.000000
605174.000000
606007.000000
606846.000000
607678.000000
608487.000000
609306.000000
610075.000000
610815.000000
611570.000000
612411.000000
613319.000000
614173.000000
615071.000000
615957.000000
616795.000000
617666.000000
618519.000000
619334.000000
620171.000000
620995.000000
621804.000000
622652.000000
623461.000000
624282.000000
625111.000000
625915.000000
626751.000000
627621.000000
628441.000000
629296.000000
630163.000000
630996.000000
631861.000000
632702.000000
633551.000000
634407.000000
635244.000000
636124.000000
637022.000000
637874.000000
638766.000000
639631.000000
640469.000000
641338.000000
642174.000000
643022.000000
643895.000000
644723.000000
645583.000000
646413.000000
647245.000000
648119.000000
648959.000000
649822.000000
650685.000000
651501.000000
652349.000000
653215.000000
654051.000000
654904.000000
655733.000000
656570.000000
657422.000000
658231.000000
659064.000000
659907.000000
660728.000000
661600.000000
662465.000000
663303.000000
664189.000000
665033.000000
665904.000000
666793.000000
667621.000000
668488.000000
669344.000000
670192.000000
671039.000000
671851.000000
672680.000000
673494.000000
674312.000000
675156.000000
675976.000000
676828.000000
677669.000000
678480.000000
679304.000000
680104.000000
680919.000000
681779.000000
682647.000000
683585.000000
684499.000000
685399.000000
686311.000000
687171.000000
688074.000000
688932.000000
689769.000000
690625.000000
691446.000000
692317.000000
693160.000000
694025.000000
694892.000000
695710.000000
696549.000000
697390.000000
698222.000000
699075.000000
699914.000000
700791.000000
701654.000000
702475.000000
703338.000000
704191.000000
705019.000000
705883.000000
706709.000000
707564.000000
708445.000000
709311.000000
710146.000000
711010.000000
711894.000000
712765.000000
713686.000000
714558.000000
715445.000000
716368.000000
717234.000000
718138.000000
719039.000000
719892.000000
720803.000000
721686.000000
722576.000000
723476.000000
724328.000000
725206.000000
726130.000000
726992.000000
727870.000000
728726.000000
729558.000000
730408.000000
731242.000000
732121.000000
732982.000000
733839.000000
734712.000000
735552.000000
736447.000000
737306.000000
738077.000000
738845.000000
739659.000000
740491.000000
741345.000000
742222.000000
743048.000000
743910.000000
744754.000000
745567.000000
746418.000000
747243.000000
748071.000000
748896.000000
749696.000000
750530.000000
751357.000000
752161.000000
753001.000000
753825.000000
754644.000000
755507.000000
756341.000000
757219.000000
758126.000000
758983.000000
759867.000000
760701.000000
761533.000000
762364.000000
763156.000000
763973.000000
764790.000000
765641.000000
766533.000000
767395.000000
768288.000000
769174.000000
770021.000000
770890.000000
771742.000000
772570.000000
773429.000000
774252.000000
775104.000000
775934.000000
776755.000000
777613.000000
778444.000000
779287.000000
780143.000000
780958.000000
781806.000000
782661.000000
783471.000000
784305.000000
785131.000000
785934.000000
786764.000000
787621.000000
788451.000000
789329.000000
790177.000000
790987.000000
791808.000000
792601.000000
793407.000000
794241.000000
795075.000000
795972.000000
796839.000000
797693.000000
798585.000000
799425.000000
800327.000000
801192.000000
802036.000000
802921.000000
803748.000000
804605.000000
805466.000000
806297.000000
807154.000000
807971.000000
808820.000000
809667.000000
810487.000000
811361.000000
812224.000000
813085.000000
813957.000000
814787.000000
815642.000000
816464.000000
817274.000000
818105.000000
818907.000000
819730.000000
820549.000000
821350.000000
822195.000000
823020.000000
823846.000000
824692.000000
825515.000000
826364.000000
827202.000000
828007.000000
828838.000000
829612.000000
830358.000000
831109.000000
831925.000000
832773.000000
833583.000000
834440.000000
835322.000000
836137.000000
836979.000000
837823.000000
838637.000000
839486.000000
840297.000000
841106.000000
841927.000000
842720.000000
843533.000000
844344.000000
845141.000000
845956.000000
846766.000000
847556.000000
848370.000000
849188.000000
850001.000000
850865.000000
851690.000000
852518.000000
853348.000000
854146.000000
854960.000000
855795.000000
856619.000000
857474.000000
858312.000000
859141.000000
859993.000000
860793.000000
861626.000000
862464.000000
863267.000000
864092.000000
864898.000000
865727.000000
866553.000000
867364.000000
868206.000000
869014.000000
869808.000000
870630.000000
871439.000000
872270.000000
873081.000000
873860.000000
874659.000000
875453.000000
876218.000000
877002.000000
877807.000000
878625.000000
879429.000000
880264.000000
881075.000000
881903.000000
882728.000000
883515.000000
884279.000000
885064.000000
885897.000000
886768.000000
887603.000000
888462.000000
889285.000000
890130.000000
890964.000000
891783.000000
892619.000000
893454.000000
894282.000000
895126.000000
895955.000000
896797.000000
897622.000000
898437.000000
899253.000000
900060.000000
900850.000000
901648.000000
902439.000000
903239.000000
904059.000000
904862.000000
905683.000000
906481.000000
907269.000000
908060.000000
908854.000000
909643.000000
910429.000000
911199.000000
912006.000000
912811.000000
913603.000000
914410.000000
915194.000000
915981.000000
916769.000000
917548.000000
918372.000000
919227.000000
920038.000000
920897.000000
