ECG (ms)
41.000000
1197.000000
2312.000000
3385.000000
4433.000000
5578.000000
6912.000000
8172.000000
9408.000000
10605.000000
11751.000000
12903.000000
14013.000000
15115.000000
16208.000000
17410.000000
18714.000000
19911.000000
21060.000000
22159.000000
23215.000000
24273.000000
25392.000000
26572.000000
27880.000000
29145.000000
30396.000000
31611.000000
32786.000000
33940.000000
35065.000000
36257.000000
37603.000000
38929.000000
40254.000000
41523.000000
42747.000000
43942.000000
45085.000000
46198.000000
47535.000000
48879.000000
50192.000000
51414.000000
52570.000000
53675.000000
54812.000000
55932.000000
57080.000000
58225.000000
59347.000000
60462.000000
61589.000000
62746.000000
63838.000000
64911.000000
65950.000000
66961.000000
68009.000000
69072.000000
70133.000000
71196.000000
72197.000000
73176.000000
74109.000000
75033.000000
76047.000000
77133.000000
78193.000000
79231.000000
80266.000000
81315.000000
82365.000000
83400.000000
84453.000000
85535.000000
86660.000000
87813.000000
88964.000000
90089.000000
91174.000000
92250.000000
93301.000000
94342.000000
95486.000000
96750.000000
97982.000000
99151.000000
100287.000000
101393.000000
102441.000000
103538.000000
104744.000000
105945.000000
107084.000000
108187.000000
109290.000000
110409.000000
111529.000000
112666.000000
113758.000000
114835.000000
115910.000000
117059.000000
118239.000000
119412.000000
120501.000000
121536.000000
122606.000000
123718.000000
124849.000000
125916.000000
126970.000000
128064.000000
129219.000000
130345.000000
131411.000000
132438.000000
133505.000000
134605.000000
135698.000000
136733.000000
137730.000000
138770.000000
139855.000000
140969.000000
142044.000000
143078.000000
144140.000000
145247.000000
146344.000000
147364.000000
148411.000000
149536.000000
150680.000000
151756.000000
152804.000000
153896.000000
155031.000000
156113.000000
157149.000000
158230.000000
159381.000000
160512.000000
161610.000000
162722.000000
163843.000000
164925.000000
165994.000000
167098.000000
168192.000000
169225.000000
170217.000000
171299.000000
172481.000000
173604.000000
174650.000000
175672.000000
176746.000000
177858.000000
178945.000000
180038.000000
181069.000000
182103.000000
183202.000000
184339.000000
185515.000000
186652.000000
187719.000000
188792.000000
189891.000000
190951.000000
192037.000000
193227.000000
194410.000000
195577.000000
196698.000000
197776.000000
198833.000000
199973.000000
201180.000000
202378.000000
203560.000000
204691.000000
205817.000000
206929.000000
208067.000000
209153.000000
210238.000000
211323.000000
212491.000000
213634.000000
214837.000000
216022.000000
217247.000000
218427.000000
219540.000000
220693.000000
221874.000000
223046.000000
224225.000000
225363.000000
226428.000000
227514.000000
228668.000000
229815.000000
230929.000000
232021.000000
233060.000000
234135.000000
235215.000000
236305.000000
237369.000000
238423.000000
239501.000000
240595.000000
241668.000000
242737.000000
243863.000000
245035.000000
246182.000000
247235.000000
248255.000000
249273.000000
250371.000000
251498.000000
252573.000000
253610.000000
254694.000000
255850.000000
256985.000000
258076.000000
259106.000000
260180.000000
261294.000000
262428.000000
263531.000000
264586.000000
265678.000000
266825.000000
267999.000000
269097.000000
270110.000000
271039.000000
271947.000000
273010.000000
274077.000000
275152.000000
276287.000000
277442.000000
278542.000000
279552.000000
280539.000000
281554.000000
282607.000000
283673.000000
284712.000000
285877.000000
287044.000000
288140.000000
289168.000000
290220.000000
291335.000000
292470.000000
293563.000000
294613.000000
295716.000000
296830.000000
297913.000000
298975.000000
300109.000000
301291.000000
302429.000000
303508.000000
304562.000000
305689.000000
306877.000000
307985.000000
309041.000000
310171.000000
311373.000000
312509.000000
313593.000000
314756.000000
315939.000000
317054.000000
318109.000000
319178.000000
320281.000000
321389.000000
322564.000000
323756.000000
324974.000000
326168.000000
327265.000000
328351.000000
329441.000000
330642.000000
331841.000000
332961.000000
334064.000000
335130.000000
336241.000000
337347.000000
338416.000000
339470.000000
340514.000000
341587.000000
342675.000000
343738.000000
344765.000000
345827.000000
346919.000000
348001.000000
348999.000000
349995.000000
351038.000000
352120.000000
353225.000000
354329.000000
355487.000000
356573.000000
357629.000000
358662.000000
359750.000000
360844.000000
361909.000000
362942.000000
363990.000000
365099.000000
366174.000000
367248.000000
368335.000000
369432.000000
370464.000000
371451.000000
372487.000000
373574.000000
374620.000000
375654.000000
376693.000000
377753.000000
378769.000000
379746.000000
380735.000000
381807.000000
382896.000000
383963.000000
385082.000000
386214.000000
387267.000000
388272.000000
389312.000000
390408.000000
391468.000000
392505.000000
393576.000000
394667.000000
395725.000000
396791.000000
397910.000000
399018.000000
400045.000000
401057.000000
402110.000000
403182.000000
404206.000000
405240.000000
406336.000000
407412.000000
408468.000000
409572.000000
410695.000000
411800.000000
412830.000000
413844.000000
414782.000000
415717.000000
416723.000000
417727.000000
418802.000000
419938.000000
421057.000000
422111.000000
423127.000000
424173.000000
425236.000000
426279.000000
427300.000000
428350.000000
429431.000000
430501.000000
431527.000000
432586.000000
433705.000000
434830.000000
435936.000000
437070.000000
438224.000000
439343.000000
440433.000000
441478.000000
442553.000000
443660.000000
444722.000000
445800.000000
446924.000000
448047.000000
449128.000000
450149.000000
451234.000000
452366.000000
453438.000000
454517.000000
455670.000000
456781.000000
457847.000000
458972.000000
460107.000000
461169.000000
462181.000000
463220.000000
464307.000000
465437.000000
466514.000000
467622.000000
468751.000000
469824.000000
470843.000000
471900.000000
472966.000000
474001.000000
475021.000000
476083.000000
477185.000000
478242.000000
479320.000000
480501.000000
481654.000000
482735.000000
483757.000000
484836.000000
485962.000000
487048.000000
488102.000000
489206.000000
490329.000000
491421.000000
492494.000000
493581.000000
494725.000000
495880.000000
496995.000000
498112.000000
499207.000000
500263.000000
501362.000000
502491.000000
503637.000000
504777.000000
505897.000000
507016.000000
508168.000000
509321.000000
510456.000000
511534.000000
512641.000000
513841.000000
514985.000000
516103.000000
517199.000000
518346.000000
519460.000000
520534.000000
521574.000000
522633.000000
523745.000000
524862.000000
525937.000000
526955.000000
527998.000000
529065.000000
530111.000000
531172.000000
532239.000000
533350.000000
534471.000000
535564.000000
536634.000000
537692.000000
538786.000000
539885.000000
540968.000000
542041.000000
543133.000000
544272.000000
545394.000000
546450.000000
547510.000000
548639.000000
549773.000000
550858.000000
551974.000000
553107.000000
554257.000000
555347.000000
556441.000000
557622.000000
558748.000000
559832.000000
560956.000000
562077.000000
563163.000000
564246.000000
565375.000000
566529.000000
567631.000000
568693.000000
569803.000000
570944.000000
572035.000000
573060.000000
574135.000000
575298.000000
576426.000000
577536.000000
578687.000000
579792.000000
580884.000000
581974.000000
583128.000000
584278.000000
585361.000000
586499.000000
587651.000000
588760.000000
589813.000000
590905.000000
592024.000000
593131.000000
594207.000000
595357.000000
596545.000000
597649.000000
598736.000000
599892.000000
601044.000000
602127.000000
603248.000000
604437.000000
605566.000000
606683.000000
607855.000000
608988.000000
610056.000000
611192.000000
612377.000000
613534.000000
614579.000000
615638.000000
616777.000000
617889.000000
618936.000000
620038.000000
621149.000000
622195.000000
623211.000000
624171.000000
625093.000000
626076.000000
627058.000000
628056.000000
629113.000000
630216.000000
631305.000000
632346.000000
633350.000000
634418.000000
635472.000000
636505.000000
637578.000000
638677.000000
639765.000000
640837.000000
641969.000000
643101.000000
644191.000000
645235.000000
646336.000000
647423.000000
648465.000000
649476.000000
650570.000000
651678.000000
652725.000000
653731.000000
654804.000000
655883.000000
656954.000000
657991.000000
659061.000000
660154.000000
661246.000000
662336.000000
663463.000000
664588.000000
665679.000000
666720.000000
667746.000000
668819.000000
669939.000000
671051.000000
672095.000000
673142.000000
674238.000000
675379.000000
676489.000000
677556.000000
678610.000000
679756.000000
680943.000000
682117.000000
683277.000000
684377.000000
685523.000000
686657.000000
687772.000000
688852.000000
689948.000000
691086.000000
692197.000000
693242.000000
694345.000000
695429.000000
696509.000000
697602.000000
698765.000000
699945.000000
701065.000000
702138.000000
703234.000000
704339.000000
705394.000000
706414.000000
707505.000000
708610.000000
709675.000000
710794.000000
711901.000000
712975.000000
714014.000000
715105.000000
716184.000000
717220.000000
718257.000000
719316.000000
720344.000000
721373.000000
722450.000000
723522.000000
724569.000000
725591.000000
726658.000000
727721.000000
728737.000000
729779.000000
730850.000000
731916.000000
732901.000000
733828.000000
734733.000000
735719.000000
736947.000000
738208.000000
739449.000000
740633.000000
741779.000000
742856.000000
743926.000000
745027.000000
746153.000000
747286.000000
748415.000000
749574.000000
750758.000000
751921.000000
753036.000000
754102.000000
755225.000000
756349.000000
757445.000000
758511.000000
759621.000000
760757.000000
761870.000000
762901.000000
763965.000000
765030.000000
766072.000000
767084.000000
768161.000000
769259.000000
770328.000000
771369.000000
772444.000000
773560.000000
774669.000000
775749.000000
776808.000000
777848.000000
778898.000000
779941.000000
780976.000000
782106.000000
783237.000000
784341.000000
785347.000000
786361.000000
787461.000000
788594.000000
789697.000000
790816.000000
792014.000000
793186.000000
794261.000000
795361.000000
796594.000000
797752.000000
798859.000000
800049.000000
801226.000000
802354.000000
803439.000000
804633.000000
805861.000000
807044.000000
808168.000000
809296.000000
810418.000000
811529.000000
812602.000000
813744.000000
814913.000000
816003.000000
817107.000000
818252.000000
819377.000000
820471.000000
821639.000000
822784.000000
823855.000000
824927.000000
826069.000000
827238.000000
828436.000000
829601.000000
830741.000000
831902.000000
833070.000000
834181.000000
835262.000000
836412.000000
837574.000000
838672.000000
839740.000000
840815.000000
842044.000000
843220.000000
844364.000000
845507.000000
846615.000000
847750.000000
848916.000000
850091.000000
851264.000000
852368.000000
853489.000000
854655.000000
855857.000000
856972.000000
858029.000000
859183.000000
860424.000000
861579.000000
862658.000000
863800.000000
865004.000000
866168.000000
867282.000000
868386.000000
869530.000000
870673.000000
871811.000000
872892.000000
874031.000000
875191.000000
876332.000000
877420.000000
878549.000000
879751.000000
880912.000000
882005.000000
883085.000000
884224.000000
885421.000000
886569.000000
887651.000000
888760.000000
889866.000000
890970.000000
892062.000000
893170.000000
894258.000000
895303.000000
896321.000000
