ECG (ms)
182.000000
783.000000
1380.000000
1984.000000
2612.000000
3264.000000
3913.000000
4561.000000
5223.000000
5876.000000
6525.000000
7185.000000
7833.000000
8477.000000
9128.000000
9784.000000
10427.000000
11073.000000
11725.000000
12369.000000
13022.000000
13690.000000
14362.000000
15008.000000
15650.000000
16300.000000
16936.000000
17579.000000
18225.000000
18864.000000
19502.000000
20157.000000
20817.000000
21465.000000
22111.000000
22761.000000
23405.000000
24038.000000
24675.000000
25318.000000
25961.000000
26595.000000
27235.000000
27876.000000
28503.000000
29123.000000
29739.000000
30356.000000
30971.000000
31590.000000
32211.000000
32852.000000
33495.000000
34150.000000
34813.000000
35490.000000
36160.000000
36834.000000
37507.000000
38177.000000
38823.000000
39463.000000
40101.000000
40741.000000
41368.000000
42002.000000
42640.000000
43284.000000
43927.000000
44580.000000
45237.000000
45889.000000
46539.000000
47204.000000
47865.000000
48519.000000
49171.000000
49825.000000
50461.000000
51095.000000
51734.000000
52375.000000
53010.000000
53646.000000
54287.000000
54932.000000
55575.000000
56213.000000
56859.000000
57491.000000
58116.000000
58745.000000
59380.000000
60019.000000
60658.000000
61319.000000
61998.000000
62672.000000
63341.000000
64016.000000
64682.000000
65341.000000
66004.000000
66675.000000
67339.000000
68002.000000
68673.000000
69340.000000
69992.000000
70653.000000
71321.000000
71992.000000
72660.000000
73332.000000
74022.000000
74699.000000
75383.000000
76062.000000
76739.000000
77397.000000
78047.000000
78717.000000
79388.000000
80046.000000
80700.000000
81368.000000
82035.000000
82693.000000
83361.000000
84032.000000
84687.000000
85339.000000
86002.000000
86671.000000
87336.000000
87993.000000
88650.000000
89291.000000
89918.000000
90541.000000
91171.000000
91805.000000
92440.000000
93083.000000
93721.000000
94359.000000
95003.000000
95654.000000
96317.000000
96979.000000
97630.000000
98281.000000
98936.000000
99593.000000
100238.000000
100878.000000
101526.000000
102188.000000
102841.000000
103497.000000
104168.000000
104847.000000
105516.000000
106179.000000
106846.000000
107514.000000
108179.000000
108832.000000
109483.000000
110150.000000
110821.000000
111477.000000
112138.000000
112806.000000
113482.000000
114141.000000
114801.000000
115459.000000
116120.000000
116771.000000
117435.000000
118098.000000
118742.000000
119385.000000
120035.000000
120697.000000
121359.000000
122009.000000
122651.000000
123296.000000
123940.000000
124584.000000
125227.000000
125873.000000
126538.000000
127191.000000
127825.000000
128455.000000
129074.000000
129688.000000
130308.000000
130924.000000
131532.000000
132142.000000
132756.000000
133377.000000
134002.000000
134630.000000
135266.000000
135894.000000
136524.000000
137161.000000
137802.000000
138434.000000
139066.000000
139700.000000
140339.000000
140969.000000
141611.000000
142258.000000
142926.000000
143599.000000
144274.000000
144955.000000
145635.000000
146294.000000
146951.000000
147610.000000
148265.000000
148909.000000
149557.000000
150215.000000
150870.000000
151523.000000
152175.000000
152828.000000
153470.000000
154115.000000
154767.000000
155423.000000
156065.000000
156718.000000
157394.000000
158060.000000
158730.000000
159395.000000
160052.000000
160696.000000
161342.000000
161994.000000
162633.000000
163274.000000
163939.000000
164602.000000
165256.000000
165917.000000
166582.000000
167239.000000
167901.000000
168566.000000
169223.000000
169867.000000
170512.000000
171158.000000
171798.000000
172429.000000
173066.000000
173697.000000
174319.000000
174941.000000
175565.000000
176184.000000
176796.000000
177412.000000
178034.000000
178667.000000
179318.000000
179975.000000
180620.000000
181260.000000
181900.000000
182529.000000
183156.000000
183788.000000
184421.000000
185052.000000
185679.000000
186312.000000
186932.000000
187542.000000
188144.000000
188729.000000
189302.000000
189872.000000
190446.000000
191024.000000
191610.000000
192211.000000
192825.000000
193441.000000
194063.000000
194695.000000
195328.000000
195957.000000
196581.000000
197200.000000
197829.000000
198459.000000
199077.000000
199695.000000
200313.000000
200936.000000
201557.000000
202175.000000
202786.000000
203401.000000
204022.000000
204646.000000
205264.000000
205880.000000
206496.000000
207115.000000
207730.000000
208338.000000
208950.000000
209568.000000
210190.000000
210799.000000
211404.000000
212013.000000
212625.000000
213236.000000
213844.000000
214464.000000
215093.000000
215727.000000
216351.000000
216974.000000
217594.000000
218215.000000
218827.000000
219434.000000
220042.000000
220653.000000
221264.000000
221869.000000
222473.000000
223089.000000
223708.000000
224331.000000
224960.000000
225599.000000
226238.000000
226877.000000
227517.000000
228166.000000
228804.000000
229436.000000
230066.000000
230697.000000
231313.000000
231931.000000
232552.000000
233171.000000
233784.000000
234398.000000
235017.000000
235646.000000
236275.000000
236922.000000
237584.000000
238262.000000
238934.000000
239601.000000
240268.000000
240923.000000
241578.000000
242233.000000
242882.000000
243516.000000
244147.000000
244783.000000
245414.000000
246043.000000
246676.000000
247313.000000
247939.000000
248563.000000
249190.000000
249818.000000
250438.000000
251061.000000
251681.000000
252290.000000
252899.000000
253510.000000
254125.000000
254743.000000
255364.000000
255997.000000
256639.000000
257270.000000
257901.000000
258534.000000
259155.000000
259770.000000
260384.000000
260996.000000
261600.000000
262202.000000
262811.000000
263426.000000
264036.000000
264648.000000
265271.000000
265907.000000
266542.000000
267177.000000
267810.000000
268449.000000
269085.000000
269719.000000
270363.000000
271018.000000
271661.000000
272300.000000
272941.000000
273585.000000
274220.000000
274855.000000
275491.000000
276132.000000
276767.000000
277402.000000
278042.000000
278698.000000
279344.000000
279996.000000
280649.000000
281292.000000
281923.000000
282546.000000
283166.000000
283776.000000
284384.000000
284993.000000
285612.000000
286223.000000
286833.000000
287456.000000
288084.000000
288712.000000
289346.000000
289986.000000
290624.000000
291255.000000
291880.000000
292501.000000
293106.000000
293712.000000
294322.000000
294938.000000
295552.000000
296171.000000
296803.000000
297445.000000
298089.000000
298735.000000
299396.000000
300072.000000
300738.000000
301390.000000
302043.000000
302695.000000
303322.000000
303949.000000
304572.000000
305199.000000
305823.000000
306444.000000
307069.000000
307703.000000
308327.000000
308954.000000
309588.000000
310216.000000
310840.000000
311466.000000
312095.000000
312714.000000
313320.000000
313924.000000
314523.000000
315117.000000
315717.000000
316324.000000
316934.000000
317545.000000
318164.000000
318796.000000
319428.000000
320054.000000
320684.000000
321312.000000
321938.000000
322558.000000
323177.000000
323800.000000
324423.000000
325051.000000
325683.000000
326321.000000
326952.000000
327584.000000
328221.000000
328860.000000
329499.000000
330133.000000
330752.000000
331361.000000
331961.000000
332562.000000
333164.000000
333769.000000
334383.000000
335019.000000
335676.000000
336344.000000
337033.000000
337729.000000
338404.000000
339076.000000
339746.000000
340397.000000
341043.000000
341689.000000
342332.000000
342967.000000
343607.000000
344251.000000
344892.000000
345534.000000
346183.000000
346831.000000
347472.000000
348122.000000
348779.000000
349446.000000
350109.000000
350776.000000
351454.000000
352120.000000
352783.000000
353442.000000
354105.000000
354756.000000
355401.000000
356048.000000
356698.000000
357338.000000
357984.000000
358643.000000
359310.000000
359972.000000
360639.000000
361317.000000
361984.000000
362644.000000
363305.000000
363962.000000
364607.000000
365251.000000
365909.000000
366573.000000
367230.000000
367885.000000
368547.000000
369222.000000
369882.000000
370545.000000
371208.000000
371854.000000
372496.000000
373145.000000
373807.000000
374476.000000
375147.000000
375825.000000
376510.000000
377180.000000
377845.000000
378513.000000
379180.000000
379838.000000
380496.000000
381154.000000
381790.000000
382419.000000
383054.000000
383692.000000
384329.000000
384957.000000
385582.000000
386215.000000
386860.000000
387500.000000
388121.000000
388732.000000
389341.000000
389956.000000
390577.000000
391189.000000
391795.000000
392395.000000
392998.000000
393604.000000
394203.000000
394804.000000
395409.000000
396011.000000
396605.000000
397195.000000
397782.000000
398368.000000
398958.000000
399542.000000
400122.000000
400701.000000
401285.000000
401873.000000
402458.000000
403047.000000
403646.000000
404251.000000
404855.000000
405454.000000
406052.000000
406656.000000
407269.000000
407875.000000
408488.000000
409117.000000
409759.000000
410398.000000
411033.000000
411670.000000
412308.000000
412929.000000
413551.000000
414172.000000
414805.000000
415441.000000
416074.000000
416712.000000
417362.000000
418004.000000
418654.000000
419311.000000
419979.000000
420642.000000
421293.000000
421938.000000
422584.000000
423227.000000
423858.000000
424488.000000
425125.000000
425768.000000
426414.000000
427068.000000
427728.000000
428385.000000
429045.000000
429711.000000
430381.000000
431037.000000
431688.000000
432341.000000
432992.000000
433634.000000
434284.000000
434936.000000
435576.000000
436214.000000
436859.000000
437510.000000
438149.000000
438792.000000
439440.000000
440082.000000
440717.000000
441357.000000
442005.000000
442642.000000
443273.000000
443913.000000
444554.000000
445192.000000
445840.000000
446496.000000
447140.000000
447788.000000
448445.000000
449097.000000
449756.000000
450413.000000
451059.000000
451718.000000
452378.000000
453021.000000
453667.000000
454320.000000
454982.000000
455642.000000
456312.000000
456997.000000
457663.000000
458329.000000
458983.000000
459645.000000
460326.000000
460993.000000
461664.000000
462342.000000
463013.000000
463698.000000
464391.000000
465083.000000
465800.000000
466509.000000
467201.000000
467890.000000
468571.000000
469228.000000
469883.000000
470535.000000
471191.000000
471837.000000
472484.000000
473140.000000
473818.000000
474494.000000
475165.000000
475845.000000
476505.000000
477179.000000
477839.000000
478488.000000
479116.000000
479732.000000
480345.000000
480962.000000
481584.000000
482219.000000
482869.000000
483528.000000
484202.000000
484910.000000
485607.000000
486290.000000
486983.000000
487664.000000
488330.000000
489002.000000
489651.000000
490288.000000
490929.000000
491575.000000
492210.000000
492854.000000
493512.000000
494169.000000
494825.000000
495487.000000
496149.000000
496798.000000
497447.000000
498098.000000
498741.000000
499378.000000
500012.000000
500651.000000
501290.000000
501924.000000
502559.000000
503200.000000
503852.000000
504494.000000
505135.000000
505782.000000
506432.000000
507067.000000
507703.000000
508345.000000
508996.000000
509651.000000
510301.000000
510946.000000
511594.000000
512247.000000
512909.000000
513569.000000
514224.000000
514883.000000
515545.000000
516194.000000
516834.000000
517480.000000
518133.000000
518789.000000
519438.000000
520104.000000
520778.000000
521448.000000
522112.000000
522799.000000
523486.000000
524155.000000
524821.000000
525493.000000
526145.000000
526791.000000
527437.000000
528096.000000
528749.000000
529415.000000
530107.000000
530818.000000
531516.000000
532218.000000
532927.000000
533630.000000
534319.000000
535009.000000
535701.000000
536363.000000
537017.000000
537674.000000
538327.000000
538968.000000
539620.000000
540290.000000
540963.000000
541636.000000
542328.000000
543051.000000
543742.000000
544425.000000
545124.000000
545802.000000
546467.000000
547141.000000
547813.000000
548473.000000
549128.000000
549789.000000
550456.000000
551108.000000
551768.000000
552442.000000
553112.000000
553773.000000
554443.000000
555113.000000
555778.000000
556424.000000
557068.000000
557717.000000
558367.000000
559009.000000
559661.000000
560319.000000
560966.000000
561617.000000
562267.000000
562919.000000
563560.000000
564194.000000
564830.000000
565464.000000
566092.000000
566722.000000
567366.000000
568017.000000
568661.000000
569313.000000
569976.000000
570633.000000
571292.000000
571949.000000
572615.000000
573266.000000
573912.000000
574563.000000
575212.000000
575850.000000
576496.000000
577165.000000
577857.000000
578554.000000
579263.000000
579983.000000
580705.000000
581418.000000
582137.000000
582861.000000
583574.000000
584285.000000
585006.000000
585734.000000
586436.000000
587127.000000
587812.000000
588496.000000
589195.000000
589899.000000
590581.000000
591275.000000
591987.000000
592662.000000
593333.000000
593997.000000
594671.000000
595340.000000
596007.000000
596661.000000
597310.000000
597961.000000
598603.000000
599262.000000
599921.000000
600588.000000
601293.000000
602034.000000
602774.000000
603495.000000
604218.000000
604935.000000
605630.000000
606314.000000
606989.000000
607664.000000
608326.000000
608976.000000
609632.000000
610292.000000
610942.000000
611582.000000
612225.000000
612886.000000
613547.000000
614199.000000
614857.000000
615522.000000
616177.000000
616832.000000
617488.000000
618143.000000
618778.000000
619416.000000
620049.000000
620671.000000
621293.000000
621924.000000
622557.000000
623180.000000
623807.000000
624444.000000
625082.000000
625708.000000
626335.000000
626957.000000
627571.000000
628183.000000
628799.000000
629426.000000
630047.000000
630671.000000
631301.000000
631935.000000
632558.000000
633182.000000
633811.000000
634442.000000
635067.000000
635691.000000
636315.000000
636934.000000
637546.000000
638159.000000
638779.000000
639393.000000
640002.000000
640613.000000
641229.000000
641841.000000
642451.000000
643066.000000
643683.000000
644290.000000
644894.000000
645497.000000
646101.000000
646698.000000
647298.000000
647902.000000
648506.000000
649110.000000
649717.000000
650332.000000
650944.000000
651559.000000
652179.000000
652810.000000
653433.000000
654054.000000
654679.000000
655298.000000
655916.000000
656540.000000
657167.000000
657791.000000
658418.000000
659052.000000
659674.000000
660302.000000
660927.000000
661535.000000
662130.000000
662711.000000
663276.000000
663839.000000
664410.000000
665000.000000
665613.000000
666255.000000
666914.000000
667606.000000
668318.000000
669020.000000
669731.000000
670433.000000
671113.000000
671783.000000
672452.000000
673092.000000
673729.000000
674366.000000
675014.000000
675651.000000
676285.000000
676943.000000
677615.000000
678268.000000
678921.000000
679574.000000
680226.000000
680874.000000
681522.000000
682172.000000
682808.000000
683447.000000
684093.000000
684740.000000
685376.000000
686014.000000
686653.000000
687283.000000
687905.000000
688529.000000
689151.000000
689762.000000
690364.000000
690966.000000
691580.000000
692196.000000
692815.000000
693438.000000
694065.000000
694686.000000
695308.000000
695932.000000
696571.000000
697207.000000
697841.000000
698476.000000
699129.000000
699798.000000
700458.000000
701113.000000
701773.000000
702429.000000
703078.000000
703725.000000
704381.000000
705042.000000
705695.000000
706355.000000
707018.000000
707673.000000
708323.000000
708970.000000
709611.000000
710242.000000
710877.000000
711524.000000
712170.000000
712816.000000
713480.000000
714159.000000
714820.000000
715480.000000
716160.000000
716847.000000
717514.000000
718180.000000
718858.000000
719534.000000
720197.000000
720856.000000
721524.000000
722192.000000
722856.000000
723520.000000
724196.000000
724862.000000
725522.000000
726187.000000
726847.000000
727497.000000
728151.000000
728812.000000
729470.000000
730135.000000
730811.000000
731504.000000
732192.000000
732887.000000
733595.000000
734292.000000
734976.000000
735662.000000
736359.000000
737039.000000
737731.000000
738418.000000
739083.000000
739759.000000
740444.000000
741137.000000
741836.000000
742544.000000
743249.000000
743937.000000
744619.000000
745304.000000
745966.000000
746623.000000
747286.000000
747946.000000
748594.000000
749252.000000
749914.000000
750563.000000
751212.000000
751868.000000
752521.000000
753165.000000
753815.000000
754473.000000
755127.000000
755777.000000
756437.000000
757102.000000
757758.000000
758408.000000
759072.000000
759733.000000
760391.000000
761056.000000
761726.000000
762383.000000
763047.000000
763707.000000
764373.000000
765029.000000
765692.000000
766361.000000
767020.000000
767673.000000
768336.000000
768996.000000
769659.000000
770339.000000
771022.000000
771696.000000
772374.000000
773070.000000
773759.000000
774434.000000
775107.000000
775789.000000
776472.000000
777156.000000
777856.000000
778578.000000
779290.000000
780012.000000
780747.000000
781481.000000
782194.000000
782889.000000
783580.000000
784269.000000
784953.000000
785636.000000
786334.000000
787061.000000
787778.000000
788493.000000
789223.000000
789935.000000
790640.000000
791344.000000
792047.000000
792738.000000
793423.000000
794117.000000
794821.000000
795498.000000
796176.000000
796869.000000
797571.000000
798264.000000
798958.000000
799653.000000
800333.000000
801008.000000
801684.000000
802374.000000
803053.000000
803735.000000
804431.000000
805126.000000
805801.000000
806469.000000
807148.000000
807800.000000
808438.000000
809074.000000
809704.000000
810325.000000
810947.000000
811579.000000
812216.000000
812856.000000
813509.000000
814176.000000
814835.000000
815488.000000
816143.000000
816804.000000
817442.000000
818084.000000
818728.000000
819363.000000
819987.000000
820612.000000
821242.000000
821869.000000
822494.000000
823123.000000
823757.000000
824388.000000
825012.000000
825637.000000
826270.000000
826909.000000
827541.000000
828161.000000
828783.000000
829417.000000
830062.000000
830702.000000
831351.000000
832011.000000
832677.000000
833328.000000
833986.000000
834645.000000
835315.000000
835975.000000
836648.000000
837333.000000
838021.000000
838702.000000
839398.000000
840094.000000
840772.000000
841453.000000
842145.000000
842835.000000
843515.000000
844201.000000
844885.000000
845564.000000
846241.000000
846931.000000
847619.000000
848298.000000
848979.000000
849664.000000
850326.000000
850984.000000
851644.000000
852313.000000
852963.000000
853617.000000
854277.000000
854934.000000
855595.000000
856280.000000
856977.000000
857654.000000
858338.000000
859038.000000
859726.000000
860397.000000
861068.000000
861748.000000
862425.000000
863092.000000
863769.000000
864449.000000
865121.000000
865790.000000
866468.000000
867157.000000
867835.000000
868514.000000
869199.000000
869880.000000
870549.000000
871226.000000
871910.000000
872586.000000
873262.000000
873952.000000
874647.000000
875328.000000
876005.000000
876687.000000
877375.000000
878045.000000
878720.000000
879403.000000
880101.000000
880779.000000
881456.000000
882145.000000
882841.000000
883523.000000
884205.000000
884897.000000
885598.000000
886270.000000
886937.000000
887606.000000
888281.000000
888947.000000
889614.000000
890290.000000
890977.000000
891647.000000
892316.000000
893000.000000
893693.000000
894370.000000
895040.000000
895711.000000
896383.000000
897047.000000
897713.000000
898398.000000
899094.000000
899771.000000
900450.000000
901131.000000
901799.000000
902453.000000
903107.000000
903767.000000
904422.000000
905077.000000
905727.000000
906385.000000
907034.000000
907683.000000
908328.000000
908985.000000
909642.000000
910290.000000
910937.000000
911587.000000
912245.000000
912897.000000
913545.000000
914193.000000
914839.000000
915485.000000
916132.000000
916789.000000
917456.000000
918133.000000
918808.000000
919486.000000
920169.000000
920860.000000
921534.000000
922189.000000
922849.000000
923510.000000
924164.000000
924809.000000
925458.000000
926112.000000
926782.000000
927442.000000
928109.000000
928782.000000
929452.000000
930103.000000
930745.000000
931395.000000
932058.000000
932732.000000
933426.000000
934156.000000
934940.000000
935723.000000
936505.000000
937303.000000
938070.000000
938819.000000
939555.000000
940249.000000
940947.000000
941637.000000
942317.000000
942996.000000
943691.000000
944376.000000
945048.000000
945728.000000
946411.000000
947075.000000
947732.000000
948389.000000
949047.000000
949702.000000
950356.000000
951021.000000
951679.000000
952343.000000
953014.000000
953682.000000
954370.000000
955047.000000
955707.000000
956358.000000
957009.000000
957648.000000
958278.000000
958902.000000
959524.000000
960139.000000
960751.000000
961369.000000
962003.000000
962647.000000
963306.000000
963983.000000
964679.000000
965367.000000
966031.000000
966704.000000
967371.000000
968015.000000
968658.000000
969299.000000
969945.000000
970582.000000
971218.000000
971867.000000
972515.000000
973154.000000
973809.000000
974480.000000
975144.000000
975803.000000
976473.000000
977147.000000
977798.000000
978443.000000
979087.000000
979724.000000
980352.000000
980977.000000
981605.000000
982228.000000
982847.000000
983473.000000
984100.000000
984725.000000
985356.000000
986009.000000
986688.000000
987354.000000
988017.000000
988683.000000
989341.000000
989980.000000
990606.000000
991235.000000
991854.000000
992469.000000
993087.000000
993707.000000
994319.000000
994938.000000
995570.000000
996213.000000
996849.000000
997490.000000
998137.000000
998772.000000
999404.000000
1000040.000000
1000681.000000
1001306.000000
1001929.000000
1002548.000000
1003157.000000
1003752.000000
1004344.000000
1004936.000000
1005526.000000
1006123.000000
1006738.000000
1007365.000000
1008007.000000
1008659.000000
1009315.000000
1009968.000000
1010605.000000
1011246.000000
1011882.000000
1012511.000000
1013139.000000
1013773.000000
1014403.000000
1015026.000000
1015655.000000
1016299.000000
1016936.000000
1017571.000000
1018212.000000
1018859.000000
1019493.000000
1020122.000000
1020756.000000
1021391.000000
1022024.000000
1022660.000000
1023320.000000
1023991.000000
1024662.000000
1025326.000000
1025994.000000
1026663.000000
1027317.000000
1027970.000000
1028635.000000
1029306.000000
1029979.000000
1030660.000000
1031357.000000
1032069.000000
1032755.000000
1033430.000000
1034104.000000
1034787.000000
1035458.000000
1036132.000000
1036821.000000
1037535.000000
1038237.000000
1038931.000000
1039635.000000
1040336.000000
1041017.000000
1041692.000000
1042371.000000
1043042.000000
1043703.000000
1044354.000000
1045017.000000
1045687.000000
1046344.000000
1047007.000000
1047685.000000
1048370.000000
1049046.000000
1049729.000000
1050423.000000
1051114.000000
1051794.000000
1052466.000000
1053134.000000
1053784.000000
1054418.000000
1055049.000000
1055694.000000
1056353.000000
1057024.000000
1057714.000000
1058422.000000
1059113.000000
1059789.000000
1060478.000000
1061161.000000
1061826.000000
1062488.000000
1063155.000000
1063804.000000
1064442.000000
1065080.000000
1065721.000000
1066352.000000
1066974.000000
1067599.000000
1068234.000000
1068869.000000
1069505.000000
1070149.000000
1070806.000000
1071473.000000
1072131.000000
1072792.000000
1073463.000000
1074121.000000
1074768.000000
1075419.000000
1076075.000000
1076718.000000
1077349.000000
1077981.000000
1078622.000000
1079258.000000
1079889.000000
1080528.000000
1081174.000000
1081815.000000
1082452.000000
1083095.000000
1083737.000000
1084367.000000
1084993.000000
1085623.000000
1086255.000000
1086875.000000
1087492.000000
1088112.000000
1088746.000000
1089385.000000
1090015.000000
1090648.000000
1091295.000000
1091933.000000
1092559.000000
1093183.000000
1093807.000000
1094429.000000
1095050.000000
1095675.000000
1096321.000000
1096984.000000
1097640.000000
1098292.000000
1098950.000000
1099621.000000
1100270.000000
1100908.000000
1101551.000000
1102192.000000
1102821.000000
1103445.000000
1104078.000000
1104711.000000
1105333.000000
1105957.000000
1106589.000000
1107223.000000
1107853.000000
1108490.000000
1109128.000000
1109771.000000
1110402.000000
1111033.000000
1111672.000000
1112311.000000
1112942.000000
1113573.000000
1114206.000000
1114853.000000
1115498.000000
1116143.000000
1116793.000000
1117450.000000
1118112.000000
1118756.000000
1119390.000000
1120024.000000
1120657.000000
1121286.000000
1121913.000000
1122542.000000
1123174.000000
1123797.000000
1124410.000000
1125017.000000
1125632.000000
1126247.000000
1126857.000000
1127470.000000
1128092.000000
1128715.000000
1129341.000000
1129971.000000
1130606.000000
1131252.000000
1131891.000000
1132539.000000
1133191.000000
1133829.000000
1134462.000000
1135098.000000
1135738.000000
1136368.000000
1136997.000000
1137634.000000
1138264.000000
1138883.000000
1139503.000000
1140120.000000
1140731.000000
1141338.000000
1141947.000000
1142558.000000
1143164.000000
1143765.000000
1144371.000000
1144987.000000
1145595.000000
1146199.000000
1146809.000000
1147424.000000
1148031.000000
1148639.000000
1149252.000000
1149864.000000
1150476.000000
1151095.000000
1151724.000000
1152346.000000
1152965.000000
1153586.000000
1154204.000000
1154813.000000
1155420.000000
1156027.000000
1156633.000000
1157240.000000
1157848.000000
1158458.000000
1159069.000000
1159679.000000
1160301.000000
1160931.000000
1161564.000000
1162194.000000
1162832.000000
1163480.000000
1164120.000000
1164757.000000
1165401.000000
1166049.000000
1166686.000000
1167315.000000
1167946.000000
1168572.000000
1169192.000000
1169815.000000
1170445.000000
1171071.000000
1171699.000000
1172330.000000
1172969.000000
1173599.000000
1174221.000000
1174844.000000
1175471.000000
1176093.000000
1176710.000000
1177330.000000
1177965.000000
1178609.000000
1179255.000000
1179911.000000
1180584.000000
1181272.000000
1181954.000000
1182634.000000
1183314.000000
1183976.000000
1184617.000000
1185266.000000
1185917.000000
1186554.000000
1187187.000000
1187820.000000
1188455.000000
1189090.000000
1189713.000000
1190336.000000
1190971.000000
1191610.000000
1192245.000000
1192886.000000
1193536.000000
1194195.000000
1194845.000000
1195496.000000
1196153.000000
1196807.000000
1197450.000000
1198096.000000
1198745.000000
1199384.000000
1200020.000000
1200654.000000
1201298.000000
1201945.000000
1202584.000000
1203227.000000
1203877.000000
1204539.000000
1205192.000000
1205854.000000
1206530.000000
1207208.000000
1207881.000000
1208558.000000
1209249.000000
1209915.000000
1210577.000000
1211236.000000
1211893.000000
1212527.000000
1213161.000000
1213794.000000
1214427.000000
1215058.000000
1215693.000000
1216337.000000
1216986.000000
1217634.000000
1218287.000000
1218953.000000
1219608.000000
1220251.000000
1220887.000000
1221526.000000
1222156.000000
1222784.000000
1223420.000000
1224064.000000
1224701.000000
1225341.000000
1225995.000000
1226658.000000
1227306.000000
1227955.000000
1228606.000000
1229259.000000
1229896.000000
1230524.000000
1231152.000000
1231778.000000
1232395.000000
1233012.000000
1233636.000000
1234264.000000
1234895.000000
1235530.000000
1236171.000000
1236805.000000
1237435.000000
1238064.000000
1238696.000000
1239322.000000
1239936.000000
1240552.000000
1241168.000000
1241778.000000
1242384.000000
1242993.000000
1243602.000000
1244208.000000
1244821.000000
1245448.000000
1246067.000000
1246676.000000
1247283.000000
1247891.000000
1248498.000000
1249101.000000
1249709.000000
1250326.000000
1250947.000000
1251569.000000
1252207.000000
1252853.000000
1253500.000000
1254144.000000
1254791.000000
1255453.000000
1256118.000000
1256767.000000
1257418.000000
1258068.000000
1258704.000000
1259328.000000
1259944.000000
1260560.000000
1261176.000000
1261788.000000
1262412.000000
1263062.000000
1263752.000000
1264493.000000
1265220.000000
1265943.000000
1266661.000000
1267346.000000
1268022.000000
1268698.000000
1269370.000000
1270029.000000
1270682.000000
1271339.000000
1272004.000000
1272659.000000
1273309.000000
1273951.000000
1274595.000000
1275236.000000
1275875.000000
1276521.000000
1277176.000000
1277837.000000
1278492.000000
1279140.000000
1279793.000000
1280426.000000
1281052.000000
1281678.000000
1282300.000000
1282917.000000
1283534.000000
1284151.000000
1284778.000000
1285405.000000
1286037.000000
1286671.000000
1287326.000000
1287989.000000
1288623.000000
1289232.000000
1289826.000000
1290406.000000
1290977.000000
1291546.000000
1292111.000000
1292683.000000
1293254.000000
1293823.000000
1294384.000000
1294945.000000
1295511.000000
1296089.000000
1296675.000000
1297271.000000
1297867.000000
1298466.000000
1299080.000000
1299712.000000
1300347.000000
1300974.000000
1301604.000000
1302241.000000
1302880.000000
1303511.000000
1304141.000000
1304774.000000
1305413.000000
1306051.000000
1306682.000000
1307317.000000
1307958.000000
1308589.000000
1309215.000000
1309836.000000
1310460.000000
1311084.000000
1311698.000000
1312311.000000
1312927.000000
1313553.000000
1314184.000000
1314817.000000
1315460.000000
1316110.000000
1316761.000000
1317403.000000
1318063.000000
1318721.000000
1319373.000000
1320024.000000
1320673.000000
1321320.000000
1321954.000000
1322583.000000
1323213.000000
1323840.000000
1324466.000000
1325088.000000
1325709.000000
1326349.000000
1327005.000000
1327666.000000
1328321.000000
1328974.000000
1329624.000000
1330256.000000
1330879.000000
1331499.000000
1332127.000000
1332757.000000
1333380.000000
1334004.000000
1334633.000000
1335276.000000
1335922.000000
1336565.000000
1337218.000000
1337871.000000
1338517.000000
1339154.000000
1339788.000000
1340428.000000
1341075.000000
1341712.000000
1342348.000000
1342988.000000
1343636.000000
1344276.000000
1344905.000000
1345535.000000
1346170.000000
1346797.000000
1347420.000000
1348045.000000
1348686.000000
1349339.000000
1349982.000000
1350632.000000
1351294.000000
1351964.000000
1352627.000000
1353297.000000
1353989.000000
1354704.000000
1355421.000000
1356134.000000
1356849.000000
1357549.000000
1358232.000000
1358915.000000
1359600.000000
1360280.000000
1360939.000000
1361595.000000
1362257.000000
1362919.000000
1363572.000000
1364226.000000
1364886.000000
1365552.000000
1366201.000000
1366854.000000
1367499.000000
1368134.000000
1368771.000000
1369407.000000
1370031.000000
1370654.000000
1371285.000000
1371934.000000
1372581.000000
1373223.000000
1373875.000000
1374539.000000
1375205.000000
1375870.000000
1376550.000000
1377222.000000
1377877.000000
1378527.000000
1379175.000000
1379823.000000
1380455.000000
1381080.000000
1381709.000000
1382341.000000
1382969.000000
1383602.000000
1384246.000000
1384897.000000
1385538.000000
1386177.000000
1386821.000000
1387466.000000
1388092.000000
1388710.000000
1389334.000000
1389955.000000
1390569.000000
1391184.000000
1391801.000000
1392427.000000
1393069.000000
1393716.000000
1394362.000000
1395011.000000
1395675.000000
1396346.000000
1397009.000000
1397676.000000
1398344.000000
1399005.000000
1399657.000000
1400304.000000
1400964.000000
1401626.000000
1402274.000000
1402922.000000
1403580.000000
1404243.000000
1404890.000000
1405533.000000
1406173.000000
1406821.000000
1407475.000000
1408119.000000
1408764.000000
1409415.000000
1410060.000000
1410694.000000
1411322.000000
1411960.000000
1412597.000000
1413235.000000
1413865.000000
1414500.000000
1415145.000000
1415807.000000
1416461.000000
1417102.000000
1417736.000000
1418374.000000
1419015.000000
1419647.000000
1420279.000000
1420917.000000
1421561.000000
1422192.000000
1422819.000000
1423446.000000
1424079.000000
1424705.000000
1425323.000000
1425942.000000
1426570.000000
1427198.000000
1427819.000000
1428440.000000
1429066.000000
1429691.000000
1430315.000000
1430945.000000
1431579.000000
1432223.000000
1432865.000000
1433510.000000
1434169.000000
1434849.000000
1435537.000000
1436229.000000
1436936.000000
1437650.000000
1438368.000000
1439067.000000
1439761.000000
1440463.000000
1441156.000000
1441830.000000
1442512.000000
1443200.000000
1443880.000000
1444553.000000
1445229.000000
1445920.000000
1446604.000000
1447280.000000
1447960.000000
1448645.000000
1449328.000000
1450006.000000
1450695.000000
1451410.000000
1452117.000000
1452816.000000
1453514.000000
1454216.000000
1454897.000000
1455577.000000
1456268.000000
1456976.000000
1457665.000000
1458341.000000
1459011.000000
1459667.000000
1460321.000000
1460976.000000
1461647.000000
1462325.000000
1463003.000000
1463685.000000
1464383.000000
1465069.000000
1465735.000000
1466407.000000
1467086.000000
1467756.000000
1468428.000000
1469110.000000
1469799.000000
1470478.000000
1471151.000000
1471832.000000
1472528.000000
1473229.000000
1473925.000000
1474629.000000
1475342.000000
1476037.000000
1476722.000000
1477409.000000
1478103.000000
1478780.000000
1479456.000000
1480134.000000
1480819.000000
1481511.000000
1482205.000000
1482912.000000
1483601.000000
1484269.000000
1484934.000000
1485602.000000
1486264.000000
1486919.000000
1487569.000000
1488222.000000
1488878.000000
1489527.000000
1490185.000000
1490856.000000
1491532.000000
1492207.000000
1492882.000000
1493574.000000
1494259.000000
1494923.000000
1495581.000000
1496243.000000
1496882.000000
1497506.000000
1498126.000000
1498751.000000
1499377.000000
1500005.000000
1500638.000000
1501281.000000
1501938.000000
1502612.000000
1503275.000000
1503939.000000
1504621.000000
1505306.000000
1505979.000000
1506643.000000
1507311.000000
1507984.000000
1508656.000000
1509320.000000
1509987.000000
1510655.000000
1511306.000000
1511958.000000
1512611.000000
1513268.000000
1513914.000000
1514556.000000
1515193.000000
1515831.000000
1516463.000000
1517096.000000
1517734.000000
1518387.000000
1519053.000000
1519725.000000
1520397.000000
1521086.000000
1521768.000000
1522437.000000
1523112.000000
1523793.000000
1524480.000000
1525154.000000
1525825.000000
1526504.000000
1527182.000000
1527864.000000
1528534.000000
1529194.000000
1529859.000000
1530524.000000
1531181.000000
1531831.000000
1532483.000000
1533139.000000
1533800.000000
1534459.000000
1535112.000000
1535755.000000
1536405.000000
1537059.000000
1537706.000000
1538348.000000
1538996.000000
1539646.000000
1540297.000000
1540941.000000
1541586.000000
1542246.000000
1542905.000000
1543560.000000
1544210.000000
1544869.000000
1545530.000000
1546181.000000
1546846.000000
1547529.000000
1548202.000000
1548874.000000
1549554.000000
1550244.000000
1550927.000000
1551598.000000
1552268.000000
1552941.000000
1553597.000000
1554248.000000
1554900.000000
1555551.000000
1556195.000000
1556837.000000
1557484.000000
1558124.000000
1558754.000000
1559387.000000
1560032.000000
1560690.000000
1561321.000000
1561941.000000
1562551.000000
1563144.000000
1563727.000000
1564313.000000
1564912.000000
1565519.000000
1566132.000000
1566748.000000
1567372.000000
1568006.000000
1568632.000000
1569259.000000
1569895.000000
1570541.000000
1571180.000000
1571819.000000
1572465.000000
1573113.000000
1573755.000000
1574429.000000
1575135.000000
1575883.000000
1576635.000000
1577377.000000
1578085.000000
1578764.000000
1579418.000000
1580050.000000
1580683.000000
1581318.000000
1581954.000000
1582595.000000
1583249.000000
1583910.000000
1584588.000000
1585273.000000
1585949.000000
1586628.000000
1587299.000000
1587968.000000
1588635.000000
1589312.000000
1589986.000000
1590649.000000
1591303.000000
1591951.000000
1592609.000000
1593270.000000
1593937.000000
1594596.000000
1595248.000000
1595892.000000
1596542.000000
1597196.000000
1597851.000000
1598497.000000
1599134.000000
1599770.000000
1600413.000000
1601068.000000
1601734.000000
1602412.000000
1603105.000000
1603809.000000
1604524.000000
1605263.000000
1605991.000000
1606693.000000
1607374.000000
1608035.000000
1608686.000000
1609342.000000
1609995.000000
1610657.000000
1611309.000000
1611956.000000
1612605.000000
1613264.000000
1613928.000000
1614581.000000
1615236.000000
1615890.000000
1616561.000000
1617254.000000
1617972.000000
1618666.000000
1619343.000000
1620008.000000
1620685.000000
1621356.000000
1622016.000000
1622661.000000
1623305.000000
1623957.000000
1624625.000000
1625293.000000
1625944.000000
1626584.000000
1627232.000000
1627887.000000
1628551.000000
1629206.000000
1629859.000000
1630514.000000
1631169.000000
1631806.000000
1632444.000000
1633083.000000
1633724.000000
1634353.000000
1634979.000000
1635608.000000
1636242.000000
1636871.000000
1637492.000000
1638102.000000
1638707.000000
1639307.000000
1639898.000000
1640490.000000
1641093.000000
1641712.000000
1642343.000000
1642969.000000
1643595.000000
1644240.000000
1644884.000000
1645518.000000
1646148.000000
1646779.000000
1647406.000000
1648027.000000
1648653.000000
1649288.000000
1649926.000000
1650552.000000
1651174.000000
1651794.000000
1652410.000000
1653019.000000
1653629.000000
1654241.000000
1654854.000000
1655464.000000
1656080.000000
1656705.000000
1657327.000000
1657946.000000
1658566.000000
1659183.000000
1659798.000000
1660407.000000
1661015.000000
1661618.000000
1662218.000000
1662811.000000
1663404.000000
1664007.000000
1664616.000000
1665248.000000
1665887.000000
1666538.000000
1667199.000000
1667865.000000
1668532.000000
1669202.000000
1669886.000000
1670577.000000
1671249.000000
1671911.000000
1672573.000000
1673231.000000
1673878.000000
1674534.000000
1675193.000000
1675877.000000
1676571.000000
1677266.000000
1677972.000000
1678689.000000
1679414.000000
1680115.000000
1680824.000000
1681543.000000
1682235.000000
1682922.000000
1683614.000000
1684309.000000
1684992.000000
1685672.000000
1686364.000000
1687066.000000
1687742.000000
1688409.000000
1689080.000000
1689760.000000
1690429.000000
1691091.000000
1691766.000000
1692443.000000
1693120.000000
1693795.000000
1694491.000000
1695163.000000
1695828.000000
1696500.000000
1697173.000000
1697836.000000
1698490.000000
1699142.000000
1699803.000000
1700464.000000
1701122.000000
1701782.000000
1702452.000000
1703106.000000
1703752.000000
1704394.000000
1705043.000000
1705695.000000
1706341.000000
1706981.000000
1707622.000000
1708270.000000
1708915.000000
1709554.000000
1710192.000000
1710843.000000
1711494.000000
1712142.000000
1712786.000000
1713426.000000
1714072.000000
1714727.000000
1715376.000000
1716025.000000
1716691.000000
1717366.000000
1718027.000000
1718682.000000
1719340.000000
1720006.000000
1720666.000000
1721305.000000
1721937.000000
1722573.000000
1723210.000000
1723852.000000
1724494.000000
1725161.000000
1725848.000000
1726535.000000
1727219.000000
1727911.000000
1728599.000000
1729262.000000
1729915.000000
1730570.000000
1731229.000000
1731886.000000
1732527.000000
1733163.000000
1733801.000000
1734440.000000
1735071.000000
1735705.000000
1736346.000000
1737009.000000
1737676.000000
1738350.000000
1739028.000000
1739715.000000
1740385.000000
1741044.000000
1741707.000000
1742369.000000
1743019.000000
1743664.000000
1744317.000000
1744977.000000
1745631.000000
1746284.000000
1746949.000000
1747621.000000
1748286.000000
1748948.000000
1749614.000000
1750282.000000
1750935.000000
1751588.000000
1752243.000000
1752910.000000
1753572.000000
1754235.000000
1754907.000000
1755582.000000
1756238.000000
1756891.000000
1757543.000000
1758193.000000
1758840.000000
1759486.000000
1760137.000000
1760785.000000
1761423.000000
1762070.000000
1762711.000000
1763346.000000
1763974.000000
1764603.000000
1765239.000000
1765878.000000
1766527.000000
1767181.000000
1767840.000000
1768516.000000
1769194.000000
1769836.000000
1770471.000000
1771086.000000
1771682.000000
1772277.000000
1772882.000000
1773502.000000
1774141.000000
1774790.000000
1775458.000000
1776152.000000
1776841.000000
1777524.000000
1778219.000000
1778929.000000
1779621.000000
1780341.000000
1781075.000000
1781818.000000
1782574.000000
1783341.000000
1784090.000000
1784827.000000
1785565.000000
1786294.000000
1787012.000000
1787726.000000
1788443.000000
1789146.000000
1789835.000000
1790519.000000
1791199.000000
1791862.000000
1792520.000000
1793182.000000
1793864.000000
1794543.000000
1795214.000000
1795887.000000
1796571.000000
1797265.000000
1797956.000000
1798635.000000
