ECG (ms)
835.000000
1778.000000
2706.000000
3629.000000
4501.000000
5343.000000
6220.000000
7126.000000
8021.000000
8928.000000
9861.000000
10776.000000
11733.000000
12676.000000
13605.000000
14519.000000
15383.000000
16302.000000
17235.000000
18165.000000
19026.000000
19853.000000
20757.000000
21692.000000
22620.000000
23605.000000
24594.000000
25559.000000
26523.000000
27452.000000
28299.000000
29102.000000
30000.000000
31059.000000
32111.000000
33085.000000
34111.000000
35187.000000
36209.000000
37230.000000
38297.000000
39315.000000
40258.000000
41200.000000
42186.000000
43160.000000
44082.000000
45002.000000
45975.000000
46960.000000
47877.000000
48738.000000
49631.000000
50607.000000
51591.000000
52500.000000
53353.000000
54268.000000
55228.000000
56184.000000
57070.000000
57864.000000
58665.000000
59699.000000
60704.000000
61673.000000
62570.000000
63441.000000
64364.000000
65360.000000
66319.000000
67191.000000
68068.000000
69020.000000
69985.000000
70892.000000
71829.000000
72798.000000
73748.000000
74628.000000
75465.000000
76323.000000
77209.000000
78117.000000
78992.000000
79840.000000
80745.000000
81685.000000
82609.000000
83511.000000
84437.000000
85420.000000
86368.000000
87256.000000
88131.000000
89060.000000
89999.000000
90912.000000
91797.000000
92725.000000
93695.000000
94644.000000
95536.000000
96431.000000
97358.000000
98289.000000
99174.000000
100044.000000
101008.000000
101991.000000
102958.000000
103883.000000
104723.000000
105434.000000
106153.000000
107294.000000
108316.000000
109295.000000
110150.000000
110835.000000
111498.000000
112180.000000
112986.000000
114070.000000
115054.000000
115955.000000
116782.000000
117547.000000
118405.000000
119447.000000
120485.000000
121460.000000
122397.000000
123261.000000
124053.000000
124806.000000
125717.000000
126608.000000
127565.000000
128479.000000
129299.000000
130243.000000
131216.000000
132221.000000
133156.000000
134001.000000
134781.000000
135739.000000
136798.000000
137833.000000
138756.000000
139579.000000
140521.000000
141508.000000
142474.000000
143416.000000
144276.000000
145120.000000
146129.000000
147134.000000
148086.000000
148956.000000
149765.000000
150721.000000
151738.000000
152719.000000
153680.000000
154638.000000
155546.000000
156384.000000
157196.000000
158169.000000
159236.000000
160234.000000
161192.000000
162149.000000
163083.000000
163990.000000
164783.000000
165623.000000
166611.000000
167528.000000
168416.000000
169319.000000
170243.000000
171154.000000
172011.000000
172813.000000
173693.000000
174699.000000
175726.000000
176718.000000
177627.000000
178480.000000
179244.000000
179990.000000
180783.000000
181637.000000
182649.000000
183689.000000
184669.000000
185518.000000
186295.000000
187001.000000
187683.000000
188353.000000
188989.000000
189598.000000
190229.000000
190865.000000
191532.000000
192501.000000
193371.000000
194182.000000
195009.000000
195809.000000
196595.000000
197305.000000
198076.000000
198810.000000
199615.000000
200639.000000
201661.000000
202614.000000
203518.000000
204396.000000
205262.000000
206122.000000
206983.000000
207862.000000
208764.000000
209678.000000
210607.000000
211531.000000
212434.000000
213332.000000
214211.000000
215099.000000
216002.000000
216896.000000
217796.000000
218668.000000
219534.000000
220409.000000
221377.000000
222374.000000
223377.000000
224378.000000
225318.000000
226178.000000
227026.000000
227988.000000
228996.000000
229992.000000
230971.000000
231884.000000
232741.000000
233597.000000
234533.000000
235557.000000
236543.000000
237528.000000
238485.000000
239418.000000
240313.000000
241174.000000
242022.000000
242894.000000
243846.000000
244864.000000
245875.000000
246861.000000
247821.000000
248749.000000
249611.000000
250480.000000
251422.000000
252363.000000
253279.000000
254168.000000
255047.000000
255946.000000
256804.000000
257624.000000
258454.000000
259321.000000
260279.000000
261288.000000
262294.000000
263267.000000
264215.000000
265148.000000
266022.000000
266859.000000
267728.000000
268675.000000
269667.000000
270633.000000
271578.000000
272520.000000
273424.000000
274278.000000
275133.000000
276025.000000
277028.000000
278067.000000
279066.000000
280032.000000
280988.000000
281894.000000
282748.000000
283597.000000
284490.000000
285469.000000
286451.000000
287408.000000
288356.000000
289251.000000
290102.000000
290923.000000
291724.000000
292579.000000
293557.000000
294559.000000
295524.000000
296485.000000
297428.000000
298340.000000
299197.000000
300032.000000
300877.000000
301776.000000
302740.000000
303734.000000
304682.000000
305639.000000
306594.000000
307534.000000
308417.000000
309260.000000
310085.000000
310945.000000
311906.000000
312906.000000
313867.000000
314829.000000
315746.000000
316644.000000
317532.000000
318437.000000
319407.000000
320398.000000
321384.000000
322365.000000
323304.000000
324197.000000
325062.000000
325931.000000
326878.000000
327908.000000
328931.000000
329925.000000
330909.000000
331840.000000
332724.000000
333553.000000
334329.000000
335353.000000
336420.000000
337496.000000
338518.000000
339517.000000
340476.000000
341374.000000
342227.000000
343018.000000
344028.000000
345052.000000
346035.000000
346991.000000
347917.000000
348791.000000
349636.000000
350444.000000
351455.000000
352447.000000
353389.000000
354309.000000
355186.000000
356014.000000
356882.000000
357829.000000
358820.000000
359881.000000
360919.000000
361909.000000
362884.000000
363853.000000
364776.000000
365650.000000
366497.000000
367383.000000
368344.000000
369361.000000
370361.000000
371330.000000
372288.000000
373233.000000
374120.000000
374971.000000
375845.000000
376802.000000
377850.000000
378892.000000
379895.000000
380840.000000
381715.000000
382577.000000
383513.000000
384500.000000
385485.000000
386466.000000
387443.000000
388387.000000
389290.000000
390185.000000
391165.000000
392166.000000
393142.000000
394096.000000
395006.000000
395865.000000
396707.000000
397568.000000
398529.000000
399564.000000
400591.000000
401578.000000
402552.000000
403522.000000
404513.000000
405476.000000
406401.000000
407298.000000
408197.000000
409115.000000
410092.000000
411123.000000
412171.000000
413169.000000
414128.000000
415032.000000
415890.000000
416768.000000
417772.000000
418833.000000
419865.000000
420857.000000
421793.000000
422694.000000
423591.000000
424543.000000
425562.000000
426570.000000
427553.000000
428498.000000
429381.000000
430232.000000
431096.000000
432005.000000
433003.000000
434024.000000
435041.000000
436023.000000
436994.000000
437904.000000
438774.000000
439675.000000
440641.000000
441627.000000
442594.000000
443492.000000
444333.000000
445122.000000
445948.000000
447018.000000
448047.000000
449046.000000
450011.000000
450970.000000
451905.000000
452789.000000
453620.000000
454458.000000
455392.000000
456421.000000
457439.000000
458440.000000
459427.000000
460371.000000
461253.000000
462104.000000
462964.000000
463952.000000
464976.000000
465986.000000
466985.000000
467961.000000
468893.000000
469763.000000
470592.000000
471430.000000
472391.000000
473424.000000
474438.000000
475421.000000
476397.000000
477322.000000
478210.000000
479098.000000
480033.000000
481019.000000
482027.000000
483019.000000
483987.000000
484960.000000
485920.000000
486845.000000
487777.000000
488680.000000
489538.000000
490376.000000
491211.000000
492093.000000
493081.000000
494070.000000
495007.000000
495932.000000
496845.000000
497750.000000
498654.000000
499556.000000
500473.000000
501343.000000
502189.000000
503029.000000
503907.000000
504948.000000
505993.000000
507011.000000
507960.000000
508860.000000
509733.000000
510612.000000
511548.000000
512576.000000
513591.000000
514581.000000
515525.000000
516434.000000
517322.000000
518215.000000
519169.000000
520232.000000
521331.000000
522396.000000
523408.000000
524349.000000
525233.000000
526068.000000
527044.000000
528097.000000
529152.000000
530204.000000
531222.000000
532196.000000
533141.000000
534049.000000
534970.000000
535950.000000
536979.000000
537986.000000
538973.000000
539916.000000
540830.000000
541718.000000
542636.000000
543614.000000
544615.000000
545594.000000
546561.000000
547488.000000
548360.000000
549225.000000
550165.000000
551149.000000
552152.000000
553129.000000
554093.000000
555076.000000
556015.000000
556833.000000
557525.000000
558233.000000
559038.000000
559721.000000
560397.000000
561100.000000
561888.000000
563061.000000
564118.000000
565134.000000
566085.000000
566960.000000
567738.000000
568493.000000
569590.000000
570642.000000
571690.000000
572693.000000
573630.000000
574533.000000
575398.000000
576311.000000
577233.000000
578146.000000
579065.000000
579936.000000
580756.000000
581589.000000
582506.000000
583492.000000
584476.000000
585417.000000
586322.000000
587204.000000
588134.000000
589086.000000
590020.000000
590942.000000
591852.000000
592751.000000
593616.000000
594499.000000
595485.000000
596520.000000
597526.000000
598527.000000
599490.000000
600415.000000
601308.000000
602179.000000
603053.000000
604008.000000
605065.000000
606108.000000
607131.000000
608106.000000
609014.000000
609880.000000
610755.000000
611711.000000
612743.000000
613748.000000
614740.000000
615695.000000
616590.000000
617468.000000
618416.000000
619417.000000
620402.000000
621391.000000
622404.000000
623419.000000
624394.000000
625290.000000
626167.000000
627018.000000
627959.000000
629001.000000
630015.000000
631015.000000
631949.000000
632846.000000
633763.000000
634734.000000
635725.000000
636714.000000
637698.000000
638658.000000
639610.000000
640542.000000
641456.000000
642336.000000
643224.000000
644181.000000
645142.000000
646110.000000
647071.000000
648000.000000
648955.000000
649914.000000
650879.000000
651812.000000
652686.000000
653602.000000
654570.000000
655530.000000
656486.000000
657452.000000
658355.000000
659302.000000
660251.000000
661199.000000
662157.000000
663114.000000
664076.000000
665036.000000
665953.000000
666822.000000
667686.000000
668644.000000
669681.000000
670696.000000
671674.000000
672613.000000
673518.000000
674433.000000
675425.000000
676495.000000
677558.000000
678574.000000
679570.000000
680513.000000
681414.000000
682288.000000
683182.000000
684174.000000
685177.000000
686159.000000
687092.000000
687973.000000
688877.000000
689871.000000
690876.000000
691859.000000
692785.000000
693744.000000
694673.000000
695472.000000
696183.000000
696971.000000
697835.000000
698590.000000
699384.000000
700651.000000
701788.000000
702893.000000
703944.000000
704942.000000
705898.000000
706821.000000
707683.000000
708441.000000
709196.000000
710311.000000
711311.000000
712373.000000
713440.000000
714433.000000
715378.000000
716232.000000
717038.000000
717817.000000
718666.000000
719682.000000
720645.000000
721562.000000
722393.000000
723221.000000
724005.000000
724775.000000
725598.000000
726478.000000
727406.000000
728403.000000
729389.000000
730356.000000
731295.000000
732166.000000
733028.000000
733933.000000
734855.000000
735728.000000
736595.000000
737528.000000
738520.000000
739514.000000
740467.000000
741438.000000
742440.000000
743428.000000
744360.000000
745280.000000
746257.000000
747256.000000
748245.000000
749221.000000
750182.000000
751131.000000
752075.000000
752977.000000
753853.000000
754703.000000
755603.000000
756589.000000
757595.000000
758622.000000
759614.000000
760553.000000
761437.000000
762283.000000
763142.000000
764114.000000
765170.000000
766204.000000
767209.000000
768199.000000
769178.000000
770125.000000
771004.000000
771861.000000
772740.000000
773717.000000
774719.000000
775718.000000
776698.000000
777629.000000
778524.000000
779389.000000
780285.000000
781281.000000
782350.000000
783434.000000
784497.000000
785524.000000
786527.000000
787519.000000
788512.000000
789504.000000
790488.000000
791477.000000
792462.000000
793437.000000
794399.000000
795329.000000
796217.000000
797085.000000
798002.000000
799012.000000
800084.000000
801127.000000
802149.000000
803146.000000
804116.000000
805025.000000
805887.000000
806754.000000
807669.000000
808666.000000
809727.000000
810790.000000
811810.000000
812794.000000
813718.000000
814541.000000
815306.000000
816228.000000
817289.000000
818303.000000
819286.000000
820232.000000
821137.000000
822023.000000
823049.000000
824073.000000
825033.000000
825975.000000
826907.000000
827800.000000
828647.000000
829537.000000
830571.000000
831611.000000
832612.000000
833572.000000
834500.000000
835431.000000
836392.000000
837363.000000
838314.000000
839263.000000
840203.000000
841122.000000
842014.000000
842869.000000
843730.000000
844684.000000
845673.000000
846655.000000
847628.000000
848572.000000
849481.000000
850419.000000
851386.000000
852350.000000
853312.000000
854242.000000
855142.000000
856032.000000
856919.000000
857812.000000
858731.000000
859649.000000
860535.000000
861404.000000
862322.000000
863265.000000
864165.000000
865095.000000
866013.000000
866941.000000
867828.000000
868765.000000
869714.000000
870611.000000
871503.000000
872373.000000
873338.000000
874331.000000
875295.000000
876307.000000
877278.000000
878184.000000
879082.000000
880080.000000
881152.000000
882165.000000
883149.000000
884135.000000
885121.000000
886108.000000
887091.000000
888050.000000
889001.000000
889949.000000
890886.000000
891831.000000
892782.000000
893771.000000
894799.000000
895827.000000
896818.000000
897775.000000
898732.000000
899708.000000
900637.000000
901510.000000
902353.000000
903188.000000
904107.000000
905099.000000
906134.000000
907182.000000
908175.000000
909103.000000
909954.000000
910674.000000
911403.000000
912238.000000
913137.000000
914318.000000
915327.000000
916243.000000
916983.000000
917653.000000
918304.000000
918946.000000
919588.000000
920424.000000
921489.000000
922503.000000
923417.000000
924155.000000
924856.000000
925954.000000
926954.000000
927900.000000
928742.000000
929446.000000
930138.000000
930962.000000
931923.000000
932911.000000
933786.000000
934542.000000
935334.000000
936042.000000
936747.000000
937461.000000
938298.000000
939399.000000
940431.000000
941428.000000
942398.000000
943307.000000
944149.000000
944876.000000
945665.000000
946687.000000
947745.000000
948733.000000
949678.000000
950523.000000
951278.000000
952003.000000
952700.000000
953479.000000
954345.000000
955395.000000
956468.000000
957482.000000
958440.000000
959338.000000
960214.000000
960997.000000
961701.000000
962388.000000
963147.000000
964222.000000
965195.000000
966193.000000
967190.000000
968168.000000
969118.000000
970045.000000
970904.000000
971627.000000
972348.000000
973144.000000
974236.000000
975285.000000
976328.000000
977319.000000
978211.000000
978977.000000
979753.000000
980749.000000
981776.000000
982807.000000
983795.000000
984717.000000
985557.000000
986353.000000
987205.000000
988048.000000
988914.000000
989827.000000
990687.000000
991539.000000
992475.000000
993475.000000
994516.000000
995559.000000
996555.000000
997524.000000
998465.000000
999307.000000
1000066.000000
1000812.000000
1001557.000000
1002384.000000
1003205.000000
1004019.000000
1005150.000000
1006177.000000
1007159.000000
1008091.000000
1009025.000000
1009946.000000
1010898.000000
1011839.000000
1012752.000000
1013697.000000
1014723.000000
1015745.000000
1016754.000000
1017770.000000
1018812.000000
1019861.000000
1020877.000000
1021828.000000
1022761.000000
1023655.000000
1024514.000000
1025380.000000
1026281.000000
1027307.000000
1028378.000000
1029443.000000
1030516.000000
1031551.000000
1032540.000000
1033572.000000
1034601.000000
1035581.000000
1036516.000000
1037407.000000
1038274.000000
1039134.000000
1040045.000000
1041057.000000
1042100.000000
1043141.000000
1044108.000000
1045003.000000
1045857.000000
1046706.000000
1047563.000000
1048517.000000
1049511.000000
1050457.000000
1051351.000000
1052183.000000
1053000.000000
1053692.000000
1054457.000000
1055285.000000
1056036.000000
1056745.000000
1057501.000000
1058359.000000
1059344.000000
1060321.000000
1061271.000000
1062066.000000
1062794.000000
1063596.000000
1064398.000000
1065254.000000
1066312.000000
1067316.000000
1068339.000000
1069373.000000
1070405.000000
1071427.000000
1072446.000000
1073423.000000
1074383.000000
1075356.000000
1076342.000000
1077315.000000
1078278.000000
1079223.000000
1080182.000000
1081128.000000
1082054.000000
1082972.000000
1083889.000000
1084835.000000
1085813.000000
1086805.000000
1087846.000000
1088910.000000
1089967.000000
1091017.000000
1092083.000000
1093140.000000
1094182.000000
1095177.000000
1096146.000000
1097030.000000
1097867.000000
1098731.000000
1099735.000000
1100719.000000
1101690.000000
1102645.000000
1103556.000000
1104439.000000
1105291.000000
1106177.000000
1107149.000000
1108132.000000
1109089.000000
1110046.000000
1111021.000000
1111995.000000
1112961.000000
1113909.000000
1114827.000000
1115711.000000
1116603.000000
1117546.000000
1118570.000000
1119610.000000
1120624.000000
1121603.000000
1122507.000000
1123342.000000
1124187.000000
1125162.000000
1126175.000000
1127178.000000
1128153.000000
1129053.000000
1129914.000000
1130854.000000
1131885.000000
1132904.000000
1133901.000000
1134854.000000
1135741.000000
1136620.000000
1137603.000000
1138615.000000
1139606.000000
1140595.000000
1141576.000000
1142511.000000
1143404.000000
1144311.000000
1145237.000000
1146243.000000
1147282.000000
1148320.000000
1149329.000000
1150257.000000
1151025.000000
1151726.000000
1152450.000000
1153262.000000
1154078.000000
1155138.000000
1156186.000000
1157171.000000
1158105.000000
1158959.000000
1159648.000000
1160291.000000
1161379.000000
1162384.000000
1163378.000000
1164420.000000
1165413.000000
1166277.000000
1167007.000000
1167889.000000
1168751.000000
1169546.000000
1170342.000000
1171097.000000
1171795.000000
1172532.000000
1173335.000000
1174074.000000
1174783.000000
1175449.000000
1176114.000000
1176877.000000
1177810.000000
1178666.000000
1179463.000000
1180319.000000
1181211.000000
1182193.000000
1183221.000000
1184240.000000
1185228.000000
1186179.000000
1187112.000000
1188053.000000
1188982.000000
1189892.000000
1190808.000000
1191703.000000
1192558.000000
1193371.000000
1194179.000000
1195030.000000
1195948.000000
1196955.000000
1198014.000000
1199052.000000
1199965.000000
1200816.000000
1201569.000000
1202294.000000
1203330.000000
1204347.000000
1205355.000000
1206350.000000
1207343.000000
1208303.000000
1209221.000000
1210076.000000
1210928.000000
1211797.000000
1212704.000000
1213614.000000
1214610.000000
1215659.000000
1216707.000000
1217772.000000
1218776.000000
1219745.000000
1220570.000000
1221353.000000
1222183.000000
1223180.000000
1224171.000000
1225132.000000
1225939.000000
1226686.000000
1227588.000000
1228442.000000
1229188.000000
1229874.000000
1230674.000000
1231494.000000
1232452.000000
1233314.000000
1234102.000000
1234822.000000
1235651.000000
1236633.000000
1237583.000000
1238482.000000
1239354.000000
1240167.000000
1240916.000000
1241725.000000
1242611.000000
1243617.000000
1244625.000000
1245624.000000
1246549.000000
1247465.000000
1248342.000000
1249204.000000
1250056.000000
1250909.000000
1251859.000000
1252892.000000
1253905.000000
1254859.000000
1255721.000000
1256625.000000
1257562.000000
1258494.000000
1259434.000000
1260373.000000
1261298.000000
1262209.000000
1263084.000000
1263985.000000
1264794.000000
1265478.000000
1266156.000000
1266944.000000
1267944.000000
1268899.000000
1269817.000000
1270712.000000
1271561.000000
1272452.000000
1273419.000000
1274359.000000
1275253.000000
1276053.000000
1276791.000000
1277535.000000
1278320.000000
1279316.000000
1280345.000000
1281347.000000
1282315.000000
1283315.000000
1284299.000000
1285246.000000
1286148.000000
1287012.000000
1287903.000000
1288855.000000
1289850.000000
1290798.000000
1291742.000000
1292656.000000
1293478.000000
1294158.000000
1294863.000000
1295600.000000
1296382.000000
1297203.000000
1298236.000000
1299313.000000
1300318.000000
1301325.000000
1302345.000000
1303345.000000
1304312.000000
1305203.000000
1306054.000000
1306889.000000
1307772.000000
1308779.000000
1309756.000000
1310558.000000
1311444.000000
1312373.000000
1313311.000000
1314252.000000
1315183.000000
1316070.000000
1316843.000000
1317719.000000
1318504.000000
1319356.000000
1320200.000000
1321009.000000
1321768.000000
1322499.000000
1323284.000000
1324109.000000
1325017.000000
1326049.000000
1327023.000000
1328058.000000
1329060.000000
1330070.000000
1331101.000000
1332049.000000
1332978.000000
1333754.000000
1334468.000000
1335132.000000
1335845.000000
1337002.000000
1338022.000000
1339035.000000
1339996.000000
1340952.000000
1341862.000000
1342762.000000
1343637.000000
1344496.000000
1345441.000000
1346311.000000
1347148.000000
1347958.000000
1348658.000000
1349353.000000
1350243.000000
1351118.000000
1352009.000000
1352945.000000
1353878.000000
1354783.000000
1355656.000000
1356486.000000
1357279.000000
1357970.000000
1358687.000000
1359701.000000
1360605.000000
1361454.000000
1362381.000000
1363308.000000
1364191.000000
1365080.000000
1365946.000000
1366777.000000
1367585.000000
1368529.000000
1369454.000000
1370352.000000
1371261.000000
1372182.000000
1373085.000000
1373910.000000
1374596.000000
1375277.000000
1376033.000000
1377080.000000
1377991.000000
1378828.000000
1379627.000000
1380487.000000
1381493.000000
1382503.000000
1383452.000000
1384366.000000
1385221.000000
1385996.000000
1386780.000000
1387749.000000
1388762.000000
1389774.000000
1390760.000000
1391704.000000
1392604.000000
1393427.000000
1394256.000000
1395112.000000
1396031.000000
1396959.000000
1397891.000000
1398851.000000
1399863.000000
1400870.000000
1401857.000000
1402795.000000
1403654.000000
1404458.000000
1405270.000000
1406165.000000
1407052.000000
1408087.000000
1409100.000000
1410106.000000
1411092.000000
1412050.000000
1413015.000000
1413905.000000
1414698.000000
1415494.000000
1416367.000000
1417293.000000
1418282.000000
1419312.000000
1420306.000000
1421334.000000
1422336.000000
1423306.000000
1424222.000000
1425107.000000
1426034.000000
1427032.000000
1428092.000000
1429116.000000
1430162.000000
1431132.000000
1432050.000000
1432940.000000
1433767.000000
1434653.000000
1435574.000000
1436483.000000
1437763.000000
1438908.000000
1439994.000000
1441054.000000
1442096.000000
1443097.000000
1444097.000000
1445071.000000
1446047.000000
1447018.000000
1447978.000000
1448922.000000
1449861.000000
1450790.000000
1451710.000000
1452671.000000
1453642.000000
1454584.000000
1455482.000000
1456323.000000
1457122.000000
1457952.000000
1458830.000000
1459871.000000
1460916.000000
1461925.000000
1462899.000000
1463822.000000
1464674.000000
1465368.000000
1466081.000000
1466801.000000
1467511.000000
1468206.000000
1468993.000000
1469938.000000
1470921.000000
1471982.000000
1472997.000000
1474024.000000
1475042.000000
1476009.000000
1476903.000000
1477710.000000
1478457.000000
1479561.000000
1480578.000000
1481628.000000
1482686.000000
1483707.000000
1484707.000000
1485694.000000
1486671.000000
1487641.000000
1488576.000000
1489435.000000
1490220.000000
1490941.000000
1491916.000000
1492807.000000
1493719.000000
1494916.000000
1496024.000000
1497087.000000
1498101.000000
1499065.000000
1499938.000000
1500719.000000
1501400.000000
1502107.000000
1503168.000000
1504159.000000
1505152.000000
1506132.000000
1507045.000000
1507875.000000
1508655.000000
1509375.000000
1510094.000000
1510977.000000
1512005.000000
1513020.000000
1513969.000000
1514902.000000
1515772.000000
1516572.000000
1517290.000000
1517986.000000
1518795.000000
1519876.000000
1520865.000000
1521831.000000
1522795.000000
1523713.000000
1524549.000000
1525339.000000
1526139.000000
1526988.000000
1527959.000000
1528985.000000
1529997.000000
1530986.000000
1531878.000000
1532667.000000
1533386.000000
1534051.000000
1535083.000000
1536041.000000
1536964.000000
1537881.000000
1538759.000000
1539618.000000
1540459.000000
1541293.000000
1542174.000000
1543153.000000
1544176.000000
1545194.000000
1546191.000000
1547151.000000
1548081.000000
1548977.000000
1549858.000000
1550745.000000
1551724.000000
1552762.000000
1553782.000000
1554779.000000
1555728.000000
1556616.000000
1557453.000000
1558282.000000
1559168.000000
1560162.000000
1561168.000000
1562144.000000
1563102.000000
1563998.000000
1564854.000000
1565713.000000
1566642.000000
1567645.000000
1568646.000000
1569623.000000
1570605.000000
1571527.000000
1572392.000000
1573229.000000
1574079.000000
1574945.000000
1575845.000000
1576752.000000
1577638.000000
1578488.000000
1579303.000000
1580112.000000
1580947.000000
1581867.000000
1582866.000000
1583963.000000
1585030.000000
1586005.000000
1586946.000000
1587899.000000
1588761.000000
1589617.000000
1590394.000000
1591113.000000
1591904.000000
1592780.000000
1593827.000000
1594863.000000
1595882.000000
1596871.000000
1597823.000000
1598739.000000
1599634.000000
1600520.000000
1601503.000000
1602559.000000
1603620.000000
1604651.000000
1605630.000000
1606586.000000
1607494.000000
1608379.000000
1609312.000000
1610309.000000
1611293.000000
1612259.000000
1613196.000000
1614115.000000
1614993.000000
1615884.000000
1616825.000000
1617847.000000
1618887.000000
1619939.000000
1620967.000000
1621957.000000
1622965.000000
1623958.000000
1624973.000000
1625966.000000
1626927.000000
1627848.000000
1628755.000000
1629675.000000
1630629.000000
1631636.000000
1632635.000000
1633649.000000
1634683.000000
1635730.000000
1636732.000000
1637769.000000
1638794.000000
1639804.000000
1640788.000000
1641782.000000
1642792.000000
1643806.000000
1644813.000000
1645824.000000
1646787.000000
1647681.000000
1648507.000000
1649304.000000
1650067.000000
1650915.000000
1652225.000000
1653366.000000
1654421.000000
1655375.000000
1656242.000000
1657076.000000
1657908.000000
1658770.000000
1659811.000000
1660865.000000
1661864.000000
1662860.000000
1663798.000000
1664683.000000
1665529.000000
1666367.000000
1667235.000000
1668215.000000
1669211.000000
1670189.000000
1671139.000000
1672037.000000
1672905.000000
1673754.000000
1674626.000000
1675593.000000
1676567.000000
1677533.000000
1678472.000000
1679368.000000
1680243.000000
1681137.000000
1682040.000000
1683023.000000
1684068.000000
1685088.000000
1686035.000000
1686958.000000
1687858.000000
1688703.000000
1689538.000000
1690366.000000
1691247.000000
1692205.000000
1693134.000000
1694015.000000
1694893.000000
1695699.000000
1696487.000000
1697233.000000
1698016.000000
1698898.000000
1699837.000000
1700679.000000
1701538.000000
1702345.000000
1703034.000000
1703708.000000
1704442.000000
1705298.000000
1706172.000000
1707017.000000
1707843.000000
1708621.000000
1709325.000000
1710018.000000
1710751.000000
1711784.000000
1712755.000000
1713608.000000
1714454.000000
1715386.000000
1716306.000000
1717234.000000
1718200.000000
1719138.000000
1720053.000000
1720933.000000
1721797.000000
1722686.000000
1723590.000000
1724475.000000
1725350.000000
1726213.000000
1727075.000000
1727929.000000
1728768.000000
1729635.000000
1730529.000000
1731422.000000
1732310.000000
1733222.000000
1734111.000000
1734959.000000
1735765.000000
1736491.000000
1737152.000000
1737800.000000
1738442.000000
1739356.000000
1740146.000000
1740982.000000
1741931.000000
1742844.000000
1743776.000000
1744733.000000
1745641.000000
1746498.000000
1747320.000000
1748142.000000
1749009.000000
1749958.000000
1750987.000000
1752014.000000
1753021.000000
1753979.000000
1754826.000000
1755625.000000
1756360.000000
1757154.000000
1758223.000000
1759248.000000
1760235.000000
1761206.000000
1762130.000000
1762985.000000
1763803.000000
1764598.000000
1765436.000000
1766460.000000
1767470.000000
1768460.000000
1769446.000000
1770408.000000
1771294.000000
1772117.000000
1772927.000000
1773767.000000
1774735.000000
1775721.000000
1776661.000000
1777593.000000
1778502.000000
1779368.000000
1780186.000000
1781002.000000
1781846.000000
1782809.000000
1783765.000000
1784733.000000
1785682.000000
1786622.000000
1787490.000000
1788320.000000
1789122.000000
1789963.000000
1790876.000000
1791831.000000
1792783.000000
1793749.000000
1794592.000000
1795359.000000
1796203.000000
1797059.000000
1797886.000000
1798629.000000
1799289.000000
1799943.000000
1800651.000000
1801559.000000
1802384.000000
1803141.000000
1803833.000000
1804480.000000
1805132.000000
1805849.000000
1806586.000000
1807472.000000
1808505.000000
1809479.000000
1810454.000000
1811410.000000
1812356.000000
1813298.000000
1814229.000000
1815155.000000
1816093.000000
1817039.000000
1818050.000000
1819085.000000
1820100.000000
1821092.000000
1822055.000000
1822984.000000
1823926.000000
1824883.000000
1825894.000000
1826897.000000
1827913.000000
1828903.000000
1829870.000000
1830780.000000
1831670.000000
1832612.000000
1833638.000000
1834617.000000
1835607.000000
1836571.000000
1837505.000000
1838444.000000
1839366.000000
1840328.000000
1841320.000000
1842323.000000
1843348.000000
1844353.000000
1845302.000000
1846207.000000
1847077.000000
1847940.000000
1848925.000000
1849907.000000
1850900.000000
1851931.000000
1852926.000000
1853956.000000
1855022.000000
1856053.000000
1857106.000000
1858127.000000
1859136.000000
1860109.000000
1861093.000000
