ECG (ms)
727.000000
1595.000000
2796.000000
3700.000000
4474.000000
5277.000000
6049.000000
6880.000000
7728.000000
8690.000000
9633.000000
10503.000000
11435.000000
12332.000000
13188.000000
14123.000000
15041.000000
15941.000000
16817.000000
17682.000000
18481.000000
19247.000000
20129.000000
21124.000000
22041.000000
22929.000000
23839.000000
24761.000000
25744.000000
26670.000000
27557.000000
28392.000000
29271.000000
30092.000000
30982.000000
31829.000000
32719.000000
33589.000000
34423.000000
35304.000000
36133.000000
36994.000000
37836.000000
38756.000000
39624.000000
40504.000000
41353.000000
42185.000000
43044.000000
43851.000000
44696.000000
45542.000000
46450.000000
47366.000000
48204.000000
49138.000000
49976.000000
50886.000000
51722.000000
52664.000000
53514.000000
54434.000000
55265.000000
56144.000000
56975.000000
57852.000000
58728.000000
59589.000000
60499.000000
61344.000000
62236.000000
63063.000000
63916.000000
64763.000000
65706.000000
66638.000000
67498.000000
68399.000000
69217.000000
70143.000000
70973.000000
71851.000000
72700.000000
73631.000000
74496.000000
75417.000000
76265.000000
77207.000000
78071.000000
79000.000000
79856.000000
80756.000000
81602.000000
82555.000000
83425.000000
84334.000000
85176.000000
86059.000000
86905.000000
87873.000000
88733.000000
89659.000000
90516.000000
91431.000000
92278.000000
93167.000000
94006.000000
94948.000000
95832.000000
96690.000000
97521.000000
98403.000000
99257.000000
100170.000000
101039.000000
101953.000000
102845.000000
103761.000000
104606.000000
105489.000000
106296.000000
107136.000000
107955.000000
108862.000000
109713.000000
110613.000000
111463.000000
112380.000000
113222.000000
114116.000000
114960.000000
115882.000000
116740.000000
117660.000000
118531.000000
119443.000000
120285.000000
121191.000000
122026.000000
122965.000000
123828.000000
124771.000000
125612.000000
126503.000000
127327.000000
128218.000000
129052.000000
129999.000000
130850.000000
131744.000000
132568.000000
133484.000000
134348.000000
135322.000000
136181.000000
137074.000000
137888.000000
138770.000000
139627.000000
140593.000000
141460.000000
142401.000000
143244.000000
144164.000000
144991.000000
145895.000000
146736.000000
147620.000000
148520.000000
149351.000000
150277.000000
151123.000000
152033.000000
152871.000000
153808.000000
154693.000000
155541.000000
156448.000000
157285.000000
158163.000000
159036.000000
159863.000000
160785.000000
161625.000000
162500.000000
163369.000000
164188.000000
165118.000000
165949.000000
166854.000000
167735.000000
168557.000000
169439.000000
170300.000000
171250.000000
172107.000000
173032.000000
173907.000000
174825.000000
175727.000000
176565.000000
177515.000000
178367.000000
179305.000000
180140.000000
181010.000000
181849.000000
182784.000000
183623.000000
184553.000000
185429.000000
186344.000000
187169.000000
188041.000000
188864.000000
189757.000000
190641.000000
191479.000000
192443.000000
193270.000000
194112.000000
194896.000000
195753.000000
196600.000000
197517.000000
198408.000000
199259.000000
200142.000000
200963.000000
201845.000000
202713.000000
203757.000000
204654.000000
205639.000000
206523.000000
207449.000000
208288.000000
209173.000000
210011.000000
210896.000000
211725.000000
212650.000000
213557.000000
214424.000000
215304.000000
216133.000000
217063.000000
217925.000000
218855.000000
219686.000000
220594.000000
221428.000000
222318.000000
223156.000000
224032.000000
224864.000000
225778.000000
226650.000000
227575.000000
228427.000000
229334.000000
230165.000000
231058.000000
231893.000000
232761.000000
233571.000000
234443.000000
235331.000000
236202.000000
237218.000000
238164.000000
239264.000000
240471.000000
241497.000000
242320.000000
243154.000000
243976.000000
245336.000000
246510.000000
247725.000000
248572.000000
249422.000000
250218.000000
251504.000000
252455.000000
253689.000000
254847.000000
255836.000000
256666.000000
257913.000000
259117.000000
260254.000000
261402.000000
262516.000000
263660.000000
264516.000000
265779.000000
266975.000000
268094.000000
269290.000000
270186.000000
271427.000000
272546.000000
273672.000000
274560.000000
275520.000000
276444.000000
277726.000000
278925.000000
280082.000000
281300.000000
282460.000000
283247.000000
283962.000000
284677.000000
286208.000000
287439.000000
288641.000000
289878.000000
291093.000000
292297.000000
293414.000000
294312.000000
295205.000000
296121.000000
297091.000000
298325.000000
299238.000000
300453.000000
301295.000000
302222.000000
303044.000000
303880.000000
305002.000000
306244.000000
307469.000000
308347.000000
309276.000000
310110.000000
311076.000000
312334.000000
313505.000000
314627.000000
315508.000000
316289.000000
317097.000000
317922.000000
318930.000000
319883.000000
320873.000000
321746.000000
322631.000000
323461.000000
324384.000000
325223.000000
326065.000000
326986.000000
327849.000000
328779.000000
329653.000000
330600.000000
331446.000000
332415.000000
333308.000000
334227.000000
335078.000000
335917.000000
336726.000000
337571.000000
338435.000000
339245.000000
340082.000000
340883.000000
341771.000000
342613.000000
343499.000000
344358.000000
345203.000000
346064.000000
346882.000000
347777.000000
348623.000000
349511.000000
350371.000000
351249.000000
352069.000000
352936.000000
353746.000000
354588.000000
355394.000000
356247.000000
357064.000000
357932.000000
358739.000000
359611.000000
360455.000000
361378.000000
362222.000000
363118.000000
363948.000000
364821.000000
365665.000000
366567.000000
367404.000000
368332.000000
369172.000000
370066.000000
370890.000000
371744.000000
372608.000000
373565.000000
374443.000000
375370.000000
376212.000000
377151.000000
377992.000000
378871.000000
379743.000000
380574.000000
381495.000000
382330.000000
383190.000000
384079.000000
384898.000000
385790.000000
386630.000000
387562.000000
388432.000000
389336.000000
390186.000000
391112.000000
391955.000000
392901.000000
393756.000000
394875.000000
396059.000000
397190.000000
398042.000000
398864.000000
399677.000000
400967.000000
402161.000000
403324.000000
404489.000000
405588.000000
406482.000000
407295.000000
408145.000000
409490.000000
410750.000000
411967.000000
413178.000000
414341.000000
415384.000000
416369.000000
417582.000000
418539.000000
419846.000000
421104.000000
422165.000000
423008.000000
423905.000000
424785.000000
426069.000000
427299.000000
428324.000000
429302.000000
430219.000000
431116.000000
432357.000000
433582.000000
434742.000000
435891.000000
436825.000000
437711.000000
438671.000000
439861.000000
441087.000000
442281.000000
443384.000000
444279.000000
445015.000000
445846.000000
446659.000000
447432.000000
448300.000000
449687.000000
450855.000000
451991.000000
453120.000000
454021.000000
454811.000000
455783.000000
456625.000000
457570.000000
458901.000000
460141.000000
461311.000000
462447.000000
463314.000000
464127.000000
465030.000000
465927.000000
467210.000000
468412.000000
469512.000000
470432.000000
471361.000000
472221.000000
473216.000000
474442.000000
475588.000000
476595.000000
477470.000000
478271.000000
479132.000000
479976.000000
480869.000000
481699.000000
482649.000000
483519.000000
484467.000000
485322.000000
486242.000000
487112.000000
488027.000000
488867.000000
489826.000000
490719.000000
491632.000000
492486.000000
493398.000000
494232.000000
495130.000000
495975.000000
496915.000000
497781.000000
498677.000000
499519.000000
500430.000000
501261.000000
502243.000000
503105.000000
503985.000000
504811.000000
505682.000000
506511.000000
507394.000000
508235.000000
509152.000000
509999.000000
510909.000000
511750.000000
512644.000000
513482.000000
514382.000000
515227.000000
516188.000000
517070.000000
518019.000000
518915.000000
519928.000000
520864.000000
521825.000000
522726.000000
523763.000000
524713.000000
525692.000000
526571.000000
527624.000000
528752.000000
529919.000000
530799.000000
531734.000000
532551.000000
533576.000000
534459.000000
535723.000000
536916.000000
537965.000000
538836.000000
539787.000000
540651.000000
541875.000000
543068.000000
544021.000000
545062.000000
546257.000000
547385.000000
548257.000000
549051.000000
550356.000000
551576.000000
552764.000000
553871.000000
554735.000000
555544.000000
556783.000000
557972.000000
559161.000000
560374.000000
561333.000000
562184.000000
563186.000000
564104.000000
565376.000000
566622.000000
567806.000000
568890.000000
569749.000000
570627.000000
571839.000000
572957.000000
573826.000000
574755.000000
575617.000000
576669.000000
577582.000000
578505.000000
579407.000000
580607.000000
581819.000000
582875.000000
583817.000000
584646.000000
585570.000000
586441.000000
587380.000000
588430.000000
589625.000000
590824.000000
591968.000000
592940.000000
593825.000000
594861.000000
596098.000000
597256.000000
598334.000000
599180.000000
599972.000000
601217.000000
602143.000000
603371.000000
604262.000000
605247.000000
606129.000000
607095.000000
608331.000000
609522.000000
610723.000000
611902.000000
613084.000000
614156.000000
614963.000000
616292.000000
617364.000000
618618.000000
619502.000000
620794.000000
621810.000000
622723.000000
623574.000000
624867.000000
626073.000000
627239.000000
628427.000000
629306.000000
630148.000000
631389.000000
632401.000000
633662.000000
634851.000000
636009.000000
637176.000000
638270.000000
639315.000000
640530.000000
641551.000000
642746.000000
643657.000000
644461.000000
645272.000000
646634.000000
647690.000000
648634.000000
649529.000000
650835.000000
652008.000000
653151.000000
654067.000000
654916.000000
655740.000000
656688.000000
657546.000000
658588.000000
659572.000000
660634.000000
661570.000000
662526.000000
663363.000000
664293.000000
665153.000000
666436.000000
667395.000000
668603.000000
669559.000000
670722.000000
671624.000000
672869.000000
674055.000000
674921.000000
675709.000000
677024.000000
678184.000000
679320.000000
680433.000000
681520.000000
682704.000000
683708.000000
684596.000000
685515.000000
686517.000000
687544.000000
688625.000000
689559.000000
690443.000000
691514.000000
692504.000000
693476.000000
694350.000000
695613.000000
696635.000000
697543.000000
698383.000000
699191.000000
699982.000000
700861.000000
701691.000000
702482.000000
703238.000000
704105.000000
705354.000000
706509.000000
707492.000000
708645.000000
709633.000000
710802.000000
711689.000000
712880.000000
713987.000000
715153.000000
715995.000000
716977.000000
717831.000000
719139.000000
720282.000000
721495.000000
722364.000000
723263.000000
724131.000000
725406.000000
726685.000000
727855.000000
729065.000000
730203.000000
731048.000000
731900.000000
732818.000000
734182.000000
735395.000000
736653.000000
737792.000000
739011.000000
740232.000000
741403.000000
742567.000000
743470.000000
744781.000000
745968.000000
747161.000000
748393.000000
749627.000000
750853.000000
752023.000000
753292.000000
754326.000000
755343.000000
756078.000000
756801.000000
758154.000000
759085.000000
760331.000000
761435.000000
762619.000000
763839.000000
764949.000000
766174.000000
767399.000000
768526.000000
769674.000000
770750.000000
771563.000000
772891.000000
774048.000000
775250.000000
776365.000000
777230.000000
778048.000000
779011.000000
780271.000000
781449.000000
782615.000000
783478.000000
784283.000000
785160.000000
785958.000000
786891.000000
787763.000000
789063.000000
790236.000000
791246.000000
792095.000000
792997.000000
793816.000000
795071.000000
795928.000000
796760.000000
797562.000000
798340.000000
799074.000000
799836.000000
801140.000000
802104.000000
802958.000000
803750.000000
804523.000000
805268.000000
805999.000000
806930.000000
807839.000000
808716.000000
809530.000000
810424.000000
811228.000000
812122.000000
812942.000000
814167.000000
815320.000000
816320.000000
817155.000000
817978.000000
818783.000000
819692.000000
820556.000000
821787.000000
822984.000000
823894.000000
824712.000000
825577.000000
826411.000000
827610.000000
828762.000000
829788.000000
830602.000000
831424.000000
832222.000000
833103.000000
833945.000000
834902.000000
835833.000000
836796.000000
837712.000000
838701.000000
839903.000000
841012.000000
841901.000000
842797.000000
843636.000000
844503.000000
845347.000000
846207.000000
847031.000000
848323.000000
849525.000000
850520.000000
851504.000000
852373.000000
853228.000000
854167.000000
855053.000000
856003.000000
856920.000000
858162.000000
859309.000000
860355.000000
861266.000000
862126.000000
863332.000000
864491.000000
865608.000000
866689.000000
867663.000000
868502.000000
869702.000000
870516.000000
871270.000000
872064.000000
872936.000000
873727.000000
874529.000000
875333.000000
876109.000000
876913.000000
877693.000000
878510.000000
879338.000000
880198.000000
881039.000000
881929.000000
882797.000000
883675.000000
884581.000000
885487.000000
886443.000000
887406.000000
888322.000000
889186.000000
890145.000000
891046.000000
891967.000000
892899.000000
893874.000000
894804.000000
895698.000000
896692.000000
897664.000000
898658.000000
899570.000000
900534.000000
