ECG (ms)
118.000000
794.000000
1485.000000
2123.000000
2774.000000
3450.000000
4193.000000
4906.000000
5581.000000
6305.000000
7006.000000
7693.000000
8367.000000
9087.000000
9777.000000
10441.000000
11081.000000
11725.000000
12372.000000
13021.000000
13663.000000
14345.000000
15099.000000
15808.000000
16449.000000
17110.000000
17738.000000
18329.000000
18912.000000
19523.000000
20176.000000
20898.000000
21641.000000
22328.000000
23030.000000
23718.000000
24368.000000
24991.000000
25618.000000
26263.000000
26972.000000
27639.000000
28347.000000
29137.000000
29904.000000
30602.000000
31300.000000
31979.000000
32633.000000
33287.000000
33980.000000
34726.000000
35435.000000
36122.000000
36829.000000
37530.000000
38177.000000
38834.000000
39509.000000
40170.000000
40822.000000
41485.000000
42150.000000
42815.000000
43464.000000
44121.000000
44805.000000
45509.000000
46164.000000
46793.000000
47430.000000
48083.000000
48713.000000
49323.000000
49927.000000
50502.000000
51142.000000
51818.000000
52471.000000
53164.000000
53840.000000
54491.000000
55141.000000
55795.000000
56432.000000
57052.000000
57703.000000
58455.000000
59165.000000
59872.000000
60584.000000
61295.000000
61953.000000
62619.000000
63320.000000
64009.000000
64692.000000
65380.000000
66076.000000
66747.000000
67395.000000
68059.000000
68740.000000
69384.000000
70047.000000
70729.000000
71388.000000
72019.000000
72665.000000
73308.000000
73931.000000
74538.000000
75169.000000
75844.000000
76531.000000
77180.000000
77836.000000
78478.000000
79108.000000
79716.000000
80314.000000
80929.000000
81567.000000
82208.000000
82867.000000
83521.000000
84159.000000
84773.000000
85359.000000
85923.000000
86474.000000
87049.000000
87641.000000
88238.000000
88831.000000
89509.000000
90220.000000
90885.000000
91536.000000
92175.000000
92839.000000
93487.000000
94108.000000
94739.000000
95373.000000
96006.000000
96615.000000
97227.000000
97856.000000
98510.000000
99158.000000
99840.000000
100522.000000
101230.000000
101874.000000
102525.000000
103187.000000
103883.000000
104536.000000
105173.000000
105829.000000
106498.000000
107161.000000
107798.000000
108494.000000
109241.000000
109956.000000
110594.000000
111238.000000
111862.000000
112475.000000
113084.000000
113743.000000
114416.000000
115121.000000
115781.000000
116429.000000
117100.000000
117781.000000
118429.000000
119049.000000
119665.000000
120293.000000
120900.000000
121505.000000
122112.000000
122746.000000
123370.000000
123977.000000
124587.000000
125194.000000
125769.000000
126332.000000
126905.000000
127485.000000
128061.000000
128656.000000
129274.000000
129870.000000
130461.000000
131047.000000
131640.000000
132258.000000
132878.000000
133471.000000
134074.000000
134717.000000
135389.000000
136043.000000
136676.000000
137309.000000
137946.000000
138587.000000
139214.000000
139820.000000
140404.000000
140972.000000
141530.000000
142085.000000
142666.000000
143286.000000
143884.000000
144453.000000
145064.000000
145695.000000
146304.000000
146918.000000
147540.000000
148181.000000
148784.000000
149384.000000
149979.000000
150591.000000
151195.000000
151812.000000
152410.000000
152995.000000
153590.000000
154211.000000
154861.000000
155507.000000
156151.000000
156823.000000
157530.000000
158181.000000
158830.000000
159506.000000
160193.000000
160835.000000
161488.000000
162163.000000
162886.000000
163567.000000
164304.000000
165044.000000
165744.000000
166492.000000
167233.000000
168001.000000
168678.000000
169366.000000
170031.000000
170720.000000
171377.000000
172047.000000
172752.000000
173574.000000
174318.000000
175113.000000
175963.000000
176733.000000
177451.000000
178128.000000
178780.000000
179425.000000
180085.000000
180830.000000
181611.000000
182386.000000
183134.000000
183913.000000
184605.000000
185263.000000
185881.000000
186483.000000
187132.000000
187778.000000
188452.000000
189155.000000
189862.000000
190556.000000
191257.000000
191951.000000
192653.000000
193292.000000
193925.000000
194554.000000
195190.000000
195830.000000
196463.000000
197132.000000
197883.000000
198580.000000
199247.000000
199921.000000
200588.000000
201242.000000
201874.000000
202521.000000
203223.000000
203864.000000
204488.000000
205110.000000
205774.000000
206464.000000
207124.000000
207842.000000
208592.000000
209352.000000
210059.000000
210758.000000
211444.000000
212119.000000
212754.000000
213406.000000
214106.000000
214896.000000
215610.000000
216314.000000
217044.000000
217771.000000
218466.000000
219172.000000
219880.000000
220563.000000
221221.000000
221897.000000
222627.000000
223337.000000
224011.000000
224690.000000
225353.000000
226010.000000
226621.000000
227260.000000
227912.000000
228560.000000
229216.000000
229939.000000
230616.000000
231256.000000
231898.000000
232579.000000
233318.000000
233986.000000
234668.000000
235348.000000
236018.000000
236661.000000
237314.000000
237978.000000
238634.000000
239284.000000
239979.000000
240702.000000
241398.000000
242036.000000
242675.000000
243320.000000
243969.000000
244609.000000
245288.000000
246035.000000
246761.000000
247464.000000
248221.000000
248949.000000
249627.000000
250276.000000
250919.000000
251558.000000
252188.000000
252825.000000
253495.000000
254207.000000
254893.000000
255551.000000
256253.000000
256948.000000
257597.000000
258248.000000
258912.000000
259587.000000
260214.000000
260828.000000
261414.000000
262020.000000
262675.000000
263312.000000
263944.000000
264592.000000
265279.000000
265975.000000
266625.000000
267309.000000
268005.000000
268701.000000
269351.000000
269998.000000
270664.000000
271360.000000
272038.000000
272724.000000
273444.000000
274152.000000
274820.000000
275468.000000
276100.000000
276787.000000
277521.000000
278296.000000
278975.000000
279608.000000
280250.000000
280896.000000
281581.000000
282278.000000
283017.000000
283716.000000
284407.000000
285085.000000
285767.000000
286437.000000
287137.000000
287896.000000
288706.000000
289455.000000
290181.000000
290896.000000
291575.000000
292241.000000
292961.000000
293704.000000
294395.000000
295096.000000
295803.000000
296508.000000
297157.000000
297826.000000
298502.000000
299219.000000
299897.000000
300621.000000
301464.000000
302247.000000
302969.000000
303697.000000
304455.000000
305153.000000
305864.000000
306588.000000
307335.000000
308034.000000
308765.000000
309548.000000
310284.000000
311024.000000
311765.000000
312534.000000
313253.000000
313969.000000
314721.000000
315464.000000
316198.000000
316958.000000
317750.000000
318484.000000
319255.000000
319973.000000
320641.000000
321273.000000
321913.000000
322574.000000
323317.000000
324116.000000
324867.000000
325558.000000
326251.000000
326953.000000
327620.000000
328295.000000
328976.000000
329691.000000
330354.000000
331023.000000
331697.000000
332359.000000
333015.000000
333674.000000
334331.000000
335015.000000
335663.000000
336304.000000
336972.000000
337661.000000
338337.000000
339026.000000
339694.000000
340348.000000
340974.000000
341594.000000
342238.000000
342942.000000
343602.000000
344285.000000
344994.000000
345697.000000
346346.000000
347001.000000
347639.000000
348258.000000
348859.000000
349446.000000
350037.000000
350604.000000
351178.000000
351799.000000
352414.000000
353028.000000
353676.000000
354340.000000
354981.000000
355613.000000
356239.000000
356869.000000
357467.000000
358065.000000
358659.000000
359255.000000
359829.000000
360391.000000
360937.000000
361474.000000
362013.000000
362570.000000
363153.000000
363721.000000
364281.000000
364819.000000
365357.000000
365909.000000
366463.000000
367020.000000
367582.000000
368149.000000
368704.000000
369252.000000
369797.000000
370342.000000
370878.000000
371405.000000
371929.000000
372452.000000
372976.000000
373493.000000
374008.000000
374518.000000
375020.000000
375522.000000
376035.000000
376560.000000
377096.000000
377650.000000
378237.000000
378832.000000
379401.000000
379983.000000
380566.000000
381159.000000
381736.000000
382305.000000
382875.000000
383448.000000
384025.000000
384584.000000
385151.000000
385718.000000
386291.000000
386853.000000
387406.000000
387958.000000
388508.000000
389063.000000
389615.000000
390175.000000
390741.000000
391323.000000
391899.000000
392475.000000
393050.000000
393625.000000
394192.000000
394751.000000
395301.000000
395832.000000
396363.000000
396917.000000
397493.000000
398070.000000
398639.000000
399229.000000
399846.000000
400453.000000
401032.000000
401610.000000
402183.000000
402761.000000
403339.000000
403917.000000
404513.000000
405110.000000
405706.000000
406304.000000
406910.000000
407520.000000
408141.000000
408741.000000
409341.000000
409950.000000
410585.000000
411211.000000
411827.000000
412440.000000
413056.000000
413664.000000
414255.000000
414852.000000
415440.000000
416022.000000
416591.000000
417166.000000
417777.000000
418425.000000
419042.000000
419677.000000
420320.000000
420933.000000
421546.000000
422179.000000
422795.000000
423394.000000
423974.000000
424559.000000
425162.000000
425769.000000
426363.000000
426965.000000
427574.000000
428186.000000
428780.000000
429387.000000
429997.000000
430588.000000
431169.000000
431726.000000
432277.000000
432858.000000
433438.000000
434039.000000
434666.000000
435285.000000
435886.000000
436481.000000
437085.000000
437702.000000
438292.000000
438879.000000
439468.000000
440082.000000
440677.000000
441267.000000
441857.000000
442455.000000
443072.000000
443687.000000
444313.000000
444914.000000
445519.000000
446121.000000
446734.000000
447333.000000
447922.000000
448519.000000
449133.000000
449740.000000
450336.000000
450928.000000
451543.000000
452195.000000
452841.000000
453485.000000
454123.000000
454772.000000
455416.000000
456040.000000
456678.000000
457341.000000
457992.000000
458632.000000
459266.000000
459916.000000
460566.000000
461195.000000
461828.000000
462481.000000
463120.000000
463734.000000
464335.000000
464922.000000
465497.000000
466063.000000
466681.000000
467335.000000
467986.000000
468631.000000
469266.000000
469918.000000
470546.000000
471153.000000
471757.000000
472367.000000
473010.000000
473654.000000
474295.000000
474978.000000
475695.000000
476344.000000
476981.000000
477637.000000
478328.000000
478982.000000
479620.000000
480258.000000
480916.000000
481550.000000
482191.000000
482858.000000
483539.000000
484193.000000
484878.000000
485561.000000
486218.000000
486858.000000
487505.000000
488177.000000
488823.000000
489463.000000
490132.000000
490831.000000
491464.000000
492083.000000
492703.000000
493324.000000
493925.000000
494523.000000
495152.000000
495761.000000
496342.000000
496966.000000
497596.000000
498215.000000
498858.000000
499512.000000
500151.000000
500759.000000
501387.000000
501994.000000
502595.000000
503176.000000
503763.000000
504381.000000
505031.000000
505684.000000
506306.000000
506937.000000
507597.000000
508221.000000
508855.000000
509503.000000
510174.000000
510786.000000
511403.000000
512003.000000
512614.000000
513212.000000
513808.000000
514416.000000
515057.000000
515677.000000
516303.000000
516947.000000
517609.000000
518243.000000
518886.000000
519525.000000
520150.000000
520753.000000
521357.000000
521963.000000
522583.000000
523188.000000
523799.000000
524424.000000
525077.000000
525697.000000
526321.000000
526950.000000
527585.000000
528214.000000
528823.000000
529431.000000
530052.000000
530671.000000
531284.000000
531913.000000
532552.000000
533175.000000
533784.000000
534413.000000
535071.000000
535691.000000
536302.000000
536925.000000
537562.000000
538184.000000
538804.000000
539401.000000
539993.000000
540589.000000
541192.000000
541777.000000
542364.000000
542932.000000
543496.000000
544093.000000
544718.000000
545343.000000
545990.000000
546673.000000
547359.000000
547995.000000
548611.000000
549232.000000
549882.000000
550566.000000
551218.000000
551902.000000
552623.000000
553318.000000
553973.000000
554598.000000
555200.000000
555796.000000
556426.000000
557132.000000
557843.000000
558530.000000
559231.000000
559956.000000
560656.000000
561305.000000
561971.000000
562642.000000
563292.000000
563915.000000
564525.000000
565147.000000
565809.000000
566450.000000
567101.000000
567785.000000
568508.000000
569204.000000
569903.000000
570587.000000
571315.000000
571953.000000
572590.000000
573223.000000
573866.000000
574507.000000
575159.000000
575841.000000
576507.000000
577122.000000
577710.000000
578309.000000
578920.000000
579563.000000
580300.000000
580992.000000
581635.000000
582296.000000
582927.000000
583533.000000
584127.000000
584728.000000
585366.000000
586043.000000
586705.000000
587361.000000
588069.000000
588806.000000
589487.000000
590135.000000
590780.000000
591463.000000
592135.000000
592776.000000
593392.000000
594014.000000
594649.000000
595322.000000
595988.000000
596630.000000
597300.000000
597958.000000
598624.000000
599255.000000
599877.000000
600523.000000
