ECG (ms)
43.000000
818.000000
1610.000000
2385.000000
3128.000000
3861.000000
4533.000000
5176.000000
5865.000000
6595.000000
7336.000000
8089.000000
8834.000000
9596.000000
10376.000000
11165.000000
11937.000000
12678.000000
13396.000000
14120.000000
14852.000000
15611.000000
16360.000000
17111.000000
17866.000000
18623.000000
19404.000000
20196.000000
20970.000000
21721.000000
22470.000000
23255.000000
24061.000000
24857.000000
25639.000000
26404.000000
27163.000000
27970.000000
28795.000000
29620.000000
30426.000000
31215.000000
32003.000000
32801.000000
33590.000000
34356.000000
35110.000000
35869.000000
36645.000000
37414.000000
38169.000000
38928.000000
39672.000000
40406.000000
41154.000000
41968.000000
42804.000000
43639.000000
44449.000000
45226.000000
46012.000000
46834.000000
47668.000000
48476.000000
49254.000000
50017.000000
50823.000000
51656.000000
52488.000000
53301.000000
54087.000000
54862.000000
55664.000000
56482.000000
57303.000000
58116.000000
58951.000000
59801.000000
60621.000000
61395.000000
62178.000000
62967.000000
63771.000000
64558.000000
65343.000000
66157.000000
66986.000000
67828.000000
68651.000000
69446.000000
70217.000000
71000.000000
71747.000000
72445.000000
73078.000000
73695.000000
74336.000000
75009.000000
75741.000000
76544.000000
77366.000000
78179.000000
78960.000000
79717.000000
80474.000000
81248.000000
82027.000000
82779.000000
83500.000000
84205.000000
84924.000000
85668.000000
86440.000000
87208.000000
87972.000000
88769.000000
89609.000000
90444.000000
91236.000000
91991.000000
92740.000000
93497.000000
94243.000000
94982.000000
95714.000000
96466.000000
97230.000000
97995.000000
98738.000000
99476.000000
100237.000000
101035.000000
101842.000000
102638.000000
103412.000000
104191.000000
104999.000000
105802.000000
106578.000000
107332.000000
108083.000000
108860.000000
109672.000000
110477.000000
111270.000000
112069.000000
112905.000000
113749.000000
114556.000000
115337.000000
116091.000000
116847.000000
117638.000000
118436.000000
119212.000000
119967.000000
120742.000000
121544.000000
122362.000000
123184.000000
123999.000000
124815.000000
125652.000000
126487.000000
127306.000000
128098.000000
128893.000000
129708.000000
130528.000000
131338.000000
132148.000000
132977.000000
133828.000000
134685.000000
135514.000000
136317.000000
137098.000000
137883.000000
138688.000000
139522.000000
140340.000000
141147.000000
141954.000000
142762.000000
143590.000000
144418.000000
145207.000000
145980.000000
146760.000000
147560.000000
148380.000000
149176.000000
149936.000000
150659.000000
151373.000000
152096.000000
152798.000000
153496.000000
154167.000000
154814.000000
155514.000000
156266.000000
157026.000000
157788.000000
158533.000000
159292.000000
160047.000000
160782.000000
161479.000000
162151.000000
162837.000000
163550.000000
164309.000000
165077.000000
165844.000000
166626.000000
167453.000000
168293.000000
169121.000000
169902.000000
170667.000000
171451.000000
172267.000000
173093.000000
173914.000000
174740.000000
175585.000000
176435.000000
177254.000000
178043.000000
178807.000000
179588.000000
180387.000000
181194.000000
181978.000000
182749.000000
183523.000000
184318.000000
185120.000000
185917.000000
186694.000000
187477.000000
188268.000000
189065.000000
189844.000000
190607.000000
191371.000000
192161.000000
192965.000000
193756.000000
194524.000000
195292.000000
196078.000000
196886.000000
197700.000000
198500.000000
199307.000000
200122.000000
200954.000000
201758.000000
202542.000000
203321.000000
204115.000000
204913.000000
205699.000000
206472.000000
207247.000000
208061.000000
208900.000000
209734.000000
210530.000000
211303.000000
212081.000000
212873.000000
213690.000000
214460.000000
215151.000000
215866.000000
216623.000000
217447.000000
218305.000000
219161.000000
219993.000000
220806.000000
221604.000000
222398.000000
223172.000000
223925.000000
224671.000000
225444.000000
226253.000000
227077.000000
227881.000000
228658.000000
229427.000000
230229.000000
231042.000000
231852.000000
232672.000000
233494.000000
234333.000000
235177.000000
235999.000000
236799.000000
237567.000000
238340.000000
239137.000000
239949.000000
240744.000000
241533.000000
242318.000000
243122.000000
243929.000000
244713.000000
245475.000000
246232.000000
246994.000000
247757.000000
248534.000000
249298.000000
250055.000000
250825.000000
251629.000000
252460.000000
253276.000000
254071.000000
254877.000000
255707.000000
256533.000000
257341.000000
258128.000000
258894.000000
259688.000000
260504.000000
261308.000000
262080.000000
262851.000000
263646.000000
264466.000000
265286.000000
266085.000000
266862.000000
267655.000000
268462.000000
269262.000000
270037.000000
270796.000000
271556.000000
272327.000000
273085.000000
273803.000000
274463.000000
275121.000000
275785.000000
276507.000000
277282.000000
278084.000000
278870.000000
279634.000000
280384.000000
281135.000000
281900.000000
282684.000000
283466.000000
284227.000000
284975.000000
285714.000000
286474.000000
287282.000000
288110.000000
288933.000000
289745.000000
290545.000000
291331.000000
292110.000000
292869.000000
293603.000000
294323.000000
295036.000000
295783.000000
296553.000000
297328.000000
298092.000000
298841.000000
299589.000000
300348.000000
301105.000000
301858.000000
302583.000000
303286.000000
303990.000000
304712.000000
305494.000000
306315.000000
307129.000000
307923.000000
308704.000000
309481.000000
310274.000000
311069.000000
311861.000000
312641.000000
313393.000000
314129.000000
314880.000000
315646.000000
316417.000000
317167.000000
317912.000000
318678.000000
319427.000000
320126.000000
320777.000000
321439.000000
322134.000000
322849.000000
323606.000000
324381.000000
325142.000000
325886.000000
326608.000000
327331.000000
328071.000000
328805.000000
329521.000000
330229.000000
330932.000000
331669.000000
332447.000000
333234.000000
334005.000000
334759.000000
335505.000000
336266.000000
337055.000000
337842.000000
338609.000000
339344.000000
340074.000000
340827.000000
341631.000000
342449.000000
343247.000000
344011.000000
344774.000000
345558.000000
346335.000000
347105.000000
347847.000000
348600.000000
349360.000000
350123.000000
350880.000000
351637.000000
352387.000000
353144.000000
353912.000000
354665.000000
355404.000000
356139.000000
356892.000000
357654.000000
358409.000000
359153.000000
359893.000000
360632.000000
361387.000000
362139.000000
362875.000000
363595.000000
364320.000000
365070.000000
365810.000000
366527.000000
367232.000000
367915.000000
368591.000000
369267.000000
369897.000000
370522.000000
371190.000000
371886.000000
372593.000000
373329.000000
374081.000000
374829.000000
375554.000000
376254.000000
376925.000000
377584.000000
378263.000000
378976.000000
379713.000000
380445.000000
381155.000000
381855.000000
382574.000000
383327.000000
384103.000000
384877.000000
385647.000000
386449.000000
387265.000000
388060.000000
388834.000000
389585.000000
390351.000000
391119.000000
391879.000000
392631.000000
393377.000000
394152.000000
394934.000000
395711.000000
396476.000000
397229.000000
397995.000000
398780.000000
399581.000000
400368.000000
401145.000000
401919.000000
402713.000000
403523.000000
404316.000000
405087.000000
405834.000000
406570.000000
407325.000000
408107.000000
408897.000000
409700.000000
410496.000000
411323.000000
412145.000000
412941.000000
413709.000000
414450.000000
415189.000000
415956.000000
416729.000000
417498.000000
418272.000000
419097.000000
419940.000000
420762.000000
421570.000000
422365.000000
423155.000000
423942.000000
424716.000000
425471.000000
426235.000000
427035.000000
427853.000000
428660.000000
429446.000000
430208.000000
430989.000000
431787.000000
432574.000000
433338.000000
434085.000000
434853.000000
435616.000000
436397.000000
437170.000000
437939.000000
438720.000000
439535.000000
440377.000000
441194.000000
441982.000000
442764.000000
443556.000000
444358.000000
445150.000000
445948.000000
446779.000000
447639.000000
448504.000000
449343.000000
450176.000000
451011.000000
451829.000000
452638.000000
453436.000000
454228.000000
455048.000000
455875.000000
456701.000000
457511.000000
458302.000000
459115.000000
459941.000000
460750.000000
461547.000000
462338.000000
463141.000000
463953.000000
464767.000000
465580.000000
466371.000000
467175.000000
467986.000000
468768.000000
469529.000000
470269.000000
471020.000000
471808.000000
472596.000000
473363.000000
474102.000000
474825.000000
475540.000000
476245.000000
476895.000000
477520.000000
478175.000000
478868.000000
479577.000000
480312.000000
481062.000000
481800.000000
482507.000000
483180.000000
483824.000000
484462.000000
485111.000000
485785.000000
486466.000000
487146.000000
487842.000000
488577.000000
489328.000000
490093.000000
490828.000000
491539.000000
492250.000000
492974.000000
493728.000000
494508.000000
495287.000000
496062.000000
496853.000000
497670.000000
498484.000000
499264.000000
500025.000000
500788.000000
501596.000000
502413.000000
503208.000000
503993.000000
504801.000000
505615.000000
506410.000000
507159.000000
507872.000000
508578.000000
509308.000000
510066.000000
510824.000000
511561.000000
512296.000000
513050.000000
513826.000000
514585.000000
515326.000000
516045.000000
516775.000000
517517.000000
518259.000000
518985.000000
519703.000000
520398.000000
521103.000000
521807.000000
522494.000000
523131.000000
523757.000000
524418.000000
525144.000000
525921.000000
526718.000000
527503.000000
528266.000000
528998.000000
529733.000000
530475.000000
531234.000000
531999.000000
532752.000000
533524.000000
534316.000000
535135.000000
535947.000000
536768.000000
537585.000000
538395.000000
539198.000000
540000.000000
540795.000000
541614.000000
542450.000000
543279.000000
544071.000000
544829.000000
545589.000000
546363.000000
547155.000000
547950.000000
548747.000000
549549.000000
550378.000000
551230.000000
552053.000000
552840.000000
553619.000000
554423.000000
555243.000000
556051.000000
556834.000000
557602.000000
558393.000000
559200.000000
559997.000000
560786.000000
561578.000000
562371.000000
563176.000000
563968.000000
564744.000000
565533.000000
566345.000000
567152.000000
567931.000000
568684.000000
569453.000000
570247.000000
571060.000000
571846.000000
572608.000000
573354.000000
574106.000000
574842.000000
575511.000000
576155.000000
576809.000000
577502.000000
578260.000000
579051.000000
579855.000000
580615.000000
581334.000000
582024.000000
582725.000000
583442.000000
584180.000000
584928.000000
585675.000000
586436.000000
587216.000000
588008.000000
588790.000000
589554.000000
590295.000000
591049.000000
591838.000000
592657.000000
593449.000000
594226.000000
595026.000000
595860.000000
596684.000000
597468.000000
598234.000000
599028.000000
599851.000000
600678.000000
601490.000000
602296.000000
603115.000000
603962.000000
604789.000000
605593.000000
606383.000000
607200.000000
608043.000000
608888.000000
609677.000000
610426.000000
611171.000000
611927.000000
612699.000000
613464.000000
614220.000000
614988.000000
615760.000000
616522.000000
617271.000000
617992.000000
618707.000000
619443.000000
620183.000000
620925.000000
621660.000000
622400.000000
623176.000000
623967.000000
624737.000000
625483.000000
626231.000000
626987.000000
627757.000000
628518.000000
629280.000000
630030.000000
630803.000000
631592.000000
632351.000000
633084.000000
633790.000000
634510.000000
635259.000000
636027.000000
636788.000000
637527.000000
638280.000000
639052.000000
639828.000000
640588.000000
641329.000000
642049.000000
642750.000000
643437.000000
644116.000000
644769.000000
645425.000000
646051.000000
646662.000000
647328.000000
648070.000000
648853.000000
649614.000000
650357.000000
651076.000000
651803.000000
652532.000000
653254.000000
653952.000000
654637.000000
655338.000000
656095.000000
656885.000000
657708.000000
658526.000000
659326.000000
660149.000000
660978.000000
661802.000000
662606.000000
663398.000000
664213.000000
665035.000000
665837.000000
666629.000000
667420.000000
668228.000000
669042.000000
669821.000000
670577.000000
671359.000000
672175.000000
672986.000000
673768.000000
674542.000000
675330.000000
676133.000000
676941.000000
677742.000000
678528.000000
679315.000000
680118.000000
680931.000000
681706.000000
682460.000000
683207.000000
683991.000000
684792.000000
685574.000000
686346.000000
687109.000000
687887.000000
688685.000000
689480.000000
690268.000000
691045.000000
691834.000000
692632.000000
693428.000000
694184.000000
694922.000000
695663.000000
696412.000000
697160.000000
697902.000000
698656.000000
699432.000000
700226.000000
701020.000000
701800.000000
702573.000000
703351.000000
704137.000000
704939.000000
705716.000000
706493.000000
707280.000000
708097.000000
708916.000000
709708.000000
710474.000000
711253.000000
712043.000000
712851.000000
713641.000000
714402.000000
715142.000000
715898.000000
716639.000000
717365.000000
718085.000000
718795.000000
719505.000000
720235.000000
720986.000000
721756.000000
722501.000000
723222.000000
723940.000000
724684.000000
725442.000000
726208.000000
726948.000000
727700.000000
728467.000000
729237.000000
729995.000000
730706.000000
731384.000000
732049.000000
732727.000000
733416.000000
734113.000000
734807.000000
735491.000000
736165.000000
736842.000000
737528.000000
738238.000000
738925.000000
739594.000000
740250.000000
740924.000000
741611.000000
742305.000000
742996.000000
743691.000000
744363.000000
745009.000000
745628.000000
746260.000000
746939.000000
747618.000000
748287.000000
748934.000000
749588.000000
750242.000000
750909.000000
751564.000000
752199.000000
752816.000000
753436.000000
754067.000000
754716.000000
755385.000000
756053.000000
756714.000000
757386.000000
758106.000000
758862.000000
759632.000000
760377.000000
761104.000000
761830.000000
762574.000000
763343.000000
764103.000000
764838.000000
765547.000000
766267.000000
767002.000000
767767.000000
768530.000000
769263.000000
769983.000000
770743.000000
771506.000000
772251.000000
772984.000000
773695.000000
774417.000000
775150.000000
775884.000000
776609.000000
777320.000000
778039.000000
778773.000000
779519.000000
780258.000000
780977.000000
781674.000000
782386.000000
783112.000000
783851.000000
784579.000000
785282.000000
785975.000000
786667.000000
787379.000000
788093.000000
788795.000000
789472.000000
790147.000000
790832.000000
791522.000000
792160.000000
792778.000000
793408.000000
794047.000000
794693.000000
795356.000000
796034.000000
796719.000000
797395.000000
798050.000000
798687.000000
799322.000000
799959.000000
800611.000000
801281.000000
801972.000000
802659.000000
803356.000000
804086.000000
804838.000000
805603.000000
806349.000000
807061.000000
807747.000000
808463.000000
809206.000000
809976.000000
810737.000000
811494.000000
812226.000000
812960.000000
813679.000000
814374.000000
815048.000000
815713.000000
816394.000000
817133.000000
817910.000000
818704.000000
819491.000000
820254.000000
821018.000000
821780.000000
822515.000000
823225.000000
823931.000000
824675.000000
825434.000000
826193.000000
826938.000000
827651.000000
828343.000000
829041.000000
829747.000000
830468.000000
831185.000000
831911.000000
832695.000000
833510.000000
834311.000000
835063.000000
835770.000000
836460.000000
837154.000000
837874.000000
838610.000000
839342.000000
840058.000000
840777.000000
841495.000000
842183.000000
842823.000000
843467.000000
844129.000000
844804.000000
845481.000000
846184.000000
846916.000000
847653.000000
848357.000000
849038.000000
849700.000000
850363.000000
851031.000000
851712.000000
852393.000000
853074.000000
853755.000000
854463.000000
855189.000000
855930.000000
856685.000000
857422.000000
858149.000000
858892.000000
859632.000000
860338.000000
861022.000000
861692.000000
862350.000000
863007.000000
863685.000000
864373.000000
865060.000000
865744.000000
866418.000000
867098.000000
867789.000000
868506.000000
869217.000000
869916.000000
870597.000000
871258.000000
871917.000000
872580.000000
873241.000000
873891.000000
874531.000000
875167.000000
875819.000000
876503.000000
877205.000000
877906.000000
878606.000000
879305.000000
880013.000000
880746.000000
881491.000000
882216.000000
882922.000000
883601.000000
884273.000000
884962.000000
885659.000000
886349.000000
887034.000000
887712.000000
888407.000000
889138.000000
889910.000000
890694.000000
891452.000000
892167.000000
892847.000000
893497.000000
894112.000000
894737.000000
895415.000000
896143.000000
896861.000000
897573.000000
898282.000000
898993.000000
899715.000000
900450.000000
901174.000000
901867.000000
902566.000000
903274.000000
903980.000000
904697.000000
905391.000000
906076.000000
906751.000000
907435.000000
908123.000000
908815.000000
909490.000000
910154.000000
910804.000000
911452.000000
912106.000000
912774.000000
913437.000000
914091.000000
914741.000000
915407.000000
916097.000000
916800.000000
917487.000000
918159.000000
918827.000000
