ECG (ms)
34.000000
996.000000
1912.000000
2890.000000
3797.000000
4707.000000
5671.000000
6584.000000
7500.000000
8467.000000
9377.000000
10294.000000
11246.000000
12185.000000
13087.000000
14045.000000
14991.000000
15887.000000
16866.000000
17836.000000
18746.000000
19719.000000
20682.000000
21595.000000
22558.000000
23527.000000
24437.000000
25320.000000
26241.000000
27213.000000
28130.000000
29065.000000
30055.000000
31036.000000
31954.000000
32866.000000
33812.000000
34753.000000
35642.000000
36578.000000
37556.000000
38480.000000
39448.000000
40435.000000
41356.000000
42320.000000
43281.000000
44193.000000
45133.000000
46108.000000
47079.000000
47988.000000
48885.000000
49830.000000
50767.000000
51673.000000
52682.000000
53650.000000
54585.000000
55590.000000
56600.000000
57532.000000
58452.000000
59417.000000
60399.000000
61329.000000
62258.000000
63253.000000
64205.000000
65127.000000
66114.000000
67092.000000
68006.000000
68898.000000
69814.000000
70780.000000
71727.000000
72673.000000
73684.000000
74670.000000
75599.000000
76566.000000
77536.000000
78445.000000
79379.000000
80356.000000
81279.000000
82180.000000
83157.000000
84140.000000
85076.000000
85993.000000
86948.000000
87834.000000
88744.000000
89699.000000
90595.000000
91525.000000
92499.000000
93473.000000
94389.000000
95287.000000
96236.000000
97182.000000
98103.000000
99048.000000
100040.000000
101022.000000
101980.000000
102992.000000
103999.000000
104945.000000
105865.000000
106827.000000
107787.000000
108726.000000
109627.000000
110581.000000
111554.000000
112502.000000
113428.000000
114393.000000
115387.000000
116332.000000
117240.000000
118185.000000
119136.000000
120050.000000
120950.000000
121909.000000
122873.000000
123783.000000
124670.000000
125614.000000
126537.000000
127425.000000
128327.000000
129291.000000
130280.000000
131212.000000
132114.000000
133068.000000
134012.000000
134901.000000
135802.000000
136754.000000
137746.000000
138673.000000
139600.000000
140577.000000
141519.000000
142436.000000
143404.000000
144387.000000
145295.000000
146186.000000
147121.000000
148074.000000
148999.000000
149901.000000
150810.000000
151764.000000
152751.000000
153700.000000
154620.000000
155593.000000
156573.000000
157572.000000
158513.000000
159452.000000
160449.000000
161415.000000
162336.000000
163340.000000
164323.000000
165254.000000
166154.000000
167107.000000
168077.000000
169008.000000
169919.000000
170876.000000
171875.000000
172827.000000
173741.000000
174684.000000
175609.000000
176488.000000
177406.000000
178276.000000
179041.000000
179809.000000
180598.000000
181465.000000
182428.000000
183334.000000
184187.000000
185053.000000
185975.000000
186890.000000
187726.000000
188539.000000
189375.000000
190276.000000
191245.000000
192151.000000
193010.000000
193980.000000
195012.000000
195911.000000
196720.000000
197516.000000
198345.000000
199572.000000
200604.000000
201598.000000
202541.000000
203546.000000
204520.000000
205463.000000
206472.000000
207431.000000
208375.000000
209350.000000
210295.000000
211287.000000
212303.000000
213276.000000
214226.000000
215225.000000
216160.000000
217143.000000
218127.000000
219056.000000
220039.000000
221021.000000
221926.000000
222878.000000
223844.000000
224758.000000
225736.000000
226695.000000
227615.000000
228577.000000
229496.000000
230439.000000
231422.000000
232348.000000
233311.000000
234239.000000
235139.000000
236132.000000
237148.000000
238107.000000
239134.000000
240120.000000
241074.000000
242093.000000
243070.000000
243999.000000
244987.000000
245952.000000
246880.000000
247872.000000
248891.000000
249849.000000
250820.000000
251744.000000
252732.000000
253711.000000
254658.000000
255697.000000
256689.000000
257642.000000
258637.000000
259633.000000
260578.000000
261534.000000
262552.000000
263540.000000
264502.000000
265500.000000
266449.000000
267358.000000
268314.000000
269234.000000
270111.000000
271054.000000
272014.000000
272919.000000
273844.000000
274804.000000
275767.000000
276689.000000
277600.000000
278548.000000
279514.000000
280434.000000
281334.000000
282274.000000
283208.000000
284099.000000
285033.000000
285984.000000
286926.000000
287854.000000
288828.000000
289755.000000
290664.000000
291622.000000
292541.000000
293438.000000
294370.000000
295293.000000
296188.000000
297150.000000
298067.000000
298987.000000
299950.000000
300862.000000
301760.000000
302714.000000
303683.000000
304604.000000
305523.000000
306486.000000
307467.000000
308408.000000
309358.000000
310346.000000
311340.000000
312267.000000
313210.000000
314135.000000
315034.000000
316017.000000
317046.000000
318008.000000
318962.000000
319974.000000
320964.000000
321883.000000
322843.000000
323810.000000
324730.000000
325679.000000
326674.000000
327635.000000
328543.000000
329512.000000
330487.000000
331413.000000
332345.000000
333343.000000
334299.000000
335220.000000
336192.000000
337132.000000
338040.000000
338997.000000
339944.000000
340862.000000
341831.000000
342813.000000
343769.000000
344689.000000
345656.000000
346632.000000
347565.000000
348485.000000
349458.000000
350405.000000
351331.000000
352335.000000
353317.000000
354265.000000
355246.000000
356164.000000
357150.000000
358135.000000
359070.000000
360064.000000
361057.000000
361989.000000
362979.000000
363983.000000
364933.000000
365923.000000
366919.000000
367858.000000
368834.000000
369812.000000
370739.000000
371675.000000
372666.000000
373652.000000
374580.000000
375543.000000
376491.000000
377403.000000
378387.000000
379404.000000
380349.000000
381274.000000
382240.000000
383226.000000
384166.000000
385085.000000
386056.000000
387032.000000
387982.000000
388987.000000
389959.000000
390881.000000
391823.000000
392770.000000
393671.000000
394601.000000
395583.000000
396516.000000
397462.000000
398450.000000
399394.000000
400327.000000
401307.000000
402244.000000
403145.000000
404083.000000
405026.000000
405924.000000
406816.000000
407760.000000
408647.000000
409591.000000
410563.000000
411481.000000
412436.000000
413385.000000
414314.000000
415303.000000
416265.000000
417216.000000
418227.000000
419219.000000
420178.000000
421108.000000
422015.000000
422936.000000
423795.000000
424647.000000
425586.000000
426520.000000
427399.000000
428257.000000
429173.000000
430107.000000
431003.000000
431982.000000
432867.000000
433775.000000
434774.000000
435724.000000
436650.000000
437706.000000
438704.000000
439616.000000
440568.000000
441534.000000
442516.000000
443458.000000
444440.000000
445456.000000
446428.000000
447432.000000
448452.000000
449396.000000
450344.000000
451329.000000
452297.000000
453233.000000
454248.000000
455275.000000
456242.000000
457211.000000
458219.000000
459169.000000
460121.000000
461124.000000
462099.000000
463034.000000
464015.000000
464981.000000
465921.000000
466917.000000
467923.000000
468864.000000
469822.000000
470826.000000
471777.000000
472697.000000
473673.000000
474630.000000
475560.000000
476571.000000
477519.000000
478434.000000
479394.000000
480312.000000
481240.000000
482180.000000
483067.000000
484016.000000
485007.000000
485957.000000
486883.000000
487847.000000
488795.000000
489703.000000
490632.000000
491557.000000
492444.000000
493350.000000
494333.000000
495327.000000
496258.000000
497221.000000
498218.000000
499217.000000
500152.000000
501122.000000
502071.000000
502992.000000
503982.000000
504965.000000
505940.000000
506977.000000
507964.000000
508955.000000
509956.000000
510906.000000
511902.000000
512857.000000
513788.000000
514745.000000
515667.000000
516597.000000
517575.000000
518540.000000
519469.000000
520452.000000
521399.000000
522317.000000
523294.000000
524252.000000
525174.000000
526143.000000
527089.000000
528007.000000
528996.000000
529956.000000
530868.000000
531746.000000
532614.000000
533539.000000
534553.000000
535577.000000
536543.000000
537529.000000
538547.000000
539497.000000
540455.000000
541428.000000
542370.000000
543359.000000
544305.000000
545229.000000
546205.000000
547111.000000
547993.000000
548788.000000
549630.000000
550583.000000
551488.000000
552492.000000
553417.000000
554291.000000
555187.000000
556044.000000
556993.000000
557958.000000
558856.000000
559824.000000
560720.000000
561564.000000
562464.000000
563486.000000
564523.000000
565561.000000
566601.000000
567586.000000
568560.000000
569572.000000
570544.000000
571497.000000
572481.000000
573418.000000
574396.000000
575370.000000
576293.000000
577234.000000
578152.000000
579070.000000
580038.000000
580984.000000
581902.000000
582896.000000
583903.000000
584846.000000
585783.000000
586769.000000
587732.000000
588670.000000
589684.000000
590691.000000
591653.000000
592672.000000
593665.000000
594607.000000
595598.000000
596591.000000
597533.000000
598512.000000
599503.000000
600439.000000
601413.000000
602449.000000
603418.000000
604420.000000
605430.000000
606359.000000
607310.000000
608241.000000
609172.000000
610209.000000
611276.000000
612284.000000
613319.000000
614358.000000
615369.000000
616382.000000
617349.000000
618341.000000
619302.000000
620279.000000
621337.000000
622406.000000
623412.000000
624475.000000
625481.000000
626412.000000
627410.000000
628445.000000
629449.000000
630400.000000
631439.000000
632454.000000
633446.000000
634469.000000
635455.000000
636415.000000
637443.000000
638438.000000
639400.000000
640431.000000
641413.000000
642361.000000
643384.000000
644354.000000
645332.000000
646284.000000
647193.000000
648149.000000
649091.000000
649999.000000
650968.000000
651952.000000
652893.000000
653853.000000
654739.000000
655626.000000
656573.000000
657454.000000
658291.000000
659195.000000
660276.000000
661358.000000
662320.000000
663306.000000
664273.000000
665193.000000
666127.000000
667063.000000
667992.000000
668975.000000
669901.000000
670834.000000
671787.000000
672707.000000
673646.000000
674556.000000
675421.000000
676227.000000
676971.000000
677714.000000
678900.000000
679867.000000
680843.000000
681809.000000
682729.000000
683656.000000
684617.000000
685568.000000
686489.000000
687432.000000
688331.000000
689199.000000
690057.000000
690876.000000
691743.000000
692634.000000
693589.000000
694452.000000
695283.000000
696170.000000
697072.000000
697912.000000
698707.000000
699485.000000
700289.000000
701076.000000
701900.000000
702775.000000
703614.000000
704436.000000
705281.000000
706132.000000
706940.000000
707750.000000
708572.000000
709408.000000
710224.000000
711011.000000
711814.000000
712655.000000
713529.000000
714360.000000
715189.000000
716035.000000
716900.000000
717748.000000
718555.000000
719334.000000
720118.000000
720918.000000
721720.000000
722513.000000
723311.000000
724221.000000
725370.000000
726364.000000
727287.000000
728231.000000
729158.000000
729977.000000
730756.000000
731562.000000
732448.000000
733509.000000
734452.000000
735361.000000
736377.000000
737365.000000
738305.000000
739242.000000
740220.000000
741208.000000
742185.000000
743114.000000
744025.000000
744989.000000
745979.000000
746939.000000
747860.000000
748844.000000
749835.000000
750782.000000
751725.000000
752743.000000
753768.000000
754752.000000
755731.000000
756775.000000
757807.000000
758786.000000
759797.000000
760799.000000
761736.000000
762736.000000
763672.000000
764600.000000
765580.000000
766568.000000
767511.000000
768546.000000
769584.000000
770554.000000
771550.000000
772577.000000
773525.000000
774520.000000
775521.000000
776481.000000
777431.000000
778418.000000
779354.000000
780323.000000
781309.000000
782237.000000
783199.000000
784180.000000
785131.000000
786055.000000
787030.000000
788002.000000
788926.000000
789896.000000
790858.000000
791784.000000
792772.000000
793769.000000
794730.000000
795662.000000
796625.000000
797561.000000
798466.000000
799420.000000
800360.000000
801267.000000
802236.000000
803224.000000
804167.000000
805089.000000
806047.000000
806960.000000
807858.000000
808805.000000
809730.000000
810627.000000
811577.000000
812511.000000
813404.000000
814329.000000
815268.000000
816167.000000
817042.000000
817942.000000
818864.000000
819746.000000
820663.000000
821620.000000
822536.000000
823461.000000
824409.000000
825319.000000
826207.000000
827135.000000
828044.000000
828972.000000
829962.000000
830925.000000
831909.000000
832909.000000
833863.000000
834861.000000
835828.000000
836775.000000
837783.000000
838765.000000
839754.000000
840798.000000
841774.000000
842782.000000
843780.000000
844732.000000
845722.000000
846693.000000
847636.000000
848635.000000
849672.000000
850665.000000
851631.000000
852652.000000
853657.000000
854594.000000
855576.000000
856575.000000
857564.000000
858521.000000
859565.000000
860584.000000
861541.000000
862524.000000
863517.000000
864460.000000
865444.000000
866493.000000
867491.000000
868483.000000
869532.000000
870542.000000
871508.000000
872514.000000
873490.000000
874472.000000
875470.000000
876431.000000
877433.000000
878432.000000
879365.000000
880351.000000
881316.000000
882240.000000
883217.000000
884200.000000
885128.000000
886109.000000
887079.000000
888008.000000
888981.000000
889958.000000
890883.000000
891847.000000
892822.000000
893753.000000
894693.000000
895672.000000
896595.000000
897485.000000
898362.000000
899307.000000
900288.000000
901270.000000
902190.000000
903162.000000
904061.000000
904960.000000
905897.000000
906792.000000
907686.000000
908490.000000
909312.000000
910175.000000
911100.000000
912075.000000
912972.000000
913851.000000
914793.000000
915754.000000
916638.000000
917597.000000
918657.000000
919629.000000
920638.000000
921587.000000
922449.000000
923390.000000
924384.000000
925298.000000
926329.000000
927333.000000
928241.000000
929166.000000
930154.000000
931060.000000
932063.000000
933126.000000
934061.000000
935049.000000
936037.000000
936962.000000
937974.000000
938977.000000
939942.000000
940975.000000
941979.000000
942968.000000
943987.000000
944937.000000
945921.000000
946816.000000
947771.000000
948730.000000
949659.000000
950623.000000
951620.000000
952586.000000
953535.000000
954543.000000
955520.000000
956471.000000
957464.000000
958416.000000
959349.000000
960313.000000
961262.000000
962190.000000
963179.000000
964172.000000
965122.000000
966109.000000
967090.000000
968018.000000
968996.000000
969958.000000
970890.000000
971891.000000
972870.000000
973831.000000
974843.000000
975801.000000
976759.000000
977775.000000
978760.000000
979712.000000
980704.000000
981656.000000
982581.000000
983564.000000
984506.000000
985498.000000
986508.000000
987469.000000
988462.000000
989432.000000
990360.000000
991334.000000
992285.000000
993201.000000
994170.000000
995121.000000
996041.000000
997007.000000
997954.000000
998878.000000
999860.000000
1000801.000000
1001699.000000
1002630.000000
1003599.000000
1004538.000000
1005526.000000
1006559.000000
1007553.000000
1008556.000000
1009561.000000
1010503.000000
1011473.000000
1012405.000000
1013323.000000
1014267.000000
1015163.000000
1016137.000000
1017099.000000
1018023.000000
1019008.000000
1019980.000000
1020883.000000
1021843.000000
1022788.000000
1023704.000000
1024646.000000
1025604.000000
1026533.000000
1027500.000000
1028469.000000
1029374.000000
1030281.000000
1031217.000000
1032146.000000
1033018.000000
1033859.000000
1034625.000000
1035411.000000
1036592.000000
1037592.000000
1038566.000000
1039499.000000
1040486.000000
1041480.000000
1042452.000000
1043452.000000
1044449.000000
1045413.000000
1046412.000000
1047404.000000
1048396.000000
1049410.000000
1050401.000000
1051354.000000
1052348.000000
1053346.000000
1054306.000000
1055299.000000
1056273.000000
1057241.000000
1058229.000000
1059177.000000
1060166.000000
1061155.000000
1062104.000000
1063102.000000
1064076.000000
1065004.000000
1065957.000000
1066881.000000
1067787.000000
1068758.000000
1069751.000000
1070687.000000
1071714.000000
1072654.000000
1073580.000000
1074542.000000
1075449.000000
1076389.000000
1077369.000000
1078320.000000
1079282.000000
1080275.000000
1081221.000000
1082208.000000
1083173.000000
1084096.000000
1085021.000000
1085921.000000
1086754.000000
1087544.000000
1088380.000000
1089494.000000
1090460.000000
1091423.000000
1092403.000000
1093350.000000
1094351.000000
1095301.000000
1096224.000000
1097154.000000
1098078.000000
1098980.000000
1099881.000000
1100719.000000
1101470.000000
1102241.000000
1103043.000000
1103933.000000
1105067.000000
1106063.000000
1107038.000000
1108026.000000
1108952.000000
1109909.000000
1110900.000000
1111831.000000
1112792.000000
1113782.000000
1114723.000000
1115694.000000
1116686.000000
1117640.000000
1118583.000000
1119546.000000
1120470.000000
1121384.000000
1122333.000000
1123254.000000
1124209.000000
1125191.000000
1126090.000000
1127030.000000
1127989.000000
1128913.000000
1129874.000000
1130849.000000
1131777.000000
1132736.000000
1133695.000000
1134611.000000
1135568.000000
1136500.000000
1137394.000000
1138298.000000
1139178.000000
1139981.000000
1140798.000000
1141747.000000
1142812.000000
1143817.000000
1144731.000000
1145601.000000
1146482.000000
1147362.000000
1148256.000000
1149407.000000
1150437.000000
1151395.000000
1152418.000000
1153410.000000
1154364.000000
1155359.000000
1156283.000000
1157251.000000
1158244.000000
1159190.000000
1160151.000000
1161162.000000
1162138.000000
1163077.000000
1164096.000000
1165075.000000
1166020.000000
1167018.000000
1167983.000000
1168902.000000
1169871.000000
1170782.000000
1171699.000000
1172680.000000
1173606.000000
1174536.000000
1175508.000000
1176457.000000
1177391.000000
1178377.000000
1179326.000000
1180273.000000
1181254.000000
1182185.000000
1183150.000000
1184060.000000
1185039.000000
1186026.000000
1186969.000000
1187949.000000
1188893.000000
1189832.000000
1190821.000000
1191800.000000
1192731.000000
1193693.000000
1194630.000000
1195539.000000
1196481.000000
1197423.000000
1198320.000000
1199232.000000
1200128.000000
1200939.000000
1201768.000000
1202621.000000
1203446.000000
1204284.000000
1205148.000000
1205980.000000
