ECG (ms)
676.000000
1358.000000
2027.000000
2688.000000
3341.000000
4001.000000
4664.000000
5346.000000
6039.000000
6739.000000
7458.000000
8184.000000
8907.000000
9632.000000
10344.000000
11038.000000
11725.000000
12396.000000
13059.000000
13717.000000
14385.000000
15071.000000
15777.000000
16492.000000
17190.000000
17877.000000
18564.000000
19267.000000
19970.000000
20661.000000
21343.000000
22010.000000
22665.000000
23308.000000
23952.000000
24604.000000
25276.000000
25959.000000
26657.000000
27355.000000
28066.000000
28783.000000
29506.000000
30226.000000
30953.000000
31683.000000
32408.000000
33129.000000
33849.000000
34571.000000
35288.000000
36007.000000
36716.000000
37418.000000
38113.000000
38815.000000
39511.000000
40223.000000
40944.000000
41673.000000
42396.000000
43112.000000
43832.000000
44549.000000
45268.000000
45990.000000
46696.000000
47412.000000
48131.000000
48848.000000
49566.000000
50295.000000
51037.000000
51766.000000
52504.000000
53251.000000
53991.000000
54726.000000
55451.000000
56166.000000
56867.000000
57558.000000
58239.000000
58924.000000
59614.000000
60305.000000
61007.000000
61719.000000
62426.000000
63130.000000
63838.000000
64543.000000
65236.000000
65921.000000
66601.000000
67270.000000
67940.000000
68607.000000
69282.000000
69971.000000
70677.000000
71396.000000
72121.000000
72843.000000
73555.000000
74264.000000
74966.000000
75660.000000
76353.000000
77049.000000
77741.000000
78423.000000
79111.000000
79801.000000
80503.000000
81200.000000
81902.000000
82599.000000
83293.000000
83982.000000
84669.000000
85344.000000
86016.000000
86684.000000
87339.000000
87981.000000
88608.000000
89242.000000
89887.000000
90555.000000
91256.000000
91958.000000
92660.000000
93362.000000
94062.000000
94745.000000
95425.000000
96097.000000
96769.000000
97440.000000
98106.000000
98774.000000
99450.000000
100141.000000
100834.000000
101542.000000
102257.000000
102966.000000
103672.000000
104374.000000
105067.000000
105750.000000
106432.000000
107111.000000
107785.000000
108464.000000
109152.000000
109845.000000
110539.000000
111239.000000
111941.000000
112640.000000
113334.000000
114019.000000
114698.000000
115370.000000
116040.000000
116710.000000
117381.000000
118063.000000
118756.000000
119456.000000
120166.000000
120886.000000
121601.000000
122298.000000
122987.000000
123669.000000
124341.000000
125006.000000
125668.000000
126318.000000
126969.000000
127618.000000
128270.000000
128922.000000
129576.000000
130244.000000
130927.000000
131619.000000
132320.000000
133022.000000
133721.000000
134410.000000
135090.000000
135760.000000
136421.000000
137067.000000
137713.000000
138358.000000
139005.000000
139662.000000
140334.000000
141025.000000
141725.000000
142433.000000
143141.000000
143849.000000
144551.000000
145246.000000
145933.000000
146609.000000
147280.000000
147953.000000
148632.000000
149317.000000
150014.000000
150727.000000
151449.000000
152167.000000
152878.000000
153574.000000
154254.000000
154927.000000
155604.000000
156280.000000
156958.000000
157647.000000
158338.000000
159036.000000
159745.000000
160458.000000
161164.000000
161871.000000
162575.000000
163274.000000
163976.000000
164681.000000
165388.000000
166102.000000
166815.000000
167524.000000
168218.000000
168899.000000
169566.000000
170225.000000
170877.000000
171528.000000
172183.000000
172852.000000
173526.000000
174194.000000
174857.000000
175546.000000
176267.000000
176993.000000
177723.000000
178454.000000
179179.000000
179885.000000
180585.000000
181275.000000
181955.000000
182625.000000
183291.000000
183955.000000
184614.000000
185281.000000
185960.000000
186659.000000
187368.000000
188084.000000
188807.000000
189533.000000
190243.000000
190943.000000
191636.000000
192322.000000
193005.000000
193692.000000
194387.000000
195086.000000
195796.000000
196529.000000
197283.000000
198026.000000
198768.000000
199503.000000
200218.000000
200924.000000
201629.000000
202331.000000
203024.000000
203717.000000
204413.000000
205130.000000
205850.000000
206586.000000
207328.000000
208060.000000
208782.000000
209500.000000
210209.000000
210905.000000
211604.000000
212301.000000
213002.000000
213721.000000
214461.000000
215224.000000
215993.000000
216782.000000
217559.000000
218300.000000
219027.000000
219734.000000
220422.000000
221117.000000
221836.000000
222571.000000
223308.000000
224053.000000
224802.000000
225532.000000
226251.000000
226956.000000
227648.000000
228329.000000
229005.000000
229683.000000
230366.000000
231056.000000
231759.000000
232477.000000
233197.000000
233919.000000
234647.000000
235373.000000
236091.000000
236793.000000
237482.000000
238163.000000
238836.000000
239510.000000
240204.000000
240939.000000
241681.000000
242442.000000
243224.000000
243993.000000
244742.000000
245483.000000
246224.000000
246952.000000
247658.000000
248365.000000
249076.000000
249788.000000
250501.000000
251238.000000
251985.000000
252742.000000
253493.000000
254228.000000
254936.000000
255629.000000
256305.000000
256970.000000
257634.000000
258303.000000
258987.000000
259687.000000
260406.000000
261149.000000
261910.000000
262668.000000
263411.000000
264137.000000
264846.000000
265533.000000
266213.000000
266889.000000
267562.000000
268233.000000
268917.000000
269610.000000
270318.000000
271023.000000
271729.000000
272444.000000
273165.000000
273887.000000
274599.000000
275304.000000
276009.000000
276722.000000
277442.000000
278166.000000
278889.000000
279610.000000
280323.000000
281025.000000
281721.000000
282416.000000
283106.000000
283803.000000
284511.000000
285241.000000
286006.000000
286764.000000
287509.000000
288251.000000
288985.000000
289701.000000
290407.000000
291111.000000
291820.000000
292533.000000
293254.000000
293988.000000
294728.000000
295463.000000
296206.000000
296947.000000
297677.000000
298405.000000
299130.000000
299851.000000
300569.000000
301288.000000
302011.000000
302728.000000
303451.000000
304174.000000
304892.000000
305600.000000
306298.000000
306989.000000
307679.000000
308368.000000
309055.000000
309741.000000
310440.000000
311150.000000
311857.000000
312567.000000
313278.000000
313983.000000
314678.000000
315371.000000
316063.000000
316746.000000
317426.000000
318106.000000
318787.000000
319469.000000
320150.000000
320832.000000
321513.000000
322195.000000
322879.000000
323568.000000
324258.000000
324950.000000
325644.000000
326327.000000
326999.000000
327662.000000
328313.000000
328948.000000
329583.000000
330222.000000
330866.000000
331511.000000
332157.000000
332811.000000
333470.000000
334131.000000
334804.000000
335488.000000
336179.000000
336868.000000
337554.000000
338236.000000
338912.000000
339592.000000
340275.000000
340960.000000
341646.000000
342350.000000
343075.000000
343799.000000
344516.000000
345234.000000
345942.000000
346637.000000
347330.000000
348020.000000
348702.000000
349388.000000
350074.000000
350761.000000
351446.000000
352132.000000
352819.000000
353510.000000
354193.000000
354876.000000
355559.000000
356243.000000
356926.000000
357616.000000
358317.000000
359014.000000
359708.000000
360399.000000
361082.000000
361763.000000
362446.000000
363134.000000
363825.000000
364516.000000
365208.000000
365905.000000
366597.000000
367285.000000
367971.000000
368643.000000
369312.000000
369978.000000
370646.000000
371324.000000
372011.000000
372711.000000
373414.000000
374129.000000
374848.000000
375562.000000
376264.000000
376952.000000
377628.000000
378297.000000
378969.000000
379642.000000
380326.000000
381027.000000
381744.000000
382464.000000
383193.000000
383921.000000
384645.000000
385354.000000
386050.000000
386743.000000
387429.000000
388110.000000
388798.000000
389503.000000
390219.000000
390943.000000
391682.000000
392426.000000
393155.000000
393870.000000
394563.000000
395236.000000
395901.000000
396566.000000
397235.000000
397912.000000
398611.000000
399340.000000
400100.000000
400852.000000
401610.000000
402371.000000
403117.000000
403841.000000
404540.000000
405219.000000
405881.000000
406532.000000
407178.000000
407828.000000
408500.000000
409218.000000
409976.000000
410749.000000
411515.000000
412255.000000
412973.000000
413663.000000
414332.000000
414989.000000
415658.000000
416352.000000
417061.000000
417788.000000
418516.000000
419237.000000
419948.000000
420645.000000
421328.000000
422005.000000
422677.000000
423347.000000
424011.000000
424674.000000
425340.000000
425999.000000
426660.000000
427314.000000
427982.000000
428660.000000
429348.000000
430047.000000
430755.000000
431462.000000
432162.000000
432852.000000
433532.000000
434204.000000
434874.000000
435549.000000
436230.000000
436923.000000
437625.000000
438322.000000
439019.000000
439720.000000
440420.000000
441115.000000
441801.000000
442479.000000
443143.000000
443802.000000
444451.000000
445093.000000
445728.000000
446364.000000
447006.000000
447664.000000
448332.000000
449025.000000
449732.000000
450449.000000
451170.000000
451895.000000
452625.000000
453328.000000
454017.000000
454691.000000
455351.000000
456004.000000
456659.000000
457320.000000
457995.000000
458696.000000
459440.000000
460222.000000
461036.000000
461850.000000
462634.000000
463386.000000
464115.000000
464829.000000
465528.000000
466217.000000
466899.000000
467563.000000
468220.000000
468878.000000
469553.000000
470248.000000
470968.000000
471719.000000
472468.000000
473210.000000
473938.000000
474646.000000
475331.000000
476008.000000
476668.000000
477317.000000
477958.000000
478605.000000
479264.000000
479932.000000
480607.000000
481288.000000
481978.000000
482664.000000
483352.000000
484037.000000
484716.000000
485387.000000
486059.000000
486738.000000
487425.000000
488135.000000
488871.000000
489638.000000
490414.000000
491192.000000
491951.000000
492686.000000
493405.000000
494102.000000
494778.000000
495444.000000
496106.000000
496771.000000
497450.000000
498152.000000
498875.000000
499601.000000
500327.000000
501051.000000
501766.000000
502470.000000
503161.000000
503838.000000
504507.000000
505168.000000
505826.000000
506497.000000
507180.000000
507882.000000
508587.000000
509298.000000
510008.000000
510721.000000
511440.000000
512153.000000
512864.000000
513575.000000
514276.000000
514967.000000
515655.000000
516343.000000
517025.000000
517705.000000
518394.000000
519094.000000
519798.000000
520507.000000
521227.000000
521947.000000
522665.000000
523372.000000
524077.000000
524773.000000
525467.000000
526173.000000
526888.000000
527604.000000
528332.000000
529074.000000
529810.000000
530536.000000
531260.000000
531972.000000
532681.000000
533388.000000
534092.000000
534790.000000
535487.000000
536190.000000
536895.000000
537594.000000
538294.000000
538989.000000
539677.000000
540367.000000
541063.000000
541764.000000
542472.000000
543185.000000
543895.000000
544599.000000
545302.000000
546008.000000
546703.000000
547390.000000
548076.000000
548758.000000
549443.000000
550130.000000
550815.000000
551514.000000
552219.000000
552924.000000
553629.000000
554325.000000
555006.000000
555680.000000
556351.000000
557020.000000
557689.000000
558353.000000
559022.000000
559694.000000
560370.000000
561039.000000
561707.000000
562377.000000
563043.000000
563708.000000
564370.000000
565033.000000
565689.000000
566341.000000
566996.000000
567648.000000
568292.000000
568935.000000
569579.000000
570223.000000
570873.000000
571524.000000
572181.000000
572853.000000
573539.000000
574243.000000
574970.000000
575723.000000
576463.000000
577188.000000
577901.000000
578598.000000
579280.000000
579952.000000
580616.000000
581277.000000
581933.000000
582586.000000
583235.000000
583876.000000
584503.000000
585121.000000
585726.000000
586331.000000
586940.000000
587559.000000
588199.000000
588856.000000
589534.000000
590246.000000
590953.000000
591653.000000
592352.000000
593051.000000
593747.000000
594434.000000
595123.000000
595805.000000
596480.000000
597150.000000
597812.000000
598470.000000
599127.000000
599786.000000
600458.000000
601132.000000
601813.000000
602497.000000
603182.000000
603862.000000
604541.000000
605217.000000
605894.000000
606574.000000
607273.000000
607985.000000
608704.000000
609443.000000
610182.000000
610921.000000
611668.000000
612413.000000
613151.000000
613894.000000
614635.000000
615366.000000
616095.000000
616832.000000
617580.000000
618321.000000
619061.000000
619796.000000
620537.000000
621279.000000
622021.000000
622760.000000
623508.000000
624250.000000
624988.000000
625738.000000
626494.000000
627226.000000
627959.000000
628691.000000
629415.000000
630148.000000
630866.000000
631575.000000
632271.000000
632958.000000
633635.000000
634308.000000
634980.000000
635657.000000
636340.000000
637033.000000
637734.000000
638436.000000
639130.000000
639812.000000
640486.000000
641152.000000
641798.000000
642447.000000
643095.000000
643740.000000
644392.000000
645060.000000
645736.000000
646415.000000
647099.000000
647772.000000
648440.000000
649107.000000
649778.000000
650450.000000
651133.000000
651835.000000
652548.000000
653277.000000
654022.000000
654784.000000
655533.000000
656282.000000
657028.000000
657770.000000
658493.000000
659208.000000
659909.000000
660608.000000
661307.000000
662014.000000
662738.000000
663481.000000
664223.000000
664966.000000
665699.000000
666412.000000
667121.000000
667831.000000
668541.000000
669259.000000
669966.000000
670679.000000
671413.000000
672164.000000
672920.000000
673659.000000
674389.000000
675112.000000
675837.000000
676567.000000
677300.000000
678038.000000
678766.000000
679477.000000
680182.000000
680878.000000
681573.000000
682284.000000
683042.000000
683904.000000
684766.000000
685611.000000
686404.000000
687149.000000
687855.000000
688529.000000
689199.000000
689876.000000
690590.000000
691341.000000
692094.000000
692899.000000
693762.000000
694659.000000
695529.000000
696375.000000
697181.000000
697964.000000
698725.000000
699470.000000
700198.000000
700906.000000
701602.000000
702291.000000
702988.000000
703686.000000
704394.000000
705109.000000
705834.000000
706549.000000
707268.000000
707984.000000
708703.000000
709430.000000
710173.000000
710927.000000
711684.000000
712464.000000
713257.000000
714043.000000
714829.000000
715605.000000
716371.000000
717118.000000
717854.000000
718577.000000
719288.000000
719998.000000
720706.000000
721423.000000
722150.000000
722883.000000
723638.000000
724420.000000
725189.000000
725955.000000
726704.000000
727438.000000
728164.000000
728892.000000
729624.000000
730366.000000
731121.000000
731893.000000
732678.000000
733458.000000
734242.000000
735014.000000
735763.000000
736507.000000
737241.000000
737969.000000
738680.000000
739392.000000
740105.000000
740816.000000
741522.000000
742229.000000
742933.000000
743626.000000
744318.000000
745023.000000
745737.000000
746457.000000
747203.000000
747966.000000
748731.000000
749474.000000
750209.000000
750933.000000
751647.000000
752341.000000
753025.000000
753698.000000
754368.000000
755037.000000
755714.000000
756414.000000
757130.000000
757844.000000
758558.000000
759288.000000
760047.000000
760820.000000
761581.000000
762351.000000
763109.000000
763856.000000
764596.000000
765314.000000
766026.000000
766738.000000
767449.000000
768157.000000
768876.000000
769604.000000
770331.000000
771060.000000
771791.000000
772525.000000
773254.000000
773985.000000
774717.000000
775428.000000
776139.000000
776838.000000
777535.000000
778254.000000
779009.000000
779801.000000
780615.000000
781444.000000
782244.000000
783034.000000
783796.000000
784536.000000
785263.000000
785971.000000
786662.000000
787357.000000
788060.000000
788781.000000
789539.000000
790326.000000
791116.000000
791914.000000
792689.000000
793441.000000
794181.000000
794894.000000
795588.000000
796274.000000
796955.000000
797639.000000
798340.000000
799057.000000
799792.000000
800531.000000
801276.000000
802036.000000
802787.000000
803535.000000
804283.000000
805016.000000
805736.000000
806442.000000
807136.000000
807817.000000
808502.000000
809192.000000
809899.000000
810640.000000
811403.000000
812180.000000
812953.000000
813699.000000
814425.000000
815127.000000
815813.000000
816485.000000
817154.000000
817841.000000
818549.000000
819256.000000
819952.000000
820631.000000
821301.000000
821967.000000
822636.000000
823321.000000
824027.000000
824747.000000
825486.000000
826238.000000
827007.000000
827782.000000
828539.000000
829280.000000
830000.000000
830700.000000
831400.000000
832094.000000
832793.000000
833508.000000
834244.000000
834996.000000
835740.000000
836483.000000
837219.000000
837951.000000
838676.000000
839400.000000
840115.000000
840824.000000
841537.000000
842257.000000
842983.000000
843709.000000
844450.000000
845186.000000
845919.000000
846644.000000
847361.000000
848067.000000
848773.000000
849475.000000
850173.000000
850875.000000
851575.000000
852273.000000
852973.000000
853679.000000
854397.000000
855108.000000
855813.000000
856512.000000
857199.000000
857871.000000
858540.000000
859201.000000
859851.000000
860492.000000
861139.000000
861798.000000
862472.000000
863162.000000
863864.000000
864571.000000
865272.000000
865970.000000
866664.000000
867346.000000
868025.000000
868706.000000
869398.000000
870100.000000
870829.000000
871592.000000
872374.000000
873164.000000
873947.000000
874714.000000
875463.000000
876200.000000
876928.000000
877645.000000
878360.000000
879068.000000
879775.000000
880488.000000
881205.000000
881923.000000
882648.000000
883375.000000
884107.000000
884843.000000
885570.000000
886289.000000
887011.000000
887724.000000
888427.000000
889129.000000
889820.000000
890492.000000
891161.000000
891821.000000
892466.000000
893109.000000
893753.000000
894394.000000
895039.000000
895695.000000
896365.000000
897043.000000
897726.000000
898403.000000
899071.000000
899730.000000
900379.000000
901014.000000
901642.000000
902264.000000
902884.000000
903500.000000
904108.000000
904708.000000
905313.000000
905930.000000
906577.000000
907277.000000
908015.000000
908766.000000
909544.000000
910328.000000
911090.000000
911831.000000
912549.000000
913237.000000
913910.000000
914567.000000
915215.000000
915872.000000
916542.000000
917233.000000
917967.000000
918738.000000
919541.000000
920353.000000
921165.000000
921961.000000
922728.000000
923473.000000
924198.000000
924902.000000
925594.000000
926276.000000
926946.000000
927620.000000
928308.000000
929022.000000
929767.000000
930541.000000
931335.000000
932120.000000
932886.000000
933631.000000
934358.000000
935072.000000
935782.000000
936488.000000
937190.000000
937894.000000
938593.000000
939291.000000
939976.000000
940653.000000
941325.000000
942004.000000
942692.000000
943384.000000
944076.000000
944781.000000
945496.000000
946219.000000
946945.000000
947680.000000
948406.000000
949133.000000
949849.000000
950549.000000
951245.000000
951936.000000
952635.000000
953350.000000
954080.000000
954832.000000
955594.000000
956341.000000
957083.000000
957816.000000
958540.000000
959252.000000
959957.000000
960651.000000
961333.000000
962016.000000
962710.000000
963405.000000
964113.000000
964823.000000
965536.000000
966235.000000
966928.000000
967614.000000
968294.000000
968964.000000
969621.000000
970266.000000
970913.000000
971565.000000
972238.000000
972939.000000
973669.000000
974428.000000
975188.000000
975944.000000
976690.000000
977424.000000
978135.000000
978832.000000
979518.000000
980192.000000
980874.000000
981581.000000
982331.000000
983117.000000
983943.000000
984788.000000
985610.000000
986431.000000
987217.000000
987994.000000
988754.000000
989498.000000
990242.000000
990974.000000
991692.000000
992415.000000
993147.000000
993884.000000
994630.000000
995376.000000
996112.000000
996843.000000
997573.000000
998298.000000
999021.000000
999748.000000
1000479.000000
1001207.000000
1001946.000000
1002685.000000
1003424.000000
1004162.000000
1004897.000000
1005611.000000
1006325.000000
1007035.000000
1007735.000000
1008429.000000
1009123.000000
1009812.000000
1010500.000000
1011199.000000
1011905.000000
1012618.000000
1013339.000000
1014056.000000
1014771.000000
1015495.000000
1016235.000000
1016978.000000
1017717.000000
1018454.000000
1019188.000000
1019911.000000
1020628.000000
1021340.000000
1022048.000000
1022748.000000
1023450.000000
1024155.000000
1024855.000000
1025544.000000
1026231.000000
1026906.000000
1027566.000000
1028237.000000
1028916.000000
1029598.000000
1030288.000000
1030988.000000
1031689.000000
1032395.000000
1033105.000000
1033815.000000
1034528.000000
1035245.000000
1035961.000000
1036673.000000
1037389.000000
1038100.000000
1038804.000000
1039497.000000
1040196.000000
1040897.000000
1041595.000000
1042298.000000
1043015.000000
1043734.000000
1044456.000000
1045177.000000
1045894.000000
1046606.000000
1047317.000000
1048031.000000
1048735.000000
1049446.000000
1050154.000000
1050869.000000
1051581.000000
1052295.000000
1053006.000000
1053732.000000
1054469.000000
1055222.000000
1055970.000000
1056714.000000
1057447.000000
1058168.000000
1058868.000000
1059560.000000
1060249.000000
1060942.000000
1061637.000000
1062336.000000
1063047.000000
1063768.000000
1064487.000000
1065200.000000
1065910.000000
1066613.000000
1067307.000000
1068002.000000
1068692.000000
1069380.000000
1070058.000000
1070734.000000
1071404.000000
1072071.000000
1072739.000000
1073409.000000
1074106.000000
1074828.000000
1075550.000000
1076271.000000
1076980.000000
1077676.000000
1078356.000000
1079018.000000
1079683.000000
1080359.000000
1081064.000000
1081819.000000
1082600.000000
1083407.000000
1084212.000000
1084993.000000
1085760.000000
1086513.000000
1087252.000000
1087970.000000
1088677.000000
1089366.000000
1090040.000000
1090718.000000
1091417.000000
1092141.000000
1092903.000000
1093686.000000
1094491.000000
1095291.000000
1096099.000000
1096897.000000
1097670.000000
1098438.000000
1099195.000000
1099948.000000
1100708.000000
1101456.000000
1102192.000000
1102931.000000
1103654.000000
1104359.000000
1105064.000000
1105761.000000
1106458.000000
1107154.000000
1107852.000000
1108546.000000
1109232.000000
1109923.000000
1110611.000000
1111305.000000
1112008.000000
1112711.000000
1113409.000000
1114110.000000
1114801.000000
1115479.000000
1116154.000000
1116823.000000
1117482.000000
1118149.000000
1118824.000000
1119508.000000
1120206.000000
1120906.000000
1121608.000000
1122298.000000
1122985.000000
1123667.000000
1124335.000000
1125003.000000
1125664.000000
1126318.000000
1126977.000000
1127638.000000
1128302.000000
1128969.000000
1129640.000000
1130315.000000
1130986.000000
1131655.000000
1132321.000000
1132977.000000
1133626.000000
1134267.000000
1134903.000000
1135533.000000
1136167.000000
1136817.000000
1137486.000000
1138167.000000
1138839.000000
1139500.000000
1140149.000000
1140784.000000
1141416.000000
1142060.000000
1142731.000000
1143454.000000
1144223.000000
1145043.000000
1145851.000000
1146617.000000
1147362.000000
1148096.000000
1148817.000000
1149518.000000
1150215.000000
1150904.000000
1151591.000000
1152284.000000
1152987.000000
1153716.000000
1154475.000000
1155247.000000
1156023.000000
1156780.000000
1157504.000000
1158208.000000
1158912.000000
1159614.000000
1160306.000000
1160996.000000
1161688.000000
1162379.000000
1163069.000000
1163765.000000
1164465.000000
1165168.000000
1165879.000000
1166605.000000
1167327.000000
1168047.000000
1168766.000000
1169476.000000
1170173.000000
1170866.000000
1171551.000000
1172234.000000
1172923.000000
1173622.000000
1174335.000000
1175060.000000
1175793.000000
1176529.000000
1177260.000000
1177994.000000
1178728.000000
1179461.000000
1180188.000000
1180917.000000
1181655.000000
1182387.000000
1183134.000000
1183880.000000
1184619.000000
1185358.000000
1186088.000000
1186806.000000
1187517.000000
1188213.000000
1188898.000000
1189581.000000
1190266.000000
1190957.000000
1191651.000000
1192358.000000
1193069.000000
1193782.000000
1194501.000000
1195232.000000
1195975.000000
1196720.000000
1197468.000000
1198211.000000
1198921.000000
1199622.000000
1200315.000000
1201001.000000
1201692.000000
