ECG (ms)
328.000000
940.000000
1553.000000
2163.000000
2786.000000
3426.000000
4072.000000
4702.000000
5331.000000
5969.000000
6604.000000
7231.000000
7844.000000
8468.000000
9087.000000
9701.000000
10307.000000
10917.000000
11530.000000
12142.000000
12748.000000
13347.000000
13952.000000
14556.000000
15171.000000
15789.000000
16397.000000
16998.000000
17594.000000
18192.000000
18776.000000
19361.000000
19949.000000
20543.000000
21148.000000
21761.000000
22362.000000
22964.000000
23559.000000
24155.000000
24749.000000
25338.000000
25929.000000
26520.000000
27119.000000
27729.000000
28345.000000
28963.000000
29576.000000
30182.000000
30789.000000
31392.000000
31992.000000
32598.000000
33209.000000
33849.000000
34503.000000
35177.000000
35840.000000
36512.000000
37176.000000
37848.000000
38507.000000
39166.000000
39819.000000
40460.000000
41088.000000
41757.000000
42425.000000
43101.000000
43806.000000
44528.000000
45243.000000
45937.000000
46633.000000
47324.000000
47993.000000
48638.000000
49299.000000
49956.000000
50625.000000
51305.000000
51978.000000
52640.000000
53306.000000
53994.000000
54692.000000
55373.000000
56043.000000
56690.000000
57338.000000
57987.000000
58633.000000
59295.000000
59956.000000
60619.000000
61290.000000
61958.000000
62611.000000
63258.000000
63915.000000
64580.000000
65269.000000
65958.000000
66642.000000
67329.000000
68021.000000
68699.000000
69342.000000
69980.000000
70615.000000
71248.000000
71883.000000
72531.000000
73163.000000
73796.000000
74436.000000
75079.000000
75737.000000
76381.000000
77064.000000
77761.000000
78450.000000
79148.000000
79812.000000
80473.000000
81122.000000
81753.000000
82381.000000
83020.000000
83669.000000
84310.000000
84947.000000
85563.000000
86181.000000
86788.000000
87398.000000
88012.000000
88631.000000
89260.000000
89885.000000
90502.000000
91116.000000
91731.000000
92356.000000
93008.000000
93663.000000
94319.000000
94978.000000
95645.000000
96285.000000
96929.000000
97575.000000
98224.000000
98900.000000
99594.000000
100292.000000
100996.000000
101708.000000
102397.000000
103074.000000
103718.000000
104348.000000
104977.000000
105608.000000
106253.000000
106903.000000
107571.000000
108230.000000
108885.000000
109533.000000
110194.000000
110879.000000
111597.000000
112284.000000
112976.000000
113678.000000
114364.000000
115049.000000
115734.000000
116420.000000
117088.000000
117772.000000
118467.000000
119149.000000
119828.000000
120505.000000
121184.000000
121827.000000
122482.000000
123138.000000
123806.000000
124479.000000
125151.000000
125825.000000
126465.000000
127141.000000
127811.000000
128487.000000
129170.000000
129847.000000
130516.000000
131154.000000
131807.000000
132455.000000
133125.000000
133791.000000
134479.000000
135177.000000
135877.000000
136576.000000
137280.000000
137985.000000
138651.000000
139301.000000
139977.000000
140652.000000
141330.000000
141985.000000
142667.000000
143383.000000
144072.000000
144763.000000
145477.000000
146124.000000
146779.000000
147447.000000
148108.000000
148738.000000
149380.000000
150055.000000
150746.000000
151437.000000
152119.000000
152835.000000
153547.000000
154244.000000
154927.000000
155655.000000
156330.000000
157013.000000
157738.000000
158462.000000
159144.000000
159824.000000
160525.000000
161227.000000
161911.000000
162595.000000
163258.000000
163955.000000
164684.000000
165354.000000
166070.000000
166784.000000
167482.000000
168158.000000
168841.000000
169551.000000
170253.000000
170936.000000
171612.000000
172248.000000
172881.000000
173511.000000
174147.000000
174791.000000
175451.000000
176120.000000
176808.000000
177487.000000
178156.000000
178825.000000
179504.000000
180205.000000
180909.000000
181599.000000
182252.000000
182898.000000
183547.000000
184191.000000
184852.000000
185492.000000
186131.000000
186759.000000
187393.000000
188032.000000
188677.000000
189338.000000
190014.000000
190692.000000
191356.000000
192015.000000
192678.000000
193342.000000
194000.000000
194639.000000
195280.000000
195947.000000
196628.000000
197299.000000
197953.000000
198616.000000
199294.000000
199969.000000
200625.000000
201258.000000
201889.000000
202525.000000
203173.000000
203821.000000
204481.000000
205152.000000
205824.000000
206487.000000
207181.000000
207876.000000
208570.000000
209246.000000
209940.000000
210597.000000
211288.000000
211993.000000
212688.000000
213383.000000
214062.000000
214727.000000
215447.000000
216162.000000
216884.000000
217583.000000
218262.000000
218934.000000
219605.000000
220287.000000
220970.000000
221641.000000
222307.000000
222959.000000
223609.000000
224259.000000
224918.000000
225595.000000
226283.000000
226992.000000
227700.000000
228385.000000
229039.000000
229697.000000
230346.000000
231012.000000
231684.000000
232327.000000
232975.000000
233610.000000
234242.000000
234871.000000
235501.000000
236133.000000
236770.000000
237405.000000
238033.000000
238673.000000
239318.000000
239974.000000
240605.000000
241251.000000
241922.000000
242610.000000
243306.000000
243981.000000
244658.000000
245337.000000
245997.000000
246644.000000
247310.000000
248003.000000
248679.000000
249369.000000
250083.000000
250794.000000
251480.000000
252150.000000
252807.000000
253479.000000
254124.000000
254766.000000
255405.000000
256050.000000
256720.000000
257406.000000
258110.000000
258803.000000
259493.000000
260197.000000
260876.000000
261526.000000
262197.000000
262905.000000
263592.000000
264264.000000
264907.000000
265585.000000
266282.000000
266990.000000
267677.000000
268355.000000
269037.000000
269714.000000
270398.000000
271078.000000
271795.000000
272519.000000
273196.000000
273916.000000
274629.000000
275334.000000
276044.000000
276703.000000
277364.000000
278044.000000
278722.000000
279363.000000
280015.000000
280737.000000
281440.000000
282114.000000
282824.000000
283522.000000
284198.000000
284862.000000
285528.000000
286221.000000
286895.000000
287547.000000
288225.000000
288913.000000
289584.000000
290262.000000
290923.000000
291620.000000
292342.000000
293060.000000
293731.000000
294425.000000
295162.000000
295853.000000
296531.000000
297221.000000
297900.000000
298573.000000
299262.000000
299993.000000
300720.000000
301397.000000
302079.000000
302764.000000
303468.000000
304188.000000
304860.000000
305503.000000
306142.000000
306778.000000
307411.000000
308077.000000
308755.000000
309425.000000
310109.000000
310781.000000
311453.000000
312106.000000
312781.000000
313458.000000
314159.000000
314876.000000
315609.000000
316304.000000
316995.000000
317686.000000
318382.000000
319104.000000
319833.000000
320560.000000
321247.000000
321923.000000
322611.000000
323285.000000
323939.000000
324597.000000
325262.000000
325940.000000
326614.000000
327273.000000
327938.000000
328621.000000
329313.000000
330008.000000
330684.000000
331361.000000
332035.000000
332694.000000
333353.000000
334039.000000
334736.000000
335453.000000
336146.000000
336839.000000
337528.000000
338206.000000
338877.000000
339506.000000
340143.000000
340780.000000
341437.000000
342092.000000
342754.000000
343421.000000
344061.000000
344705.000000
345351.000000
346028.000000
346710.000000
347397.000000
348070.000000
348716.000000
349393.000000
350082.000000
350782.000000
351432.000000
352117.000000
352796.000000
353499.000000
354198.000000
354887.000000
355535.000000
356194.000000
356878.000000
357569.000000
358261.000000
358946.000000
359631.000000
360308.000000
361000.000000
361688.000000
362375.000000
363020.000000
363673.000000
364333.000000
365042.000000
365737.000000
366417.000000
367106.000000
367831.000000
368541.000000
369226.000000
369897.000000
370550.000000
371201.000000
371853.000000
372500.000000
373170.000000
373833.000000
374478.000000
375135.000000
375832.000000
376514.000000
377205.000000
377844.000000
378496.000000
379165.000000
379840.000000
380480.000000
381127.000000
381796.000000
382454.000000
383098.000000
383755.000000
384423.000000
385101.000000
385775.000000
386420.000000
387099.000000
387778.000000
388428.000000
389085.000000
389780.000000
390426.000000
391071.000000
391722.000000
392378.000000
393025.000000
393669.000000
394308.000000
394947.000000
395586.000000
396229.000000
396880.000000
397517.000000
398163.000000
398821.000000
399490.000000
400166.000000
400822.000000
401470.000000
402131.000000
402786.000000
403424.000000
404076.000000
404749.000000
405424.000000
406074.000000
406735.000000
407406.000000
408052.000000
408698.000000
409343.000000
409996.000000
410650.000000
411299.000000
411945.000000
412616.000000
413280.000000
413949.000000
414613.000000
415288.000000
415977.000000
416655.000000
417318.000000
417985.000000
418657.000000
419327.000000
419982.000000
420632.000000
421288.000000
421948.000000
422600.000000
423244.000000
423872.000000
424502.000000
425146.000000
425790.000000
426441.000000
427105.000000
427783.000000
428460.000000
429119.000000
429784.000000
430465.000000
431134.000000
431795.000000
432452.000000
433119.000000
433793.000000
434459.000000
435116.000000
435785.000000
436459.000000
437132.000000
437788.000000
438458.000000
439134.000000
439808.000000
440479.000000
441154.000000
441829.000000
442515.000000
443220.000000
443947.000000
444704.000000
445412.000000
446111.000000
446827.000000
447530.000000
448220.000000
448897.000000
449555.000000
450246.000000
450939.000000
451625.000000
452311.000000
452979.000000
453674.000000
454358.000000
455043.000000
455691.000000
456348.000000
457008.000000
457683.000000
458378.000000
459080.000000
459775.000000
460481.000000
461194.000000
461931.000000
462640.000000
463328.000000
464010.000000
464678.000000
465356.000000
466039.000000
466728.000000
467419.000000
468109.000000
468799.000000
469530.000000
470272.000000
470977.000000
471676.000000
472395.000000
473114.000000
473807.000000
474476.000000
475181.000000
475880.000000
476576.000000
477274.000000
477967.000000
478657.000000
479345.000000
479999.000000
480680.000000
481383.000000
482067.000000
482743.000000
483396.000000
484044.000000
484686.000000
485325.000000
485948.000000
486564.000000
487169.000000
487782.000000
488405.000000
489022.000000
489640.000000
490266.000000
490923.000000
491606.000000
492303.000000
493036.000000
493768.000000
494474.000000
495161.000000
495845.000000
496543.000000
497275.000000
498043.000000
498811.000000
499542.000000
500249.000000
500947.000000
501645.000000
502344.000000
503047.000000
503769.000000
504467.000000
505166.000000
505854.000000
506553.000000
507274.000000
508005.000000
508744.000000
509455.000000
510220.000000
510957.000000
511639.000000
512338.000000
513054.000000
513725.000000
514397.000000
515113.000000
515825.000000
516475.000000
517158.000000
517866.000000
518569.000000
519216.000000
519889.000000
520609.000000
521304.000000
521948.000000
522602.000000
523264.000000
523961.000000
524643.000000
525324.000000
525985.000000
526683.000000
527373.000000
528042.000000
528705.000000
529387.000000
530073.000000
530732.000000
531394.000000
532059.000000
532754.000000
533451.000000
534143.000000
534822.000000
535487.000000
536153.000000
536836.000000
537505.000000
538163.000000
538810.000000
539465.000000
540146.000000
540796.000000
541440.000000
542083.000000
542741.000000
543416.000000
544094.000000
544792.000000
545511.000000
546191.000000
546887.000000
547600.000000
548277.000000
548942.000000
549621.000000
550320.000000
551014.000000
551731.000000
552420.000000
553127.000000
553840.000000
554535.000000
555222.000000
555927.000000
556619.000000
557277.000000
557969.000000
558668.000000
559373.000000
560084.000000
560768.000000
561487.000000
562207.000000
562904.000000
563606.000000
564337.000000
565080.000000
565780.000000
566493.000000
567202.000000
567894.000000
568551.000000
569236.000000
569954.000000
570648.000000
571343.000000
572018.000000
572717.000000
573455.000000
574199.000000
574942.000000
575688.000000
576397.000000
577083.000000
577767.000000
578448.000000
579127.000000
579810.000000
580496.000000
581220.000000
581944.000000
582673.000000
583391.000000
584078.000000
584769.000000
585470.000000
586151.000000
586846.000000
587552.000000
588236.000000
588910.000000
589613.000000
590306.000000
590982.000000
591666.000000
592362.000000
593028.000000
593700.000000
594370.000000
595041.000000
595694.000000
596349.000000
597017.000000
597700.000000
598397.000000
599088.000000
599765.000000
600442.000000
601151.000000
601863.000000
602541.000000
603232.000000
603923.000000
604589.000000
605256.000000
605914.000000
606563.000000
607202.000000
607854.000000
608511.000000
609160.000000
609809.000000
610472.000000
611150.000000
611811.000000
612493.000000
613196.000000
613889.000000
614569.000000
615263.000000
615965.000000
616639.000000
617323.000000
618016.000000
618688.000000
619361.000000
620052.000000
620743.000000
621424.000000
622140.000000
622860.000000
623553.000000
624239.000000
624927.000000
625624.000000
626333.000000
627038.000000
627723.000000
628430.000000
629133.000000
629803.000000
630452.000000
631096.000000
631738.000000
632374.000000
633003.000000
633633.000000
634282.000000
634954.000000
635639.000000
636326.000000
637006.000000
637667.000000
638318.000000
638967.000000
639638.000000
640332.000000
641005.000000
641671.000000
642328.000000
642994.000000
643679.000000
644378.000000
645068.000000
645740.000000
646406.000000
647069.000000
647763.000000
648484.000000
649184.000000
649868.000000
650567.000000
651294.000000
652006.000000
652707.000000
653430.000000
654162.000000
654888.000000
655594.000000
656346.000000
657088.000000
657805.000000
658532.000000
659286.000000
660043.000000
660754.000000
661475.000000
662205.000000
662953.000000
663687.000000
664406.000000
665146.000000
665885.000000
666602.000000
667338.000000
668071.000000
668786.000000
669499.000000
670214.000000
670927.000000
671625.000000
672309.000000
673006.000000
673709.000000
674407.000000
675087.000000
675780.000000
676496.000000
677203.000000
677912.000000
678658.000000
679416.000000
680148.000000
680870.000000
681601.000000
682313.000000
683010.000000
683689.000000
684407.000000
685122.000000
685828.000000
686522.000000
687226.000000
687937.000000
688669.000000
689378.000000
690073.000000
690769.000000
691465.000000
692145.000000
692806.000000
693479.000000
694175.000000
694875.000000
695588.000000
696305.000000
697001.000000
697657.000000
698332.000000
699027.000000
699734.000000
700437.000000
701125.000000
701778.000000
702429.000000
703086.000000
703757.000000
704430.000000
705098.000000
705777.000000
706472.000000
707173.000000
707844.000000
708507.000000
709170.000000
709841.000000
710527.000000
711222.000000
711925.000000
712611.000000
713290.000000
713968.000000
714642.000000
715309.000000
715945.000000
716582.000000
717223.000000
717873.000000
718553.000000
719230.000000
719909.000000
720593.000000
721315.000000
722065.000000
722814.000000
723575.000000
724294.000000
725008.000000
725747.000000
726473.000000
727194.000000
727891.000000
728603.000000
729344.000000
730061.000000
730779.000000
731463.000000
732151.000000
732854.000000
733567.000000
734274.000000
734978.000000
735669.000000
736398.000000
737141.000000
737870.000000
738553.000000
739270.000000
740005.000000
740697.000000
741396.000000
742143.000000
742867.000000
743549.000000
744266.000000
744979.000000
745677.000000
746348.000000
747056.000000
747756.000000
748436.000000
749114.000000
749790.000000
750507.000000
751229.000000
751926.000000
752630.000000
753347.000000
754059.000000
754733.000000
755414.000000
756114.000000
756783.000000
757450.000000
758141.000000
758834.000000
759512.000000
760188.000000
760881.000000
761565.000000
762228.000000
762911.000000
763624.000000
764350.000000
765055.000000
765744.000000
766434.000000
767130.000000
767810.000000
768473.000000
769137.000000
769836.000000
770536.000000
771241.000000
771914.000000
772586.000000
773313.000000
774032.000000
774714.000000
775392.000000
776104.000000
776791.000000
777448.000000
778136.000000
778815.000000
779476.000000
780143.000000
780830.000000
781524.000000
782195.000000
782855.000000
783527.000000
784207.000000
784890.000000
785571.000000
786241.000000
786910.000000
787577.000000
788240.000000
788890.000000
789540.000000
790201.000000
790879.000000
791561.000000
792235.000000
792889.000000
793546.000000
794219.000000
794894.000000
795572.000000
796231.000000
796899.000000
797587.000000
798276.000000
798939.000000
799609.000000
800294.000000
800958.000000
801614.000000
802285.000000
802956.000000
803613.000000
804289.000000
804968.000000
805635.000000
806323.000000
807029.000000
807719.000000
808425.000000
809154.000000
809896.000000
810601.000000
811303.000000
812023.000000
812828.000000
813551.000000
814267.000000
815021.000000
815748.000000
816448.000000
817172.000000
817893.000000
818596.000000
819302.000000
820027.000000
820723.000000
821438.000000
822154.000000
822849.000000
823552.000000
824260.000000
824969.000000
825646.000000
826336.000000
827037.000000
827728.000000
828444.000000
829168.000000
829879.000000
830598.000000
831343.000000
832063.000000
832773.000000
833486.000000
834168.000000
834861.000000
835584.000000
836328.000000
837050.000000
837765.000000
838480.000000
839209.000000
839946.000000
840655.000000
841332.000000
842059.000000
842765.000000
843463.000000
844171.000000
844921.000000
845652.000000
846384.000000
847148.000000
847898.000000
848613.000000
849344.000000
850056.000000
850757.000000
851486.000000
852196.000000
852882.000000
853617.000000
854340.000000
855040.000000
855774.000000
856487.000000
857174.000000
857911.000000
858626.000000
859326.000000
859997.000000
860702.000000
861378.000000
862076.000000
862749.000000
863404.000000
864059.000000
864728.000000
865425.000000
866120.000000
866804.000000
867475.000000
868141.000000
868817.000000
869497.000000
870168.000000
870820.000000
871470.000000
872131.000000
872795.000000
873453.000000
874113.000000
874778.000000
875461.000000
876154.000000
876841.000000
877521.000000
878224.000000
878926.000000
879615.000000
880288.000000
880955.000000
881618.000000
882284.000000
882958.000000
883651.000000
884333.000000
884996.000000
885655.000000
886316.000000
886997.000000
887688.000000
888385.000000
889063.000000
889730.000000
890411.000000
891084.000000
891749.000000
892427.000000
893125.000000
893818.000000
894510.000000
895212.000000
895889.000000
896560.000000
897233.000000
897905.000000
898577.000000
899276.000000
899958.000000
