ECG (ms)
489.000000
1323.000000
2225.000000
3196.000000
4151.000000
5132.000000
6185.000000
7190.000000
8109.000000
9033.000000
9994.000000
10829.000000
11715.000000
12628.000000
13572.000000
14484.000000
15525.000000
16639.000000
17538.000000
18412.000000
19266.000000
20039.000000
20772.000000
21529.000000
22640.000000
23571.000000
24533.000000
25581.000000
26494.000000
27419.000000
28319.000000
29232.000000
30372.000000
31319.000000
32231.000000
33154.000000
34047.000000
35015.000000
35943.000000
36940.000000
37909.000000
38926.000000
39950.000000
40887.000000
41841.000000
42759.000000
43677.000000
44629.000000
45533.000000
46532.000000
47535.000000
48550.000000
49544.000000
50508.000000
51513.000000
52435.000000
53407.000000
54351.000000
55300.000000
56310.000000
57260.000000
58257.000000
59173.000000
60152.000000
61096.000000
62038.000000
63011.000000
63970.000000
64977.000000
65976.000000
66907.000000
67850.000000
68765.000000
69624.000000
70524.000000
71395.000000
72259.000000
73168.000000
74033.000000
74939.000000
75799.000000
76680.000000
77559.000000
78389.000000
79251.000000
80145.000000
81046.000000
81977.000000
82898.000000
83911.000000
84830.000000
85766.000000
86734.000000
87616.000000
88536.000000
89431.000000
90440.000000
91511.000000
92532.000000
93573.000000
94548.000000
95555.000000
96538.000000
97595.000000
98617.000000
99678.000000
100638.000000
101599.000000
102498.000000
103437.000000
104507.000000
105437.000000
106389.000000
107329.000000
108344.000000
109421.000000
110441.000000
111447.000000
112471.000000
113409.000000
114356.000000
115287.000000
116237.000000
117234.000000
118159.000000
119063.000000
119916.000000
120830.000000
121691.000000
122544.000000
123461.000000
124348.000000
125187.000000
126088.000000
126938.000000
127811.000000
128669.000000
129515.000000
130384.000000
131257.000000
132141.000000
133051.000000
133947.000000
134902.000000
135789.000000
136712.000000
137672.000000
138594.000000
139513.000000
140472.000000
141457.000000
142581.000000
143579.000000
144583.000000
145516.000000
146441.000000
147376.000000
148331.000000
149269.000000
150253.000000
151159.000000
152131.000000
153064.000000
153986.000000
154944.000000
155942.000000
156887.000000
157855.000000
158815.000000
159651.000000
160454.000000
161356.000000
162549.000000
163633.000000
164683.000000
165747.000000
166769.000000
167736.000000
168699.000000
169563.000000
170424.000000
171243.000000
172155.000000
173206.000000
174385.000000
175406.000000
176293.000000
177192.000000
178045.000000
178900.000000
179876.000000
180802.000000
181731.000000
182631.000000
183493.000000
184347.000000
185209.000000
186041.000000
186908.000000
187796.000000
188649.000000
189534.000000
190376.000000
191176.000000
192033.000000
192895.000000
193731.000000
194581.000000
195439.000000
196336.000000
197165.000000
198017.000000
198851.000000
199704.000000
200504.000000
201338.000000
202236.000000
203149.000000
204028.000000
205008.000000
206004.000000
206890.000000
207811.000000
208749.000000
209728.000000
210768.000000
211787.000000
212669.000000
213537.000000
214394.000000
215287.000000
216288.000000
217203.000000
218138.000000
219189.000000
220095.000000
221025.000000
221945.000000
222836.000000
223749.000000
224682.000000
225605.000000
226516.000000
227391.000000
228314.000000
229199.000000
230064.000000
230891.000000
231707.000000
232576.000000
233468.000000
234304.000000
235211.000000
236134.000000
236988.000000
237983.000000
238967.000000
239838.000000
240723.000000
241639.000000
242560.000000
243506.000000
244452.000000
245477.000000
246475.000000
247505.000000
248525.000000
249413.000000
250302.000000
251187.000000
252051.000000
252991.000000
253930.000000
254865.000000
255856.000000
256808.000000
257693.000000
258566.000000
259418.000000
260322.000000
261350.000000
262281.000000
263275.000000
264255.000000
265157.000000
266073.000000
266912.000000
267748.000000
268634.000000
269462.000000
270365.000000
271299.000000
272184.000000
273102.000000
273984.000000
274824.000000
275748.000000
276688.000000
277559.000000
278525.000000
279430.000000
280300.000000
281207.000000
282071.000000
282933.000000
283802.000000
284661.000000
285654.000000
286579.000000
287504.000000
288440.000000
289310.000000
290211.000000
291065.000000
291908.000000
292765.000000
293631.000000
294569.000000
295764.000000
296800.000000
297884.000000
298936.000000
299867.000000
300809.000000
301735.000000
302672.000000
303609.000000
304497.000000
305408.000000
306346.000000
307230.000000
308196.000000
309124.000000
310028.000000
311003.000000
311925.000000
312910.000000
313865.000000
314732.000000
315627.000000
316486.000000
317306.000000
318162.000000
319050.000000
320004.000000
321146.000000
322128.000000
323087.000000
323986.000000
324875.000000
325820.000000
326726.000000
327691.000000
328689.000000
329643.000000
330605.000000
331518.000000
332497.000000
333464.000000
334383.000000
335308.000000
336144.000000
336984.000000
337990.000000
338976.000000
339977.000000
341023.000000
342041.000000
342985.000000
343938.000000
344917.000000
345874.000000
346807.000000
347722.000000
348673.000000
349588.000000
350511.000000
351386.000000
352284.000000
353236.000000
354142.000000
355100.000000
356041.000000
356923.000000
357826.000000
358699.000000
359656.000000
360631.000000
361585.000000
362565.000000
363545.000000
364519.000000
365471.000000
366462.000000
367373.000000
368309.000000
369196.000000
370079.000000
371013.000000
371942.000000
372953.000000
373933.000000
374953.000000
375974.000000
376936.000000
377912.000000
378852.000000
379819.000000
380810.000000
381752.000000
382709.000000
383665.000000
384553.000000
385431.000000
386423.000000
387394.000000
388444.000000
389524.000000
390516.000000
391529.000000
392517.000000
393482.000000
394460.000000
395407.000000
396384.000000
397344.000000
398338.000000
399371.000000
400297.000000
401246.000000
402216.000000
403141.000000
404135.000000
405104.000000
406158.000000
407244.000000
408230.000000
409256.000000
410222.000000
411154.000000
412101.000000
413007.000000
414014.000000
415024.000000
415983.000000
416988.000000
417920.000000
418896.000000
419854.000000
420837.000000
421857.000000
422839.000000
423853.000000
424832.000000
425785.000000
426792.000000
427817.000000
428791.000000
429796.000000
430798.000000
431704.000000
432643.000000
433500.000000
434389.000000
435294.000000
436494.000000
437581.000000
438543.000000
439521.000000
440405.000000
441293.000000
442196.000000
443067.000000
443936.000000
445072.000000
446240.000000
447303.000000
448335.000000
449397.000000
450401.000000
451415.000000
452392.000000
453349.000000
454335.000000
455208.000000
456089.000000
456978.000000
457841.000000
458940.000000
459961.000000
460862.000000
461825.000000
462747.000000
463633.000000
464582.000000
465541.000000
466445.000000
467391.000000
468333.000000
469232.000000
470197.000000
471122.000000
472135.000000
473281.000000
474343.000000
475341.000000
476237.000000
477102.000000
478050.000000
479158.000000
480251.000000
481361.000000
482420.000000
483475.000000
484491.000000
485393.000000
486384.000000
487444.000000
488418.000000
489365.000000
490441.000000
491417.000000
492319.000000
493324.000000
494344.000000
495230.000000
496178.000000
497162.000000
498114.000000
499080.000000
500132.000000
501083.000000
502068.000000
503039.000000
503914.000000
504795.000000
505725.000000
506796.000000
507718.000000
508676.000000
509589.000000
510456.000000
511275.000000
512086.000000
512918.000000
513783.000000
514944.000000
516020.000000
517028.000000
518015.000000
518990.000000
519880.000000
520765.000000
521631.000000
522486.000000
523343.000000
524225.000000
525163.000000
526092.000000
527182.000000
528203.000000
529148.000000
530079.000000
531029.000000
531899.000000
532748.000000
533656.000000
534671.000000
535652.000000
536690.000000
537695.000000
538625.000000
539546.000000
540482.000000
541440.000000
542337.000000
543225.000000
544067.000000
544854.000000
545712.000000
546944.000000
548078.000000
549075.000000
550082.000000
551062.000000
551984.000000
552930.000000
553901.000000
554796.000000
555681.000000
556630.000000
557541.000000
558477.000000
559365.000000
560195.000000
560981.000000
561836.000000
563010.000000
563965.000000
565021.000000
566074.000000
567067.000000
568039.000000
568986.000000
569862.000000
570752.000000
571646.000000
572479.000000
573321.000000
574213.000000
575067.000000
575952.000000
576884.000000
577823.000000
578671.000000
579548.000000
580463.000000
581384.000000
582288.000000
583210.000000
584213.000000
585123.000000
586093.000000
587117.000000
588029.000000
588903.000000
589677.000000
590520.000000
591678.000000
592667.000000
593693.000000
594706.000000
595703.000000
596713.000000
597761.000000
598774.000000
599771.000000
600815.000000
601838.000000
602849.000000
603889.000000
604905.000000
605859.000000
606865.000000
607862.000000
608804.000000
609807.000000
610758.000000
611645.000000
612610.000000
613534.000000
614417.000000
615312.000000
616232.000000
617086.000000
618086.000000
619107.000000
619961.000000
620845.000000
621757.000000
622657.000000
623568.000000
624659.000000
625810.000000
626789.000000
627736.000000
628596.000000
629430.000000
630282.000000
631165.000000
632120.000000
633030.000000
634113.000000
635077.000000
635972.000000
637064.000000
638030.000000
638898.000000
639788.000000
640791.000000
641817.000000
642867.000000
643933.000000
644840.000000
645712.000000
646578.000000
647378.000000
648219.000000
649182.000000
650209.000000
651169.000000
652320.000000
653370.000000
654323.000000
655307.000000
656182.000000
657010.000000
657863.000000
658731.000000
659625.000000
660781.000000
661860.000000
662781.000000
663703.000000
664657.000000
665548.000000
666471.000000
667408.000000
668337.000000
669346.000000
670393.000000
671436.000000
672385.000000
673406.000000
674354.000000
675324.000000
676388.000000
677486.000000
678477.000000
679423.000000
680364.000000
681236.000000
682136.000000
683011.000000
683880.000000
684924.000000
686056.000000
687132.000000
688108.000000
689067.000000
689958.000000
690867.000000
692078.000000
693148.000000
694136.000000
695173.000000
696126.000000
697038.000000
698068.000000
699055.000000
699983.000000
700965.000000
701919.000000
702893.000000
703962.000000
705020.000000
705946.000000
706871.000000
707810.000000
708725.000000
709635.000000
710789.000000
711857.000000
712772.000000
713745.000000
714782.000000
715751.000000
716707.000000
717752.000000
718937.000000
719985.000000
721081.000000
722154.000000
723146.000000
724145.000000
725176.000000
726186.000000
727189.000000
728233.000000
729287.000000
730290.000000
731315.000000
732351.000000
733357.000000
734423.000000
735501.000000
736503.000000
737527.000000
738585.000000
739581.000000
740661.000000
741737.000000
742721.000000
743635.000000
744586.000000
745472.000000
746444.000000
747443.000000
748326.000000
749356.000000
750485.000000
751429.000000
752310.000000
753152.000000
753947.000000
754775.000000
755612.000000
756377.000000
757260.000000
758329.000000
759190.000000
760089.000000
761056.000000
761959.000000
762903.000000
763967.000000
765091.000000
766095.000000
767111.000000
768004.000000
768889.000000
770025.000000
771085.000000
772176.000000
773295.000000
774368.000000
775415.000000
776457.000000
777418.000000
778333.000000
779368.000000
780355.000000
781345.000000
782388.000000
783397.000000
784342.000000
785279.000000
786266.000000
787175.000000
788101.000000
789089.000000
790005.000000
790959.000000
791907.000000
792824.000000
793765.000000
794795.000000
795802.000000
796779.000000
797774.000000
798688.000000
799592.000000
800517.000000
801384.000000
802393.000000
803411.000000
804367.000000
805373.000000
806426.000000
807361.000000
808345.000000
809334.000000
810229.000000
811249.000000
812314.000000
813365.000000
814479.000000
815516.000000
816594.000000
817519.000000
818460.000000
819470.000000
820636.000000
821687.000000
822790.000000
823793.000000
824825.000000
825818.000000
826727.000000
827700.000000
828736.000000
829772.000000
830777.000000
831807.000000
832715.000000
833679.000000
834687.000000
835749.000000
836806.000000
837800.000000
838698.000000
839620.000000
840559.000000
841711.000000
842870.000000
843899.000000
844916.000000
845809.000000
846671.000000
847584.000000
848551.000000
849435.000000
850344.000000
851510.000000
852504.000000
853430.000000
854308.000000
855181.000000
856049.000000
857015.000000
858191.000000
859184.000000
860088.000000
861001.000000
861856.000000
862665.000000
863588.000000
864825.000000
865972.000000
867050.000000
868169.000000
869263.000000
870320.000000
871383.000000
872360.000000
873320.000000
874330.000000
875294.000000
876311.000000
877362.000000
878341.000000
879354.000000
880375.000000
881347.000000
882356.000000
883406.000000
884410.000000
885398.000000
886400.000000
887357.000000
888339.000000
889328.000000
890300.000000
891252.000000
892202.000000
893149.000000
894079.000000
895129.000000
896248.000000
897205.000000
898099.000000
898998.000000
899861.000000
900651.000000
901393.000000
902090.000000
902858.000000
903805.000000
904735.000000
905729.000000
906633.000000
907564.000000
908519.000000
909379.000000
910274.000000
911115.000000
911951.000000
912787.000000
913665.000000
914522.000000
915355.000000
916218.000000
917090.000000
917944.000000
918822.000000
919671.000000
920490.000000
921343.000000
922242.000000
