ECG (ms)
80.000000
917.000000
1715.000000
2574.000000
3380.000000
4277.000000
5271.000000
6225.000000
7200.000000
8030.000000
8822.000000
9594.000000
10508.000000
11719.000000
12720.000000
13731.000000
14741.000000
15700.000000
16692.000000
17633.000000
18533.000000
19454.000000
20485.000000
21520.000000
22470.000000
23464.000000
24469.000000
25434.000000
26427.000000
27413.000000
28354.000000
29346.000000
30349.000000
31293.000000
32195.000000
33177.000000
34175.000000
35163.000000
36166.000000
37188.000000
38173.000000
39136.000000
40095.000000
41076.000000
42061.000000
43007.000000
43992.000000
44982.000000
45938.000000
46934.000000
47953.000000
48947.000000
49983.000000
50972.000000
51993.000000
53036.000000
54014.000000
55051.000000
56063.000000
57058.000000
58090.000000
59074.000000
60025.000000
60947.000000
61883.000000
62878.000000
63857.000000
64791.000000
65674.000000
66531.000000
67399.000000
68380.000000
69382.000000
70387.000000
71359.000000
72281.000000
73240.000000
74151.000000
75023.000000
75968.000000
76984.000000
77914.000000
78863.000000
79836.000000
80804.000000
81780.000000
82761.000000
83698.000000
84664.000000
85635.000000
86574.000000
87551.000000
88540.000000
89533.000000
90574.000000
91599.000000
92607.000000
93632.000000
94617.000000
95621.000000
96632.000000
97598.000000
98591.000000
99582.000000
100549.000000
101552.000000
102533.000000
103504.000000
104519.000000
105517.000000
106503.000000
107514.000000
108488.000000
109486.000000
110469.000000
111393.000000
112299.000000
113185.000000
114103.000000
115049.000000
115966.000000
116940.000000
117928.000000
118874.000000
119859.000000
120815.000000
121769.000000
122761.000000
123718.000000
124691.000000
125684.000000
126631.000000
127615.000000
128610.000000
129566.000000
130566.000000
131570.000000
132518.000000
133516.000000
134520.000000
135463.000000
136454.000000
137445.000000
138386.000000
139384.000000
140356.000000
141286.000000
142202.000000
143015.000000
143782.000000
144570.000000
145497.000000
146663.000000
147678.000000
148634.000000
149614.000000
150614.000000
151562.000000
152514.000000
153495.000000
154456.000000
155362.000000
156229.000000
157056.000000
158061.000000
159072.000000
159985.000000
160926.000000
161875.000000
162789.000000
163730.000000
164696.000000
165628.000000
166610.000000
167602.000000
168553.000000
169550.000000
170543.000000
171522.000000
172513.000000
173453.000000
174440.000000
175434.000000
176395.000000
177387.000000
178360.000000
179335.000000
180337.000000
181308.000000
182289.000000
183284.000000
184227.000000
185186.000000
186168.000000
187103.000000
188081.000000
189068.000000
190021.000000
191020.000000
191984.000000
192969.000000
193965.000000
194917.000000
195908.000000
196881.000000
197840.000000
198812.000000
199741.000000
200707.000000
201645.000000
202579.000000
203544.000000
204457.000000
205403.000000
206344.000000
207261.000000
208213.000000
209133.000000
210074.000000
211004.000000
211895.000000
212768.000000
213679.000000
214608.000000
215509.000000
216456.000000
217407.000000
218322.000000
219195.000000
220072.000000
220981.000000
221932.000000
222883.000000
223813.000000
224716.000000
225660.000000
226622.000000
227539.000000
228507.000000
229505.000000
230482.000000
231427.000000
232387.000000
233308.000000
234244.000000
235129.000000
236095.000000
237064.000000
237987.000000
238953.000000
239923.000000
240878.000000
241851.000000
242779.000000
243747.000000
244722.000000
245671.000000
246654.000000
247624.000000
248621.000000
249609.000000
250580.000000
251576.000000
252530.000000
253524.000000
254521.000000
255465.000000
256451.000000
257437.000000
258380.000000
259358.000000
260338.000000
261282.000000
262273.000000
263233.000000
264194.000000
265190.000000
266147.000000
267107.000000
268102.000000
269046.000000
270020.000000
271001.000000
271949.000000
272947.000000
273912.000000
274887.000000
275883.000000
276835.000000
277824.000000
278820.000000
279792.000000
280811.000000
281790.000000
282805.000000
283815.000000
284795.000000
285808.000000
286776.000000
287784.000000
288764.000000
289752.000000
290746.000000
291700.000000
292719.000000
293690.000000
294672.000000
295652.000000
296587.000000
297503.000000
298461.000000
299444.000000
300394.000000
301387.000000
302365.000000
303333.000000
304325.000000
305276.000000
306218.000000
307189.000000
308124.000000
309090.000000
310085.000000
311039.000000
312047.000000
313024.000000
313974.000000
314947.000000
315880.000000
316825.000000
317790.000000
318718.000000
319700.000000
320646.000000
321597.000000
322567.000000
323498.000000
324460.000000
325401.000000
326331.000000
327282.000000
328197.000000
329145.000000
330113.000000
331055.000000
332031.000000
332965.000000
333933.000000
334911.000000
335852.000000
336825.000000
337754.000000
338701.000000
339663.000000
340582.000000
341534.000000
342466.000000
343412.000000
344396.000000
345334.000000
346316.000000
347293.000000
348241.000000
349237.000000
350212.000000
351170.000000
352141.000000
353087.000000
354069.000000
355012.000000
355965.000000
356928.000000
357848.000000
358813.000000
359741.000000
360688.000000
361639.000000
362557.000000
363522.000000
364466.000000
365408.000000
366372.000000
367301.000000
368288.000000
369243.000000
370195.000000
371174.000000
372108.000000
373073.000000
374030.000000
374955.000000
375919.000000
376857.000000
377789.000000
378752.000000
379680.000000
380654.000000
381639.000000
382592.000000
383582.000000
384543.000000
385514.000000
386493.000000
387424.000000
388381.000000
389315.000000
390259.000000
391223.000000
392170.000000
393161.000000
394130.000000
395099.000000
396103.000000
397072.000000
398042.000000
399035.000000
399981.000000
400939.000000
401909.000000
402840.000000
403717.000000
404544.000000
405443.000000
406406.000000
407316.000000
408287.000000
409198.000000
410039.000000
410867.000000
411800.000000
412753.000000
413636.000000
414581.000000
415546.000000
416442.000000
417379.000000
418360.000000
419262.000000
420193.000000
421146.000000
422056.000000
423041.000000
424042.000000
425002.000000
426015.000000
426969.000000
427962.000000
428962.000000
429932.000000
430944.000000
431906.000000
432878.000000
433860.000000
434806.000000
435807.000000
436787.000000
437738.000000
438734.000000
439719.000000
440701.000000
441707.000000
442675.000000
443671.000000
444660.000000
445628.000000
446626.000000
447590.000000
448580.000000
449580.000000
450563.000000
451572.000000
452540.000000
453541.000000
454527.000000
455484.000000
456483.000000
457450.000000
458419.000000
459414.000000
460372.000000
461367.000000
462367.000000
463324.000000
464313.000000
465288.000000
466236.000000
467229.000000
468201.000000
469156.000000
470148.000000
471102.000000
472078.000000
473066.000000
474010.000000
474988.000000
475936.000000
476901.000000
477876.000000
478815.000000
479781.000000
480716.000000
481620.000000
482532.000000
483471.000000
484397.000000
485312.000000
486258.000000
487167.000000
488107.000000
489070.000000
490018.000000
490903.000000
491762.000000
492639.000000
493585.000000
494562.000000
495537.000000
496513.000000
497471.000000
498472.000000
499474.000000
500438.000000
501439.000000
502432.000000
503413.000000
504414.000000
505408.000000
506356.000000
507335.000000
508308.000000
509242.000000
510201.000000
511171.000000
512105.000000
513022.000000
513908.000000
514855.000000
515833.000000
516744.000000
517689.000000
518645.000000
519574.000000
520509.000000
521453.000000
522385.000000
523329.000000
524286.000000
525218.000000
526159.000000
527118.000000
528060.000000
529019.000000
530005.000000
530954.000000
531952.000000
532933.000000
533907.000000
534906.000000
535868.000000
536859.000000
537821.000000
538790.000000
539787.000000
540746.000000
541733.000000
542699.000000
543678.000000
544657.000000
545618.000000
546620.000000
547580.000000
548567.000000
549561.000000
550523.000000
551522.000000
552478.000000
553458.000000
554454.000000
555416.000000
556419.000000
557388.000000
558364.000000
559358.000000
560309.000000
561298.000000
562255.000000
563213.000000
564207.000000
565158.000000
566143.000000
567129.000000
568090.000000
569085.000000
570033.000000
571006.000000
571992.000000
572955.000000
573953.000000
574913.000000
575923.000000
576937.000000
577912.000000
578931.000000
579916.000000
580899.000000
581919.000000
582852.000000
583760.000000
584725.000000
585678.000000
586598.000000
587497.000000
588422.000000
589360.000000
590259.000000
591182.000000
592122.000000
593028.000000
593981.000000
594913.000000
595846.000000
596806.000000
597731.000000
598687.000000
599663.000000
600622.000000
601616.000000
602603.000000
603564.000000
604556.000000
605514.000000
606494.000000
607477.000000
608448.000000
609445.000000
610423.000000
611418.000000
612429.000000
613378.000000
614286.000000
615273.000000
616309.000000
617306.000000
618295.000000
619312.000000
620281.000000
621269.000000
622279.000000
623252.000000
624165.000000
625042.000000
625924.000000
626896.000000
627911.000000
628933.000000
629923.000000
630861.000000
631811.000000
632710.000000
633602.000000
634551.000000
635407.000000
636213.000000
637028.000000
637826.000000
638611.000000
639461.000000
640378.000000
641340.000000
642324.000000
643314.000000
644301.000000
645217.000000
646108.000000
646969.000000
647803.000000
648609.000000
649364.000000
650119.000000
650952.000000
651896.000000
652851.000000
653730.000000
654609.000000
655516.000000
656453.000000
657322.000000
658245.000000
659281.000000
660387.000000
661437.000000
662443.000000
663439.000000
664386.000000
665371.000000
666366.000000
667361.000000
668330.000000
669332.000000
670337.000000
671322.000000
672340.000000
673341.000000
674325.000000
675343.000000
676351.000000
677349.000000
678374.000000
679379.000000
680381.000000
681416.000000
682405.000000
683399.000000
684426.000000
685432.000000
686448.000000
687491.000000
688490.000000
689507.000000
690550.000000
691556.000000
692597.000000
693648.000000
694655.000000
695707.000000
696750.000000
697790.000000
698868.000000
699893.000000
700922.000000
701971.000000
702985.000000
704023.000000
705059.000000
706072.000000
707080.000000
708033.000000
708921.000000
709766.000000
710713.000000
711781.000000
712737.000000
713770.000000
714762.000000
715731.000000
716738.000000
717713.000000
718726.000000
719753.000000
720731.000000
721771.000000
722808.000000
723813.000000
724851.000000
725845.000000
726885.000000
727922.000000
728941.000000
729992.000000
730998.000000
732024.000000
733076.000000
734087.000000
735108.000000
735687.000000
736919.000000
738041.000000
739115.000000
740113.000000
741159.000000
742199.000000
743211.000000
744266.000000
745290.000000
746331.000000
747387.000000
748396.000000
749443.000000
750429.000000
751403.000000
752280.000000
753112.000000
753906.000000
754788.000000
755721.000000
756617.000000
757565.000000
758537.000000
759401.000000
760205.000000
761062.000000
762055.000000
763103.000000
764056.000000
765090.000000
766122.000000
767127.000000
768139.000000
769119.000000
770145.000000
771170.000000
772159.000000
773185.000000
774191.000000
775208.000000
776245.000000
777230.000000
778243.000000
779234.000000
780221.000000
781234.000000
782216.000000
783259.000000
784280.000000
785301.000000
786359.000000
787366.000000
788408.000000
789411.000000
790431.000000
791459.000000
792437.000000
793452.000000
794449.000000
795450.000000
796479.000000
797473.000000
798505.000000
799510.000000
800508.000000
801536.000000
802519.000000
803532.000000
804561.000000
805551.000000
806605.000000
807629.000000
808648.000000
809697.000000
810694.000000
811716.000000
812752.000000
813732.000000
814669.000000
815639.000000
816643.000000
817645.000000
818632.000000
819677.000000
820688.000000
821697.000000
822737.000000
823737.000000
824770.000000
825783.000000
826786.000000
827793.000000
828743.000000
829702.000000
830704.000000
831721.000000
832699.000000
833690.000000
834702.000000
835690.000000
836669.000000
837679.000000
838672.000000
839648.000000
840651.000000
841650.000000
842665.000000
843694.000000
844675.000000
845699.000000
846732.000000
847701.000000
848715.000000
849743.000000
850747.000000
851804.000000
852827.000000
853857.000000
854910.000000
855926.000000
856963.000000
857934.000000
858921.000000
859942.000000
860920.000000
861905.000000
862922.000000
863904.000000
864923.000000
865916.000000
866908.000000
867944.000000
868933.000000
869942.000000
870966.000000
871927.000000
872831.000000
873695.000000
874622.000000
875663.000000
876676.000000
877689.000000
878654.000000
879673.000000
880693.000000
881675.000000
882653.000000
883627.000000
884572.000000
885482.000000
886391.000000
887247.000000
888146.000000
889083.000000
889990.000000
890883.000000
891867.000000
892936.000000
893932.000000
894921.000000
895906.000000
896876.000000
897870.000000
898866.000000
899840.000000
900856.000000
901888.000000
902886.000000
903906.000000
904918.000000
905903.000000
906917.000000
907903.000000
908852.000000
909841.000000
910827.000000
911809.000000
912805.000000
913786.000000
914776.000000
915778.000000
916764.000000
917754.000000
918772.000000
919760.000000
920745.000000
921749.000000
922709.000000
923697.000000
924695.000000
925663.000000
926678.000000
927676.000000
928659.000000
929670.000000
930654.000000
931665.000000
932650.000000
933615.000000
934625.000000
935595.000000
936508.000000
937455.000000
938436.000000
939401.000000
940354.000000
941336.000000
942316.000000
943277.000000
944263.000000
945243.000000
946226.000000
947233.000000
948242.000000
949232.000000
950254.000000
951248.000000
952235.000000
953257.000000
954267.000000
955270.000000
956291.000000
957265.000000
958261.000000
959289.000000
960276.000000
961267.000000
962252.000000
963191.000000
964094.000000
964897.000000
965735.000000
966840.000000
967829.000000
968771.000000
969761.000000
970757.000000
971730.000000
972738.000000
973745.000000
974732.000000
975741.000000
976727.000000
977738.000000
978762.000000
979748.000000
980763.000000
981783.000000
982787.000000
983803.000000
984838.000000
985847.000000
986865.000000
987905.000000
988883.000000
989798.000000
990752.000000
991770.000000
992798.000000
993809.000000
994794.000000
995833.000000
996873.000000
997873.000000
998909.000000
999929.000000
1000915.000000
1001945.000000
1002947.000000
1003918.000000
1004906.000000
1005862.000000
1006781.000000
1007643.000000
1008583.000000
1009671.000000
1010670.000000
1011638.000000
1012622.000000
1013581.000000
1014557.000000
1015557.000000
1016522.000000
1017471.000000
1018458.000000
1019461.000000
1020441.000000
1021454.000000
1022474.000000
1023461.000000
1024485.000000
1025503.000000
1026486.000000
1027494.000000
1028516.000000
1029519.000000
1030550.000000
1031568.000000
1032586.000000
1033636.000000
1034645.000000
1035659.000000
1036702.000000
1037698.000000
1038709.000000
1039724.000000
1040695.000000
1041708.000000
1042698.000000
1043631.000000
1044611.000000
1045608.000000
1046555.000000
1047479.000000
1048412.000000
1049317.000000
1050201.000000
1051076.000000
1051941.000000
1052774.000000
1053633.000000
1054495.000000
1055329.000000
1056187.000000
1057075.000000
1057935.000000
1058791.000000
1059676.000000
1060578.000000
1061446.000000
1062358.000000
1063314.000000
1064179.000000
1065061.000000
1066091.000000
1067028.000000
1067956.000000
1068927.000000
1069899.000000
1070871.000000
1071864.000000
1072840.000000
1073820.000000
1074800.000000
1075775.000000
1076774.000000
1077750.000000
1078713.000000
1079702.000000
1080684.000000
1081680.000000
1082683.000000
1083654.000000
1084645.000000
1085621.000000
1086594.000000
1087596.000000
1088597.000000
1089595.000000
1090623.000000
1091608.000000
1092622.000000
1093640.000000
1094615.000000
1095625.000000
1096611.000000
1097553.000000
1098456.000000
1099412.000000
1100389.000000
1101357.000000
1102240.000000
1103101.000000
1103895.000000
1104723.000000
1105665.000000
1106668.000000
1107587.000000
1108479.000000
1109363.000000
1110285.000000
1111238.000000
1112118.000000
1113043.000000
1114013.000000
1114978.000000
1115915.000000
1116858.000000
1117829.000000
1118784.000000
1119684.000000
1120633.000000
1121556.000000
1122477.000000
1123504.000000
1124613.000000
1125642.000000
1126746.000000
1127768.000000
1128756.000000
1129840.000000
1130787.000000
1131716.000000
1132696.000000
1133722.000000
1134713.000000
1135585.000000
1136544.000000
1137579.000000
1138556.000000
1139568.000000
1140548.000000
1141474.000000
1142431.000000
1143401.000000
1144320.000000
1145325.000000
1146344.000000
1147325.000000
1148322.000000
1149277.000000
1150273.000000
1151295.000000
1152300.000000
1153305.000000
1154268.000000
1155251.000000
1156244.000000
1157212.000000
1158207.000000
1159227.000000
1160230.000000
1161262.000000
1162291.000000
1163265.000000
1164268.000000
1165277.000000
1166251.000000
1167269.000000
1168258.000000
1169240.000000
1170259.000000
1171267.000000
1172288.000000
1173302.000000
1174271.000000
1175269.000000
1176259.000000
1177184.000000
1178134.000000
1179102.000000
1180026.000000
1180936.000000
1181876.000000
1182845.000000
1183796.000000
1184756.000000
1185743.000000
1186724.000000
1187704.000000
1188711.000000
1189679.000000
1190636.000000
1191620.000000
1192607.000000
1193538.000000
1194442.000000
1195374.000000
1196357.000000
1197355.000000
1198308.000000
1199302.000000
1200315.000000
1201301.000000
1202316.000000
1203341.000000
1204381.000000
1205411.000000
