ECG (ms)
393.000000
1255.000000
2171.000000
3111.000000
4002.000000
4965.000000
5903.000000
6790.000000
7690.000000
8473.000000
9215.000000
10038.000000
10891.000000
11764.000000
12738.000000
13608.000000
14553.000000
15417.000000
16251.000000
17189.000000
18118.000000
19026.000000
19969.000000
20837.000000
21774.000000
22725.000000
23658.000000
24591.000000
25447.000000
26356.000000
27179.000000
28016.000000
28868.000000
29637.000000
30369.000000
31107.000000
31911.000000
32709.000000
33545.000000
34431.000000
35314.000000
36231.000000
37148.000000
38027.000000
38968.000000
39841.000000
40744.000000
41666.000000
42567.000000
43486.000000
44384.000000
45279.000000
46218.000000
47087.000000
47942.000000
48816.000000
49632.000000
50436.000000
51314.000000
52237.000000
53161.000000
54029.000000
54832.000000
55635.000000
56384.000000
57104.000000
57876.000000
58665.000000
59593.000000
60584.000000
61559.000000
62525.000000
63398.000000
64299.000000
65195.000000
66009.000000
66857.000000
67741.000000
68567.000000
69456.000000
70363.000000
71234.000000
72174.000000
73067.000000
73970.000000
74899.000000
75768.000000
76716.000000
77666.000000
78546.000000
79496.000000
80383.000000
81248.000000
82163.000000
83003.000000
83912.000000
84785.000000
85664.000000
86607.000000
87442.000000
88316.000000
89226.000000
90129.000000
91060.000000
91981.000000
92902.000000
93742.000000
94567.000000
95379.000000
96227.000000
97039.000000
97915.000000
98742.000000
99669.000000
100609.000000
101515.000000
102412.000000
103238.000000
104089.000000
104952.000000
105764.000000
106593.000000
107433.000000
108241.000000
109103.000000
110048.000000
110971.000000
111886.000000
112714.000000
113489.000000
114310.000000
115141.000000
116020.000000
116905.000000
117758.000000
118652.000000
119538.000000
120381.000000
121244.000000
122127.000000
122952.000000
123866.000000
124803.000000
125680.000000
126590.000000
127525.000000
128373.000000
129234.000000
130151.000000
131027.000000
131945.000000
132898.000000
133787.000000
134713.000000
135627.000000
136488.000000
137395.000000
138319.000000
139159.000000
140107.000000
141082.000000
141983.000000
142949.000000
143905.000000
144816.000000
145714.000000
146503.000000
147314.000000
148129.000000
149005.000000
149959.000000
150892.000000
151775.000000
152725.000000
153619.000000
154536.000000
155497.000000
156433.000000
157346.000000
158292.000000
159151.000000
160043.000000
161038.000000
161966.000000
162863.000000
163847.000000
164742.000000
165603.000000
166541.000000
167457.000000
168350.000000
169319.000000
170232.000000
171117.000000
172061.000000
172909.000000
173747.000000
174636.000000
175495.000000
176369.000000
177308.000000
178193.000000
179080.000000
180028.000000
180959.000000
181869.000000
182842.000000
183764.000000
184712.000000
185714.000000
186619.000000
187525.000000
188477.000000
189356.000000
190288.000000
191237.000000
192102.000000
193053.000000
194019.000000
194875.000000
195783.000000
196742.000000
197623.000000
198592.000000
199537.000000
200443.000000
201424.000000
202346.000000
203223.000000
204157.000000
205061.000000
205983.000000
206968.000000
207881.000000
208820.000000
209777.000000
210667.000000
211642.000000
212575.000000
213453.000000
214390.000000
215313.000000
216207.000000
217179.000000
218100.000000
219007.000000
219987.000000
220906.000000
221784.000000
222716.000000
223663.000000
224542.000000
225525.000000
226466.000000
227380.000000
228316.000000
229159.000000
230015.000000
230803.000000
231548.000000
232335.000000
233105.000000
233975.000000
234902.000000
235745.000000
236644.000000
237532.000000
238364.000000
239230.000000
240094.000000
240875.000000
241711.000000
242623.000000
243479.000000
244389.000000
245382.000000
246286.000000
247208.000000
248162.000000
249028.000000
249936.000000
250827.000000
251643.000000
252517.000000
253407.000000
254205.000000
255063.000000
255940.000000
256776.000000
257686.000000
258524.000000
259293.000000
260024.000000
260766.000000
261488.000000
262292.000000
263243.000000
264127.000000
265015.000000
265885.000000
266664.000000
267450.000000
268321.000000
269128.000000
270011.000000
270834.000000
271581.000000
272353.000000
273158.000000
274073.000000
274993.000000
275898.000000
276876.000000
277833.000000
278727.000000
279674.000000
280606.000000
281505.000000
282454.000000
283358.000000
284240.000000
285166.000000
286010.000000
286786.000000
287562.000000
288314.000000
289109.000000
289934.000000
290718.000000
291587.000000
292502.000000
293329.000000
294251.000000
295147.000000
296032.000000
296995.000000
297911.000000
298798.000000
299718.000000
300595.000000
301479.000000
302420.000000
303265.000000
304157.000000
305050.000000
305904.000000
306845.000000
307759.000000
308639.000000
309577.000000
310426.000000
311314.000000
312178.000000
312944.000000
313690.000000
314548.000000
315448.000000
316313.000000
317248.000000
318120.000000
319019.000000
319907.000000
320733.000000
321643.000000
322571.000000
323496.000000
324475.000000
325392.000000
326335.000000
327339.000000
328295.000000
329223.000000
330227.000000
331192.000000
332069.000000
333025.000000
333924.000000
334828.000000
335840.000000
336781.000000
337711.000000
338669.000000
339539.000000
340398.000000
341281.000000
342062.000000
342826.000000
343656.000000
344497.000000
345476.000000
346388.000000
347268.000000
348222.000000
349144.000000
350020.000000
350971.000000
351907.000000
352768.000000
353693.000000
354589.000000
355415.000000
356301.000000
357178.000000
358006.000000
358908.000000
359838.000000
360693.000000
361600.000000
362447.000000
363203.000000
363946.000000
364736.000000
365711.000000
366640.000000
367515.000000
368441.000000
369308.000000
370218.000000
371170.000000
372043.000000
372856.000000
373621.000000
374380.000000
375296.000000
376172.000000
377072.000000
378019.000000
378920.000000
379830.000000
380760.000000
381637.000000
382521.000000
383436.000000
384288.000000
385181.000000
386078.000000
386924.000000
387832.000000
388735.000000
389611.000000
390528.000000
391421.000000
392290.000000
393213.000000
394076.000000
394948.000000
395895.000000
396771.000000
397650.000000
398597.000000
399483.000000
400372.000000
401320.000000
402207.000000
403066.000000
403940.000000
404750.000000
405498.000000
406226.000000
407060.000000
407954.000000
408801.000000
409717.000000
410655.000000
411522.000000
412460.000000
413375.000000
414255.000000
415168.000000
416030.000000
416897.000000
417792.000000
418621.000000
419531.000000
420462.000000
421347.000000
422278.000000
423149.000000
424024.000000
424946.000000
425819.000000
426680.000000
427575.000000
428419.000000
429269.000000
430163.000000
430998.000000
431852.000000
432784.000000
433675.000000
434541.000000
435477.000000
436376.000000
437284.000000
438224.000000
439087.000000
439960.000000
440850.000000
441683.000000
442584.000000
443551.000000
444417.000000
445397.000000
446396.000000
447352.000000
448360.000000
449216.000000
450015.000000
450879.000000
451853.000000
452774.000000
453633.000000
454560.000000
455484.000000
456352.000000
457317.000000
458252.000000
459166.000000
460183.000000
461150.000000
462050.000000
462993.000000
463950.000000
464822.000000
465786.000000
466744.000000
467657.000000
468631.000000
469575.000000
470453.000000
471406.000000
472333.000000
473220.000000
474174.000000
475059.000000
475938.000000
476883.000000
477766.000000
478624.000000
479551.000000
480437.000000
481307.000000
482246.000000
483138.000000
484031.000000
485005.000000
485938.000000
486804.000000
487770.000000
488706.000000
489587.000000
490518.000000
491428.000000
492289.000000
493226.000000
494157.000000
495036.000000
496026.000000
496939.000000
497848.000000
498858.000000
499800.000000
500735.000000
501736.000000
502658.000000
503535.000000
504490.000000
505482.000000
506394.000000
507384.000000
508396.000000
509316.000000
510261.000000
511236.000000
512131.000000
513063.000000
514088.000000
515028.000000
515955.000000
516969.000000
517919.000000
518897.000000
519910.000000
520856.000000
521864.000000
522852.000000
523741.000000
524682.000000
525600.000000
526431.000000
527344.000000
528251.000000
529101.000000
529938.000000
530711.000000
531508.000000
532354.000000
533132.000000
533951.000000
534830.000000
535677.000000
536526.000000
537411.000000
538237.000000
539075.000000
539956.000000
540773.000000
541624.000000
542489.000000
543315.000000
544233.000000
545136.000000
546012.000000
546952.000000
547842.000000
548763.000000
549725.000000
550602.000000
551517.000000
552435.000000
553317.000000
554249.000000
555133.000000
556023.000000
556980.000000
557886.000000
558778.000000
559761.000000
560659.000000
561595.000000
562513.000000
563334.000000
564221.000000
565159.000000
566018.000000
566964.000000
567920.000000
568823.000000
569798.000000
570718.000000
571588.000000
572575.000000
573499.000000
574406.000000
575409.000000
576355.000000
577278.000000
578258.000000
579150.000000
580091.000000
581114.000000
582041.000000
582995.000000
584003.000000
584933.000000
585869.000000
586845.000000
587747.000000
588697.000000
589600.000000
590391.000000
591213.000000
592030.000000
592941.000000
593946.000000
594867.000000
595817.000000
596828.000000
597776.000000
598698.000000
599675.000000
600600.000000
601488.000000
602443.000000
603422.000000
604316.000000
605328.000000
606379.000000
607312.000000
608277.000000
609249.000000
610144.000000
611135.000000
612127.000000
613070.000000
614057.000000
614960.000000
615951.000000
616926.000000
617819.000000
618795.000000
619752.000000
620642.000000
621601.000000
622560.000000
623427.000000
624402.000000
625366.000000
626246.000000
627223.000000
628217.000000
629098.000000
630034.000000
630966.000000
631852.000000
632875.000000
633854.000000
634768.000000
635822.000000
636766.000000
637628.000000
638619.000000
639595.000000
640523.000000
641529.000000
642519.000000
643469.000000
644495.000000
645471.000000
646394.000000
647370.000000
648298.000000
649217.000000
650194.000000
651168.000000
652107.000000
653084.000000
654013.000000
654953.000000
655941.000000
656887.000000
657805.000000
658791.000000
659737.000000
660647.000000
661577.000000
662376.000000
663142.000000
664026.000000
664870.000000
665725.000000
666759.000000
667740.000000
668609.000000
669518.000000
670471.000000
671389.000000
672279.000000
673275.000000
674203.000000
675088.000000
676098.000000
677064.000000
677995.000000
678985.000000
679939.000000
680824.000000
681783.000000
682766.000000
683688.000000
684695.000000
685676.000000
686613.000000
687674.000000
688698.000000
689613.000000
690601.000000
691622.000000
692576.000000
693616.000000
694615.000000
695583.000000
696604.000000
697591.000000
698513.000000
699486.000000
700433.000000
701338.000000
702350.000000
703331.000000
704270.000000
705270.000000
706212.000000
707154.000000
708146.000000
709109.000000
710024.000000
710998.000000
711945.000000
712826.000000
713786.000000
714733.000000
715627.000000
716632.000000
717573.000000
718450.000000
719392.000000
720286.000000
721139.000000
722100.000000
723031.000000
723919.000000
724930.000000
725869.000000
726815.000000
727787.000000
728624.000000
729406.000000
730194.000000
730970.000000
731873.000000
732811.000000
733641.000000
734550.000000
735447.000000
736249.000000
737107.000000
737996.000000
738801.000000
739711.000000
740662.000000
741573.000000
742569.000000
743514.000000
744385.000000
745277.000000
746117.000000
746951.000000
747836.000000
748646.000000
749500.000000
750278.000000
751033.000000
751871.000000
752731.000000
753715.000000
754677.000000
755585.000000
756569.000000
757495.000000
758367.000000
759299.000000
760223.000000
761092.000000
762039.000000
762974.000000
763857.000000
764827.000000
765756.000000
766647.000000
767618.000000
768563.000000
769479.000000
770476.000000
771433.000000
772361.000000
773367.000000
774270.000000
775242.000000
776207.000000
777105.000000
778047.000000
778957.000000
779834.000000
780882.000000
781854.000000
782762.000000
783761.000000
784683.000000
785702.000000
786681.000000
787652.000000
788678.000000
789674.000000
790652.000000
791687.000000
792658.000000
793656.000000
794703.000000
795678.000000
796649.000000
797686.000000
798664.000000
799631.000000
800677.000000
801663.000000
802610.000000
803635.000000
804620.000000
805558.000000
806581.000000
807575.000000
808496.000000
809476.000000
810452.000000
811321.000000
812275.000000
813330.000000
814296.000000
815291.000000
816346.000000
817329.000000
818278.000000
819268.000000
820237.000000
821160.000000
822179.000000
823193.000000
824153.000000
825182.000000
826216.000000
827174.000000
828196.000000
829200.000000
830149.000000
831144.000000
832173.000000
833073.000000
834053.000000
835070.000000
836055.000000
837002.000000
838019.000000
839082.000000
840046.000000
840988.000000
841995.000000
842899.000000
843797.000000
844852.000000
845821.000000
846749.000000
847762.000000
848675.000000
849609.000000
850598.000000
851493.000000
852439.000000
853388.000000
854257.000000
855199.000000
856173.000000
857073.000000
858013.000000
858814.000000
859610.000000
860445.000000
861256.000000
862172.000000
863068.000000
863928.000000
864882.000000
865805.000000
866655.000000
867557.000000
868440.000000
869266.000000
870147.000000
871032.000000
871835.000000
872675.000000
873573.000000
874410.000000
875273.000000
876197.000000
877038.000000
877925.000000
878804.000000
879618.000000
880500.000000
881378.000000
882218.000000
883143.000000
884029.000000
884896.000000
885768.000000
886539.000000
887284.000000
888054.000000
888832.000000
889705.000000
890536.000000
891319.000000
892159.000000
892996.000000
893790.000000
894656.000000
895516.000000
896320.000000
897187.000000
898038.000000
898835.000000
899701.000000
900566.000000
901389.000000
902280.000000
903148.000000
903957.000000
904838.000000
905711.000000
906543.000000
907431.000000
908329.000000
909149.000000
910032.000000
910890.000000
911702.000000
912585.000000
913485.000000
914295.000000
915157.000000
916020.000000
916826.000000
917694.000000
918596.000000
919424.000000
920322.000000
921235.000000
922079.000000
922953.000000
923871.000000
924697.000000
925535.000000
926318.000000
927058.000000
927843.000000
928614.000000
929512.000000
930468.000000
931331.000000
932258.000000
933166.000000
933993.000000
934866.000000
935684.000000
936502.000000
937406.000000
938264.000000
939133.000000
940076.000000
940929.000000
941829.000000
942752.000000
943631.000000
944570.000000
945480.000000
946390.000000
947352.000000
948234.000000
949181.000000
950111.000000
950975.000000
951879.000000
952682.000000
953439.000000
954208.000000
954970.000000
955806.000000
956605.000000
957536.000000
958502.000000
959365.000000
960283.000000
961225.000000
962090.000000
963025.000000
963984.000000
964864.000000
965798.000000
966756.000000
967644.000000
968604.000000
969573.000000
970471.000000
971398.000000
972321.000000
973185.000000
974099.000000
975013.000000
975872.000000
976808.000000
977772.000000
978661.000000
979594.000000
980551.000000
981452.000000
982377.000000
983351.000000
984243.000000
985096.000000
986064.000000
987030.000000
987927.000000
988886.000000
989828.000000
990706.000000
991629.000000
992558.000000
993435.000000
994326.000000
995232.000000
996037.000000
996802.000000
997605.000000
998422.000000
999324.000000
1000271.000000
1001151.000000
1002069.000000
1002977.000000
1003885.000000
1004785.000000
1005621.000000
1006494.000000
1007407.000000
1008276.000000
1009182.000000
1010121.000000
1010978.000000
1011914.000000
