ECG (ms)
643.000000
1569.000000
2498.000000
3450.000000
4453.000000
5389.000000
6340.000000
7323.000000
8259.000000
9191.000000
10143.000000
11158.000000
12163.000000
13111.000000
14066.000000
15039.000000
16003.000000
16936.000000
17909.000000
18917.000000
19898.000000
20840.000000
21813.000000
22815.000000
23734.000000
24663.000000
25639.000000
26639.000000
27569.000000
28503.000000
29473.000000
30465.000000
31382.000000
32326.000000
33314.000000
34263.000000
35194.000000
36158.000000
37149.000000
38074.000000
38993.000000
39950.000000
40947.000000
41877.000000
42808.000000
43781.000000
44791.000000
45722.000000
46644.000000
47572.000000
48533.000000
49490.000000
50411.000000
51352.000000
52349.000000
53365.000000
54301.000000
55256.000000
56265.000000
57190.000000
58131.000000
59144.000000
60193.000000
61152.000000
62102.000000
63077.000000
64113.000000
65088.000000
66030.000000
66977.000000
67969.000000
68951.000000
69880.000000
70814.000000
71792.000000
72722.000000
73638.000000
74573.000000
75564.000000
76470.000000
77374.000000
78303.000000
79201.000000
80090.000000
80998.000000
81933.000000
82852.000000
83754.000000
84662.000000
85584.000000
86517.000000
87401.000000
88284.000000
89168.000000
90052.000000
90945.000000
91811.000000
92684.000000
93568.000000
94469.000000
95381.000000
96250.000000
97132.000000
98025.000000
98933.000000
99813.000000
100700.000000
101613.000000
102541.000000
103436.000000
104336.000000
105258.000000
106187.000000
107070.000000
107950.000000
108852.000000
109751.000000
110628.000000
111547.000000
112508.000000
113396.000000
114305.000000
115260.000000
116153.000000
117043.000000
117983.000000
118909.000000
119797.000000
120696.000000
121632.000000
122553.000000
123448.000000
124357.000000
125316.000000
126257.000000
127148.000000
128041.000000
128983.000000
129942.000000
130853.000000
131765.000000
132688.000000
133650.000000
134574.000000
135474.000000
136379.000000
137305.000000
138176.000000
139060.000000
139954.000000
140886.000000
141770.000000
142663.000000
143581.000000
144552.000000
145469.000000
146396.000000
147330.000000
148289.000000
149200.000000
150099.000000
150996.000000
151895.000000
152799.000000
153672.000000
154560.000000
155487.000000
156438.000000
157331.000000
158239.000000
159196.000000
160167.000000
161079.000000
162006.000000
162996.000000
164023.000000
164963.000000
165905.000000
166888.000000
167831.000000
168741.000000
169671.000000
170636.000000
171539.000000
172454.000000
173422.000000
174324.000000
175232.000000
176195.000000
177184.000000
178089.000000
178995.000000
179948.000000
180906.000000
181806.000000
182734.000000
183730.000000
184749.000000
185685.000000
186631.000000
187635.000000
188614.000000
189532.000000
190458.000000
191402.000000
192391.000000
193346.000000
194281.000000
195267.000000
196291.000000
197257.000000
198215.000000
199192.000000
200158.000000
201078.000000
202012.000000
202972.000000
203935.000000
204864.000000
205812.000000
206813.000000
207806.000000
208752.000000
209731.000000
210738.000000
211698.000000
212628.000000
213585.000000
214582.000000
215517.000000
216444.000000
217414.000000
218411.000000
219330.000000
220228.000000
221111.000000
221955.000000
222846.000000
223736.000000
224629.000000
225551.000000
226530.000000
227546.000000
228472.000000
229399.000000
230345.000000
231301.000000
232206.000000
233123.000000
234081.000000
235075.000000
236004.000000
236972.000000
238017.000000
239083.000000
240084.000000
241050.000000
242022.000000
243054.000000
244094.000000
245063.000000
246076.000000
247136.000000
248107.000000
249062.000000
250083.000000
251109.000000
252055.000000
252993.000000
253990.000000
255035.000000
256009.000000
256956.000000
257943.000000
258951.000000
259949.000000
260896.000000
261861.000000
262902.000000
263969.000000
264954.000000
265912.000000
266931.000000
267978.000000
268938.000000
269882.000000
270874.000000
271883.000000
272814.000000
273793.000000
274818.000000
275756.000000
276683.000000
277678.000000
278682.000000
279608.000000
280557.000000
281546.000000
282495.000000
283417.000000
284376.000000
285341.000000
286260.000000
287166.000000
288095.000000
289054.000000
289957.000000
290856.000000
291780.000000
292740.000000
293674.000000
294580.000000
295500.000000
296472.000000
297431.000000
298343.000000
299296.000000
300257.000000
301181.000000
302093.000000
303066.000000
304046.000000
304965.000000
305897.000000
306869.000000
307837.000000
308746.000000
309655.000000
310574.000000
311522.000000
312438.000000
313333.000000
314237.000000
315165.000000
316123.000000
317117.000000
318049.000000
318953.000000
319874.000000
320840.000000
321817.000000
322744.000000
323683.000000
324671.000000
325614.000000
326526.000000
327435.000000
328327.000000
329188.000000
330033.000000
330867.000000
331726.000000
332641.000000
333577.000000
334546.000000
335466.000000
336381.000000
337321.000000
338302.000000
339307.000000
340257.000000
341199.000000
342191.000000
343210.000000
344253.000000
345211.000000
346173.000000
347183.000000
348230.000000
349264.000000
350232.000000
351214.000000
352246.000000
353245.000000
354199.000000
355171.000000
356182.000000
357205.000000
358151.000000
359137.000000
360150.000000
361143.000000
362085.000000
363030.000000
364041.000000
365096.000000
366044.000000
367010.000000
368033.000000
369075.000000
370017.000000
370949.000000
371909.000000
372926.000000
373900.000000
374847.000000
375860.000000
376901.000000
377853.000000
378788.000000
379755.000000
380726.000000
381648.000000
382566.000000
383506.000000
384460.000000
385368.000000
386309.000000
387281.000000
388253.000000
389167.000000
390099.000000
391079.000000
392051.000000
392972.000000
393877.000000
394828.000000
395802.000000
396732.000000
397673.000000
398646.000000
399666.000000
400594.000000
401519.000000
402476.000000
403444.000000
404350.000000
405269.000000
406241.000000
407225.000000
408142.000000
409069.000000
410028.000000
411009.000000
411928.000000
412840.000000
413749.000000
414676.000000
415634.000000
416547.000000
417458.000000
418395.000000
419365.000000
420351.000000
421280.000000
422216.000000
423163.000000
424126.000000
425043.000000
425957.000000
426915.000000
427882.000000
428848.000000
429773.000000
430747.000000
431738.000000
432672.000000
433595.000000
434542.000000
435504.000000
436417.000000
437349.000000
438346.000000
439374.000000
440310.000000
441249.000000
442227.000000
443211.000000
444141.000000
445133.000000
446169.000000
447202.000000
448149.000000
449078.000000
450031.000000
451015.000000
451964.000000
452898.000000
453896.000000
454898.000000
455824.000000
456740.000000
457683.000000
458616.000000
459503.000000
460396.000000
461333.000000
462296.000000
463230.000000
464141.000000
465088.000000
466065.000000
467068.000000
467995.000000
468916.000000
469855.000000
470810.000000
471756.000000
472670.000000
473573.000000
474510.000000
475493.000000
476426.000000
477354.000000
478305.000000
479301.000000
480247.000000
481164.000000
482154.000000
483118.000000
484073.000000
484982.000000
485919.000000
486915.000000
487914.000000
488858.000000
489822.000000
490830.000000
491835.000000
492774.000000
493712.000000
494681.000000
495694.000000
496664.000000
497584.000000
498530.000000
499498.000000
500451.000000
501387.000000
502321.000000
503294.000000
504302.000000
505230.000000
506175.000000
507133.000000
508031.000000
508919.000000
509809.000000
510676.000000
511507.000000
512364.000000
513231.000000
514115.000000
515029.000000
516002.000000
516990.000000
517968.000000
518899.000000
519841.000000
520788.000000
521747.000000
522721.000000
523645.000000
524562.000000
525477.000000
526399.000000
527338.000000
528303.000000
529253.000000
530220.000000
531178.000000
532142.000000
533112.000000
534086.000000
535069.000000
536055.000000
537050.000000
538057.000000
538996.000000
539915.000000
540827.000000
541712.000000
542570.000000
543454.000000
544341.000000
545232.000000
546146.000000
547084.000000
548044.000000
549014.000000
550000.000000
550938.000000
551899.000000
552901.000000
553925.000000
554969.000000
555932.000000
556889.000000
557873.000000
558898.000000
559856.000000
560808.000000
561753.000000
562688.000000
563616.000000
564500.000000
565365.000000
566248.000000
567124.000000
568028.000000
568974.000000
569964.000000
570996.000000
572027.000000
572977.000000
573942.000000
574938.000000
575975.000000
577012.000000
577971.000000
578927.000000
579923.000000
580907.000000
581855.000000
582805.000000
583795.000000
584738.000000
585658.000000
586587.000000
587563.000000
588527.000000
589445.000000
590407.000000
591414.000000
592430.000000
593372.000000
594309.000000
595279.000000
596260.000000
597228.000000
598147.000000
599075.000000
600040.000000
601019.000000
601935.000000
602854.000000
603785.000000
604744.000000
605650.000000
606555.000000
607498.000000
608509.000000
609457.000000
610388.000000
611393.000000
612407.000000
613382.000000
614318.000000
615270.000000
616266.000000
617220.000000
618158.000000
619178.000000
620213.000000
621164.000000
622102.000000
623084.000000
624110.000000
625062.000000
626023.000000
627047.000000
628062.000000
629005.000000
629954.000000
630939.000000
631920.000000
632856.000000
633818.000000
634823.000000
635761.000000
636678.000000
637607.000000
638569.000000
639491.000000
640403.000000
641335.000000
642303.000000
643293.000000
644247.000000
645186.000000
646190.000000
647216.000000
648264.000000
649278.000000
650238.000000
651225.000000
652222.000000
653226.000000
654168.000000
655131.000000
656112.000000
657041.000000
657959.000000
658927.000000
659912.000000
660828.000000
661748.000000
662717.000000
663667.000000
664577.000000
665507.000000
666497.000000
667467.000000
668397.000000
669392.000000
670426.000000
671466.000000
672413.000000
673362.000000
674370.000000
675401.000000
676411.000000
677363.000000
678396.000000
679460.000000
680425.000000
681385.000000
682348.000000
683369.000000
684327.000000
685272.000000
686297.000000
687339.000000
688295.000000
689328.000000
690306.000000
691261.000000
692231.000000
693209.000000
694142.000000
695065.000000
696001.000000
696919.000000
697787.000000
698679.000000
699585.000000
700495.000000
701453.000000
702466.000000
703498.000000
704458.000000
705384.000000
706304.000000
707244.000000
708222.000000
709151.000000
710099.000000
711110.000000
712167.000000
713174.000000
714134.000000
715149.000000
716196.000000
717209.000000
718157.000000
719104.000000
720081.000000
721102.000000
722049.000000
723033.000000
724069.000000
725124.000000
726133.000000
727163.000000
728207.000000
729174.000000
730157.000000
731218.000000
732270.000000
733238.000000
734181.000000
735166.000000
736148.000000
737078.000000
738043.000000
739049.000000
740036.000000
740968.000000
741922.000000
742920.000000
743927.000000
744871.000000
745863.000000
746865.000000
747866.000000
748806.000000
749777.000000
750809.000000
751870.000000
752829.000000
753768.000000
754746.000000
755745.000000
756685.000000
757678.000000
758710.000000
759663.000000
760602.000000
761614.000000
762637.000000
763614.000000
764554.000000
765511.000000
766498.000000
767467.000000
768394.000000
769345.000000
770358.000000
771388.000000
772333.000000
773276.000000
774258.000000
775257.000000
776180.000000
777103.000000
778115.000000
779104.000000
780020.000000
780949.000000
781906.000000
782872.000000
783851.000000
784785.000000
785756.000000
786752.000000
787714.000000
788635.000000
789580.000000
790565.000000
791495.000000
792421.000000
793355.000000
794323.000000
795228.000000
796140.000000
797081.000000
798067.000000
798994.000000
799929.000000
800871.000000
801815.000000
802705.000000
803596.000000
804458.000000
805282.000000
806200.000000
807133.000000
808041.000000
808990.000000
809972.000000
810977.000000
811989.000000
812937.000000
813887.000000
814854.000000
815876.000000
816930.000000
817892.000000
818883.000000
819939.000000
821022.000000
821979.000000
822917.000000
823875.000000
824918.000000
826045.000000
827043.000000
828081.000000
829156.000000
830242.000000
831240.000000
832251.000000
833299.000000
834354.000000
835335.000000
836368.000000
837430.000000
838424.000000
839428.000000
840462.000000
841411.000000
842361.000000
843335.000000
844246.000000
845154.000000
846087.000000
847068.000000
847983.000000
848899.000000
849823.000000
850763.000000
851731.000000
852648.000000
853565.000000
854537.000000
855567.000000
856616.000000
857631.000000
858582.000000
859558.000000
860575.000000
861629.000000
862601.000000
863554.000000
864568.000000
865601.000000
866644.000000
867604.000000
868558.000000
869551.000000
870543.000000
871484.000000
872429.000000
873452.000000
874468.000000
875417.000000
876392.000000
877411.000000
878396.000000
879345.000000
880338.000000
881327.000000
882279.000000
883227.000000
884249.000000
885273.000000
886244.000000
887191.000000
888206.000000
889234.000000
890190.000000
891110.000000
892048.000000
893029.000000
893962.000000
894896.000000
895881.000000
896919.000000
897870.000000
898824.000000
899841.000000
900814.000000
901755.000000
902727.000000
903720.000000
904748.000000
905710.000000
906712.000000
907745.000000
908783.000000
909802.000000
910763.000000
911751.000000
912788.000000
913806.000000
914759.000000
915747.000000
916778.000000
917806.000000
918757.000000
919709.000000
920713.000000
921701.000000
922629.000000
923557.000000
924511.000000
925474.000000
926388.000000
927353.000000
928363.000000
929357.000000
930300.000000
931303.000000
932330.000000
933343.000000
934292.000000
935261.000000
936254.000000
937269.000000
938219.000000
939154.000000
940099.000000
941075.000000
942002.000000
942938.000000
943895.000000
944898.000000
945927.000000
946878.000000
947856.000000
948863.000000
949919.000000
950906.000000
951871.000000
952870.000000
953878.000000
954838.000000
955844.000000
956873.000000
957908.000000
958867.000000
959823.000000
960831.000000
961853.000000
962818.000000
963768.000000
964696.000000
965641.000000
966615.000000
967530.000000
968446.000000
969394.000000
970400.000000
971357.000000
972288.000000
973295.000000
974307.000000
975297.000000
976241.000000
977228.000000
978228.000000
979171.000000
980090.000000
981055.000000
982034.000000
983001.000000
983927.000000
984860.000000
985830.000000
986800.000000
987715.000000
988634.000000
989598.000000
990552.000000
991467.000000
992397.000000
993373.000000
994354.000000
995294.000000
996219.000000
997175.000000
998155.000000
999122.000000
1000034.000000
1000977.000000
1001951.000000
1002944.000000
1003867.000000
1004763.000000
1005688.000000
1006650.000000
1007586.000000
1008505.000000
1009475.000000
1010473.000000
1011441.000000
1012377.000000
1013374.000000
1014356.000000
1015297.000000
1016221.000000
1017205.000000
1018205.000000
1019174.000000
1020108.000000
1021075.000000
1022045.000000
1023009.000000
1023925.000000
1024849.000000
1025822.000000
1026784.000000
1027716.000000
1028642.000000
1029611.000000
1030570.000000
1031497.000000
1032402.000000
1033298.000000
1034188.000000
1035093.000000
1035969.000000
1036850.000000
1037733.000000
1038660.000000
1039554.000000
1040448.000000
1041374.000000
1042361.000000
1043359.000000
1044295.000000
1045295.000000
1046316.000000
1047350.000000
1048322.000000
1049333.000000
1050371.000000
1051414.000000
1052382.000000
1053389.000000
1054433.000000
1055410.000000
1056349.000000
1057266.000000
1058183.000000
1059138.000000
1060048.000000
1060974.000000
1061984.000000
1063009.000000
1063944.000000
1064908.000000
1065909.000000
1066901.000000
1067828.000000
1068776.000000
1069756.000000
1070734.000000
1071658.000000
1072621.000000
1073657.000000
1074745.000000
1075764.000000
1076744.000000
1077751.000000
1078687.000000
1079616.000000
1080607.000000
1081652.000000
1082607.000000
1083633.000000
1084720.000000
1085768.000000
1086724.000000
1087720.000000
1088717.000000
1089710.000000
1090645.000000
1091631.000000
1092673.000000
1093757.000000
1094740.000000
1095773.000000
1096839.000000
1097849.000000
1098798.000000
1099804.000000
1100826.000000
1101801.000000
1102752.000000
1103682.000000
1104665.000000
1105616.000000
1106545.000000
1107473.000000
1108431.000000
1109397.000000
1110317.000000
1111232.000000
1112150.000000
1113078.000000
1114035.000000
1114945.000000
1115871.000000
1116857.000000
1117874.000000
1118890.000000
1119841.000000
1120792.000000
1121820.000000
1122917.000000
1123991.000000
1124976.000000
1125962.000000
1126992.000000
1128024.000000
1128985.000000
1129923.000000
1130917.000000
1131920.000000
1132901.000000
1133824.000000
1134756.000000
1135737.000000
1136728.000000
1137649.000000
1138567.000000
1139525.000000
1140500.000000
1141466.000000
1142385.000000
1143300.000000
1144228.000000
1145202.000000
1146130.000000
1147059.000000
1148001.000000
1148996.000000
1149999.000000
1150932.000000
1151883.000000
1152855.000000
1153836.000000
1154763.000000
1155698.000000
1156653.000000
1157663.000000
1158614.000000
1159551.000000
1160554.000000
1161588.000000
1162589.000000
1163535.000000
1164518.000000
1165501.000000
1166495.000000
1167429.000000
1168375.000000
1169404.000000
1170406.000000
1171339.000000
1172267.000000
1173231.000000
1174212.000000
1175163.000000
1176095.000000
1177026.000000
1177978.000000
1178914.000000
1179812.000000
1180754.000000
1181723.000000
1182681.000000
1183595.000000
1184537.000000
1185499.000000
1186497.000000
1187506.000000
1188492.000000
1189402.000000
1190298.000000
1191222.000000
1192150.000000
1193048.000000
1193952.000000
1194886.000000
1195759.000000
1196642.000000
1197512.000000
1198349.000000
1199157.000000
1200023.000000
1200888.000000
1201797.000000
1202759.000000
