ECG (ms)
490.000000
1226.000000
1967.000000
2714.000000
3455.000000
4199.000000
4954.000000
5742.000000
6564.000000
7394.000000
8225.000000
9035.000000
9828.000000
10615.000000
11418.000000
12234.000000
13054.000000
13859.000000
14647.000000
15438.000000
16225.000000
17002.000000
17784.000000
18611.000000
19507.000000
20381.000000
21226.000000
22063.000000
22877.000000
23675.000000
24456.000000
25226.000000
25990.000000
26783.000000
27632.000000
28511.000000
29401.000000
30295.000000
31173.000000
32027.000000
32874.000000
33728.000000
34587.000000
35441.000000
36274.000000
37073.000000
37853.000000
38633.000000
39425.000000
40213.000000
40991.000000
41763.000000
42531.000000
43301.000000
44075.000000
44813.000000
45543.000000
46289.000000
47031.000000
47784.000000
48563.000000
49358.000000
50168.000000
50978.000000
51780.000000
52565.000000
53344.000000
54134.000000
54956.000000
55784.000000
56611.000000
57425.000000
58234.000000
59040.000000
59846.000000
60660.000000
61480.000000
62283.000000
63073.000000
63871.000000
64694.000000
65524.000000
66353.000000
67173.000000
67985.000000
68776.000000
69564.000000
70362.000000
71195.000000
72051.000000
72907.000000
73743.000000
74566.000000
75372.000000
76169.000000
76973.000000
77801.000000
78631.000000
79462.000000
80289.000000
81095.000000
81893.000000
82701.000000
83522.000000
84330.000000
85140.000000
85947.000000
86761.000000
87584.000000
88400.000000
89200.000000
89994.000000
90789.000000
91608.000000
92444.000000
93276.000000
94092.000000
94901.000000
95704.000000
96513.000000
97342.000000
98166.000000
98972.000000
99769.000000
100547.000000
101328.000000
102128.000000
102950.000000
103776.000000
104590.000000
105420.000000
106263.000000
107100.000000
107909.000000
108668.000000
109412.000000
110150.000000
110887.000000
111630.000000
112392.000000
113188.000000
114005.000000
114818.000000
115614.000000
116410.000000
117213.000000
118042.000000
118883.000000
119712.000000
120516.000000
121306.000000
122105.000000
122919.000000
123735.000000
124549.000000
125362.000000
126175.000000
127017.000000
127857.000000
128685.000000
129491.000000
130283.000000
131087.000000
131901.000000
132709.000000
133519.000000
134317.000000
135118.000000
135923.000000
136732.000000
137534.000000
138335.000000
139136.000000
139950.000000
140774.000000
141598.000000
142420.000000
143233.000000
144027.000000
144824.000000
145645.000000
146482.000000
147317.000000
148150.000000
148966.000000
149777.000000
150602.000000
151435.000000
152279.000000
153135.000000
153978.000000
154801.000000
155621.000000
156460.000000
157338.000000
158209.000000
159069.000000
159911.000000
160733.000000
161553.000000
162368.000000
163192.000000
164012.000000
164828.000000
165667.000000
166518.000000
167372.000000
168204.000000
169023.000000
169843.000000
170654.000000
171464.000000
172253.000000
173027.000000
173802.000000
174589.000000
175390.000000
176194.000000
176995.000000
177797.000000
178616.000000
179466.000000
180320.000000
181168.000000
182001.000000
182817.000000
183624.000000
184438.000000
185240.000000
186042.000000
186836.000000
187655.000000
188478.000000
189305.000000
190118.000000
190926.000000
191741.000000
192570.000000
193401.000000
194229.000000
195039.000000
195840.000000
196644.000000
197476.000000
198323.000000
199168.000000
200002.000000
200818.000000
201626.000000
202457.000000
203301.000000
204133.000000
204965.000000
205774.000000
206585.000000
207411.000000
208238.000000
209075.000000
209905.000000
210724.000000
211546.000000
212384.000000
213228.000000
214064.000000
214874.000000
215682.000000
216501.000000
217328.000000
218143.000000
218940.000000
219748.000000
220573.000000
221394.000000
222218.000000
223024.000000
223823.000000
224633.000000
225453.000000
226272.000000
227078.000000
227887.000000
228712.000000
229540.000000
230363.000000
231154.000000
231898.000000
232646.000000
233396.000000
234143.000000
234901.000000
235687.000000
236481.000000
237279.000000
238083.000000
238880.000000
239678.000000
240487.000000
241313.000000
242130.000000
242934.000000
243739.000000
244552.000000
245366.000000
246180.000000
246972.000000
247756.000000
248551.000000
249374.000000
250201.000000
251017.000000
251823.000000
252618.000000
253432.000000
254252.000000
255073.000000
255872.000000
256664.000000
257473.000000
258296.000000
259131.000000
259951.000000
260760.000000
261575.000000
262397.000000
263196.000000
263992.000000
264798.000000
265619.000000
266450.000000
267267.000000
268077.000000
268885.000000
269698.000000
270514.000000
271330.000000
272118.000000
272889.000000
273649.000000
274421.000000
275223.000000
276050.000000
276866.000000
277672.000000
278475.000000
279287.000000
280132.000000
280979.000000
281822.000000
282638.000000
283437.000000
284224.000000
285000.000000
285785.000000
286587.000000
287388.000000
288195.000000
288994.000000
289808.000000
290636.000000
291471.000000
292300.000000
293113.000000
293939.000000
294763.000000
295595.000000
296408.000000
297218.000000
298035.000000
298859.000000
299680.000000
300490.000000
301297.000000
302123.000000
302952.000000
303781.000000
304599.000000
305418.000000
306254.000000
307114.000000
307958.000000
308787.000000
309596.000000
310391.000000
311167.000000
311947.000000
312771.000000
313757.000000
314686.000000
315592.000000
316466.000000
317313.000000
318127.000000
318897.000000
319662.000000
320435.000000
321222.000000
322013.000000
322813.000000
323571.000000
324355.000000
325143.000000
325950.000000
326792.000000
327649.000000
328516.000000
329376.000000
330212.000000
331040.000000
331877.000000
332702.000000
333521.000000
334331.000000
335120.000000
335902.000000
336693.000000
337501.000000
338310.000000
339120.000000
339919.000000
340725.000000
341547.000000
342373.000000
343201.000000
344010.000000
344802.000000
345601.000000
346403.000000
347203.000000
348001.000000
348795.000000
349586.000000
350391.000000
351214.000000
352049.000000
352871.000000
353676.000000
354486.000000
355314.000000
356139.000000
356952.000000
357754.000000
358564.000000
359378.000000
360201.000000
361014.000000
361812.000000
362614.000000
363430.000000
364244.000000
365048.000000
365847.000000
366646.000000
367463.000000
368289.000000
369118.000000
369950.000000
370767.000000
371577.000000
372395.000000
373211.000000
374041.000000
374864.000000
375669.000000
376469.000000
377289.000000
378115.000000
378938.000000
379752.000000
380557.000000
381370.000000
382195.000000
383016.000000
383839.000000
384640.000000
385437.000000
386230.000000
387044.000000
387869.000000
388703.000000
389528.000000
390336.000000
391140.000000
391961.000000
392791.000000
393619.000000
394430.000000
395223.000000
396028.000000
396843.000000
397667.000000
398491.000000
399304.000000
400105.000000
400918.000000
401751.000000
402601.000000
403453.000000
404300.000000
405132.000000
405978.000000
406822.000000
407681.000000
408527.000000
409354.000000
410171.000000
411003.000000
411841.000000
412683.000000
413520.000000
414330.000000
415125.000000
415932.000000
416762.000000
417592.000000
418414.000000
419216.000000
420003.000000
420799.000000
421605.000000
422403.000000
423166.000000
423910.000000
424657.000000
425412.000000
426176.000000
426957.000000
427768.000000
428590.000000
429403.000000
430211.000000
431002.000000
431789.000000
432570.000000
433364.000000
434161.000000
434960.000000
435758.000000
436573.000000
437386.000000
438197.000000
439005.000000
439802.000000
440597.000000
441398.000000
442192.000000
442981.000000
443766.000000
444555.000000
445347.000000
446138.000000
446933.000000
447727.000000
448538.000000
449357.000000
450163.000000
450954.000000
451746.000000
452553.000000
453376.000000
454203.000000
455012.000000
455816.000000
456615.000000
457427.000000
458240.000000
459046.000000
459847.000000
460635.000000
461423.000000
462225.000000
463043.000000
463876.000000
464710.000000
465522.000000
466326.000000
467135.000000
467960.000000
468799.000000
469635.000000
470447.000000
471244.000000
472040.000000
472844.000000
473658.000000
474480.000000
475287.000000
476090.000000
476890.000000
477705.000000
478539.000000
479372.000000
480207.000000
481026.000000
481836.000000
482642.000000
483455.000000
484283.000000
485112.000000
485943.000000
486764.000000
487575.000000
488389.000000
489216.000000
490041.000000
490861.000000
491669.000000
492475.000000
493283.000000
494096.000000
494903.000000
495706.000000
496516.000000
497332.000000
498152.000000
498972.000000
499781.000000
500597.000000
501419.000000
502246.000000
503074.000000
503896.000000
504737.000000
505591.000000
506438.000000
507277.000000
508100.000000
508910.000000
509735.000000
510571.000000
511398.000000
512169.000000
512928.000000
513691.000000
514450.000000
515213.000000
515985.000000
516754.000000
517540.000000
518387.000000
519346.000000
520263.000000
521148.000000
522018.000000
522863.000000
523699.000000
524512.000000
525307.000000
526113.000000
526940.000000
527795.000000
528663.000000
529535.000000
530398.000000
531276.000000
532173.000000
533075.000000
533971.000000
534846.000000
535706.000000
536552.000000
537393.000000
538225.000000
539051.000000
539852.000000
540653.000000
541474.000000
542310.000000
543133.000000
543943.000000
544743.000000
545547.000000
546373.000000
547227.000000
548084.000000
548939.000000
549779.000000
550609.000000
551449.000000
552289.000000
553117.000000
553939.000000
554749.000000
555548.000000
556355.000000
557164.000000
557977.000000
558784.000000
559594.000000
560424.000000
561258.000000
562094.000000
562911.000000
563718.000000
564534.000000
565368.000000
566193.000000
567005.000000
567798.000000
568548.000000
569310.000000
570085.000000
570864.000000
571655.000000
572473.000000
573303.000000
574127.000000
574924.000000
575709.000000
576481.000000
577259.000000
578066.000000
578903.000000
579760.000000
580615.000000
581447.000000
582274.000000
583095.000000
583938.000000
584786.000000
585627.000000
586455.000000
587261.000000
588067.000000
588861.000000
589661.000000
590485.000000
591313.000000
592137.000000
592959.000000
593761.000000
594554.000000
595346.000000
596162.000000
596999.000000
597845.000000
598676.000000
599507.000000
600317.000000
601129.000000
601945.000000
602775.000000
603608.000000
604418.000000
605217.000000
606032.000000
606857.000000
607685.000000
608496.000000
609278.000000
610024.000000
610773.000000
611525.000000
612282.000000
613041.000000
613833.000000
614635.000000
615434.000000
616235.000000
617023.000000
617802.000000
618591.000000
619393.000000
620204.000000
621010.000000
621806.000000
622613.000000
623420.000000
624225.000000
625023.000000
625825.000000
626646.000000
627480.000000
628316.000000
629134.000000
629946.000000
630761.000000
631585.000000
632407.000000
633229.000000
634047.000000
634853.000000
635641.000000
636422.000000
637214.000000
638029.000000
638995.000000
639919.000000
640791.000000
641616.000000
642434.000000
643244.000000
644029.000000
644800.000000
645538.000000
646271.000000
647011.000000
647757.000000
648520.000000
649328.000000
650172.000000
651026.000000
651885.000000
652732.000000
653554.000000
654363.000000
655166.000000
655982.000000
656815.000000
657653.000000
658491.000000
659318.000000
660134.000000
660935.000000
661747.000000
662574.000000
663412.000000
664244.000000
665054.000000
665817.000000
666582.000000
667361.000000
668140.000000
668930.000000
669746.000000
670581.000000
671426.000000
672277.000000
673115.000000
673951.000000
674784.000000
675631.000000
676491.000000
677351.000000
678202.000000
679049.000000
679905.000000
680765.000000
681628.000000
682479.000000
683328.000000
684168.000000
684999.000000
685840.000000
686682.000000
687527.000000
688366.000000
689187.000000
690008.000000
690829.000000
691665.000000
692498.000000
693318.000000
694139.000000
694948.000000
695756.000000
696567.000000
697329.000000
698102.000000
698887.000000
699673.000000
700422.000000
701181.000000
701947.000000
702716.000000
703508.000000
704332.000000
705163.000000
705971.000000
706783.000000
707595.000000
708424.000000
709260.000000
710092.000000
710913.000000
711730.000000
712538.000000
713360.000000
714199.000000
715041.000000
715881.000000
716701.000000
717507.000000
718325.000000
719147.000000
719979.000000
720798.000000
721614.000000
722464.000000
723344.000000
724230.000000
725116.000000
725996.000000
726887.000000
727786.000000
728677.000000
729547.000000
730399.000000
731232.000000
732055.000000
732865.000000
733666.000000
734433.000000
735176.000000
735939.000000
736715.000000
737494.000000
738284.000000
739075.000000
739905.000000
740751.000000
741593.000000
742422.000000
743236.000000
744033.000000
744824.000000
745629.000000
746447.000000
747267.000000
748073.000000
748878.000000
749677.000000
750492.000000
751319.000000
752149.000000
752977.000000
753790.000000
754610.000000
755429.000000
756247.000000
757054.000000
757860.000000
758671.000000
759482.000000
760266.000000
761056.000000
761856.000000
762663.000000
763422.000000
764198.000000
765002.000000
765803.000000
766604.000000
767407.000000
768224.000000
769062.000000
769908.000000
770750.000000
771581.000000
772397.000000
773205.000000
774038.000000
774882.000000
775728.000000
776564.000000
777393.000000
778223.000000
779057.000000
779889.000000
780711.000000
781527.000000
782350.000000
783168.000000
783993.000000
784807.000000
785603.000000
786393.000000
787174.000000
787958.000000
788729.000000
789516.000000
790321.000000
791134.000000
791949.000000
792739.000000
793537.000000
794352.000000
795128.000000
795888.000000
796678.000000
797474.000000
798263.000000
799053.000000
799847.000000
800660.000000
801484.000000
802301.000000
803115.000000
803934.000000
804755.000000
805570.000000
806385.000000
807214.000000
808055.000000
808898.000000
809736.000000
810585.000000
811445.000000
812299.000000
813135.000000
813964.000000
814789.000000
815624.000000
816445.000000
817241.000000
818022.000000
818799.000000
819589.000000
820368.000000
821116.000000
821879.000000
822671.000000
823470.000000
824260.000000
825045.000000
825851.000000
826681.000000
827515.000000
828360.000000
829203.000000
830037.000000
830844.000000
831661.000000
832465.000000
833260.000000
834055.000000
834865.000000
835675.000000
836498.000000
837329.000000
838172.000000
839018.000000
839889.000000
840749.000000
841603.000000
842454.000000
843292.000000
844146.000000
845020.000000
845877.000000
846728.000000
847553.000000
848368.000000
849195.000000
850017.000000
850841.000000
851653.000000
852463.000000
853290.000000
854105.000000
854905.000000
855723.000000
856491.000000
857272.000000
858080.000000
858889.000000
859698.000000
860499.000000
861323.000000
862172.000000
863032.000000
863902.000000
864767.000000
865618.000000
866448.000000
867270.000000
868099.000000
868931.000000
869769.000000
870604.000000
871436.000000
872281.000000
873155.000000
874024.000000
874895.000000
875734.000000
876566.000000
877407.000000
878241.000000
879077.000000
879904.000000
880743.000000
881607.000000
882477.000000
883349.000000
884196.000000
885027.000000
885849.000000
886667.000000
887484.000000
888292.000000
889111.000000
889927.000000
890697.000000
891467.000000
892261.000000
893050.000000
893858.000000
894700.000000
895563.000000
896422.000000
897259.000000
898093.000000
898936.000000
899778.000000
900614.000000
901440.000000
902275.000000
903136.000000
904009.000000
904877.000000
905743.000000
906621.000000
907489.000000
908343.000000
909188.000000
910043.000000
910900.000000
911746.000000
912569.000000
913132.000000
914203.000000
914992.000000
915778.000000
916589.000000
917405.000000
918220.000000
919036.000000
919873.000000
920725.000000
921581.000000
922424.000000
923268.000000
924106.000000
924931.000000
925762.000000
926598.000000
927430.000000
928242.000000
929049.000000
929881.000000
930746.000000
931611.000000
932473.000000
933318.000000
934160.000000
934993.000000
935825.000000
936657.000000
937475.000000
938294.000000
939130.000000
939984.000000
940847.000000
941705.000000
942547.000000
943397.000000
944239.000000
945024.000000
945799.000000
946601.000000
947401.000000
948205.000000
949021.000000
949865.000000
950721.000000
951585.000000
952417.000000
953236.000000
954061.000000
954900.000000
955738.000000
956560.000000
957379.000000
958208.000000
959048.000000
959893.000000
960728.000000
961549.000000
962371.000000
963212.000000
964069.000000
964932.000000
965774.000000
966616.000000
967457.000000
968310.000000
969149.000000
969976.000000
970812.000000
971655.000000
972500.000000
973338.000000
974195.000000
975059.000000
975908.000000
976750.000000
977596.000000
978442.000000
979261.000000
980059.000000
980847.000000
981642.000000
982449.000000
983212.000000
983998.000000
984824.000000
985647.000000
986454.000000
987270.000000
988112.000000
988960.000000
989798.000000
990627.000000
991465.000000
992304.000000
993126.000000
993953.000000
994792.000000
995634.000000
996474.000000
997299.000000
998121.000000
998951.000000
999805.000000
1000653.000000
1001443.000000
1002254.000000
1003074.000000
1003880.000000
1004681.000000
1005486.000000
1006315.000000
1007164.000000
1008011.000000
1008854.000000
1009688.000000
1010530.000000
1011375.000000
1012216.000000
1013051.000000
1013886.000000
1014736.000000
1015595.000000
1016463.000000
1017322.000000
1018165.000000
1019020.000000
1019886.000000
1020738.000000
1021594.000000
1022437.000000
1023263.000000
1024077.000000
1024882.000000
1025687.000000
1026535.000000
1027493.000000
1028388.000000
1029258.000000
1030098.000000
1030910.000000
1031719.000000
1032490.000000
1033259.000000
1034037.000000
1034814.000000
1035620.000000
1036451.000000
1037301.000000
1038167.000000
1039031.000000
1039879.000000
1040713.000000
1041531.000000
1042338.000000
1043114.000000
1043892.000000
1044694.000000
1045516.000000
1046338.000000
1047155.000000
1047971.000000
1048798.000000
1049631.000000
1050474.000000
1051314.000000
1052147.000000
1052987.000000
1053835.000000
1054682.000000
1055519.000000
1056354.000000
1057194.000000
1058032.000000
1058862.000000
1059701.000000
1060555.000000
1061413.000000
1062256.000000
1063091.000000
1063920.000000
1064736.000000
1065544.000000
1066353.000000
1067166.000000
1067981.000000
1068779.000000
1069540.000000
1070316.000000
1071099.000000
1071881.000000
1072665.000000
1073454.000000
1074261.000000
1075073.000000
1075894.000000
1076703.000000
1077508.000000
1078323.000000
1079149.000000
1079976.000000
1080791.000000
1081590.000000
1082388.000000
1083190.000000
1083998.000000
1084811.000000
1085628.000000
1086445.000000
1087278.000000
1088102.000000
1088919.000000
1089732.000000
1090502.000000
1091283.000000
1092078.000000
1092861.000000
1093654.000000
1094467.000000
1095296.000000
1096133.000000
1096958.000000
1097783.000000
1098599.000000
1099409.000000
1100204.000000
1100999.000000
1101785.000000
1102590.000000
1103397.000000
1104171.000000
1104929.000000
1105703.000000
1106491.000000
1107299.000000
1108127.000000
1108972.000000
1109825.000000
1110660.000000
1111474.000000
1112296.000000
1113121.000000
1113934.000000
1114736.000000
1115538.000000
1116345.000000
1117163.000000
1117977.000000
1118791.000000
1119602.000000
1120419.000000
1121226.000000
1122012.000000
1122804.000000
1123600.000000
1124369.000000
1125137.000000
1125935.000000
1126739.000000
1127544.000000
1128360.000000
1129185.000000
1130008.000000
1130828.000000
1131642.000000
1132469.000000
1133295.000000
1134116.000000
1134928.000000
1135754.000000
1136595.000000
1137435.000000
1138263.000000
1139103.000000
1139953.000000
1140800.000000
1141633.000000
1142456.000000
1143293.000000
1144129.000000
1144961.000000
1145774.000000
1146566.000000
1147371.000000
1148177.000000
1148986.000000
1149777.000000
1150532.000000
1151294.000000
1152058.000000
1152818.000000
1153587.000000
1154366.000000
1155147.000000
1155930.000000
1156713.000000
1157500.000000
1158303.000000
1159109.000000
1159906.000000
1160704.000000
1161512.000000
1162327.000000
1163143.000000
1163955.000000
1164756.000000
1165556.000000
1166363.000000
1167155.000000
1167910.000000
1168683.000000
1169461.000000
1170247.000000
1171040.000000
1171828.000000
1172615.000000
1173404.000000
1174214.000000
1175037.000000
1175863.000000
1176673.000000
1177483.000000
1178300.000000
1179120.000000
1179935.000000
1180745.000000
1181565.000000
1182389.000000
1183214.000000
1184029.000000
1184834.000000
1185607.000000
1186370.000000
1187147.000000
1187932.000000
1188693.000000
1189437.000000
1190174.000000
1190921.000000
1191680.000000
1192454.000000
1193241.000000
1194042.000000
1194814.000000
1195588.000000
1196390.000000
1197207.000000
1198028.000000
1198850.000000
1199672.000000
1200485.000000
1201296.000000
1202115.000000
1202944.000000
1203766.000000
1204581.000000
1205387.000000
1206181.000000
1206981.000000
1207798.000000
1208612.000000
1209380.000000
1210139.000000
1210922.000000
1211711.000000
1212499.000000
1213281.000000
1214069.000000
1214872.000000
1215694.000000
1216509.000000
1217320.000000
1218138.000000
1218960.000000
1219782.000000
1220586.000000
1221383.000000
1222184.000000
1222995.000000
1223789.000000
1224547.000000
1225315.000000
1226103.000000
1226884.000000
1227673.000000
1228473.000000
1229287.000000
1230102.000000
1230922.000000
1231731.000000
1232537.000000
1233349.000000
1234157.000000
1234964.000000
1235765.000000
1236566.000000
1237378.000000
1238195.000000
1239000.000000
1239800.000000
1240614.000000
1241434.000000
1242252.000000
1243049.000000
1243830.000000
1244617.000000
1245414.000000
1246217.000000
1247021.000000
1247827.000000
1248623.000000
1249407.000000
1250197.000000
1250992.000000
1251780.000000
1252557.000000
1253331.000000
1254114.000000
1254911.000000
1255712.000000
1256504.000000
1257301.000000
1258105.000000
1258912.000000
1259673.000000
1260457.000000
1261258.000000
1262053.000000
1262845.000000
1263645.000000
1264445.000000
1265235.000000
1266021.000000
1266819.000000
1267621.000000
1268417.000000
1269201.000000
1269984.000000
1270772.000000
1271564.000000
1272343.000000
1273122.000000
1273921.000000
1274724.000000
1275521.000000
1276314.000000
1277102.000000
1277903.000000
1278721.000000
1279551.000000
1280368.000000
1281180.000000
1281952.000000
1282707.000000
1283475.000000
1284242.000000
1285003.000000
1285763.000000
1286541.000000
1287330.000000
1288130.000000
1288930.000000
1289719.000000
1290511.000000
1291308.000000
1292102.000000
1292884.000000
1293668.000000
1294458.000000
1295263.000000
1296075.000000
1296888.000000
1297719.000000
1298565.000000
1299408.000000
1300237.000000
1301068.000000
1301904.000000
1302728.000000
1303538.000000
1304363.000000
1305199.000000
1306036.000000
1306873.000000
1307714.000000
1308569.000000
1309427.000000
1310278.000000
1311131.000000
1311984.000000
1312816.000000
1313627.000000
1314439.000000
1315244.000000
1316016.000000
1316782.000000
1317566.000000
1318351.000000
1319134.000000
1319934.000000
1320751.000000
1321570.000000
1322387.000000
1323184.000000
1323977.000000
1324773.000000
1325579.000000
1326390.000000
1327203.000000
1328027.000000
1328844.000000
1329648.000000
1330458.000000
1331267.000000
1332077.000000
1332877.000000
1333685.000000
1334497.000000
1335318.000000
1336144.000000
1336973.000000
1337820.000000
1338660.000000
1339479.000000
1340286.000000
1341096.000000
1341901.000000
1342697.000000
1343487.000000
1344284.000000
1345104.000000
1345923.000000
1346699.000000
1347477.000000
1348271.000000
1349063.000000
1349852.000000
1350645.000000
1351470.000000
1352311.000000
1353167.000000
1354012.000000
1354854.000000
1355698.000000
1356527.000000
1357335.000000
1358144.000000
1358947.000000
1359746.000000
1360536.000000
1361310.000000
1362084.000000
1362859.000000
1363633.000000
1364380.000000
1365136.000000
1365916.000000
1366698.000000
1367475.000000
1368263.000000
1369063.000000
1369865.000000
1370670.000000
1371488.000000
1372317.000000
1373147.000000
1373969.000000
1374796.000000
1375625.000000
1376433.000000
1377226.000000
1378000.000000
1378764.000000
1379562.000000
1380333.000000
1381083.000000
1381817.000000
1382536.000000
1383256.000000
1383998.000000
1384746.000000
1385506.000000
1386284.000000
1387058.000000
1387812.000000
1388608.000000
1389415.000000
1390216.000000
1391017.000000
1391823.000000
1392644.000000
1393464.000000
1394252.000000
1395004.000000
1395763.000000
1396537.000000
1397310.000000
1398094.000000
1398892.000000
1399696.000000
1400508.000000
1401324.000000
1402132.000000
1402933.000000
1403740.000000
1404549.000000
1405356.000000
1406151.000000
1406940.000000
1407743.000000
1408547.000000
1409355.000000
1410159.000000
1410940.000000
1411739.000000
1412549.000000
1413352.000000
1414112.000000
1414890.000000
1415682.000000
1416467.000000
1417251.000000
1418051.000000
1418867.000000
1419695.000000
1420537.000000
1421388.000000
1422242.000000
1423069.000000
1423889.000000
1424715.000000
1425544.000000
1426376.000000
1427193.000000
1428004.000000
1428830.000000
1429660.000000
1430477.000000
1431306.000000
1432136.000000
1432978.000000
1433801.000000
1434603.000000
1435394.000000
1436179.000000
1436972.000000
1437744.000000
1438498.000000
1439272.000000
1440053.000000
1440831.000000
1441612.000000
1442404.000000
1443197.000000
1443977.000000
1444758.000000
1445552.000000
1446357.000000
1447162.000000
1447979.000000
1448803.000000
1449615.000000
1450420.000000
1451236.000000
1452068.000000
1452889.000000
1453696.000000
1454508.000000
1455323.000000
1456138.000000
1456954.000000
1457759.000000
1458569.000000
1459383.000000
1460191.000000
1460992.000000
1461803.000000
1462621.000000
1463424.000000
1464222.000000
1465014.000000
1465806.000000
1466575.000000
1467330.000000
1468104.000000
1468879.000000
1469648.000000
1470428.000000
1471223.000000
1472034.000000
1472845.000000
1473645.000000
1474446.000000
1475254.000000
1476059.000000
1476860.000000
1477667.000000
1478471.000000
1479280.000000
1480083.000000
1480896.000000
1481715.000000
1482539.000000
1483358.000000
1484176.000000
1485011.000000
1485851.000000
1486678.000000
1487506.000000
1488338.000000
1489157.000000
1489958.000000
1490764.000000
1491575.000000
1492390.000000
1493220.000000
1494057.000000
1494902.000000
1495731.000000
1496556.000000
1497358.000000
1498146.000000
1498950.000000
1499762.000000
1500579.000000
1501386.000000
1502176.000000
1502963.000000
1503750.000000
1504503.000000
1505265.000000
1506036.000000
1506812.000000
1507594.000000
1508376.000000
1509161.000000
1509964.000000
1510774.000000
1511576.000000
1512373.000000
1513190.000000
1514005.000000
1514818.000000
1515618.000000
1516419.000000
1517224.000000
1518031.000000
1518836.000000
1519641.000000
1520460.000000
1521278.000000
1522088.000000
1522890.000000
1523706.000000
1524518.000000
1525322.000000
1526122.000000
1526932.000000
1527738.000000
1528528.000000
1529311.000000
1530103.000000
1530901.000000
1531694.000000
1532478.000000
1533262.000000
1534046.000000
1534834.000000
1535587.000000
1536333.000000
1537090.000000
1537845.000000
1538598.000000
1539358.000000
1540126.000000
1540899.000000
1541673.000000
1542446.000000
1543242.000000
1544049.000000
1544846.000000
1545627.000000
1546406.000000
1547179.000000
1547959.000000
1548706.000000
1549462.000000
1550237.000000
1551009.000000
1551771.000000
1552521.000000
1553264.000000
1554015.000000
1554798.000000
1555751.000000
1556643.000000
1557477.000000
1558262.000000
1559021.000000
1559759.000000
1560478.000000
1561190.000000
1561915.000000
1562640.000000
1563377.000000
1564101.000000
1564836.000000
1565600.000000
1566373.000000
1567154.000000
1567931.000000
1568706.000000
1569498.000000
1570305.000000
1571120.000000
1571937.000000
1572749.000000
1573559.000000
1574396.000000
1575228.000000
1576070.000000
1576906.000000
1577734.000000
1578561.000000
1579382.000000
1580192.000000
1580995.000000
1581809.000000
1582628.000000
1583400.000000
1584180.000000
1584975.000000
1585772.000000
1586574.000000
1587386.000000
1588214.000000
1589053.000000
1589896.000000
1590737.000000
1591567.000000
1592380.000000
1593190.000000
1594005.000000
1594830.000000
1595655.000000
1596471.000000
1597294.000000
1598115.000000
1598943.000000
1599761.000000
1600575.000000
1601405.000000
1602237.000000
1603066.000000
1603880.000000
1604690.000000
1605499.000000
1606313.000000
1607132.000000
1607953.000000
1608773.000000
1609582.000000
1610384.000000
1611181.000000
1611969.000000
1612737.000000
1613498.000000
1614238.000000
1614983.000000
1615746.000000
1616512.000000
1617292.000000
1618087.000000
1618880.000000
1619674.000000
1620489.000000
1621312.000000
1622132.000000
1622935.000000
1623738.000000
1624563.000000
1625400.000000
1626231.000000
1627056.000000
1627905.000000
1628755.000000
1629597.000000
1630430.000000
1631272.000000
1632114.000000
1632949.000000
1633770.000000
1634588.000000
1635413.000000
1636227.000000
1637042.000000
1637866.000000
1638690.000000
1639507.000000
1640315.000000
1641137.000000
1641955.000000
1642767.000000
1643579.000000
1644396.000000
1645215.000000
1646020.000000
1646785.000000
1647535.000000
1648295.000000
1649059.000000
1649822.000000
1650611.000000
1651420.000000
1652242.000000
1653074.000000
1653907.000000
1654734.000000
1655561.000000
1656388.000000
1657202.000000
1658029.000000
1658874.000000
1659713.000000
1660542.000000
1661374.000000
1662206.000000
1663039.000000
1663864.000000
1664711.000000
1665561.000000
1666410.000000
1667234.000000
1668053.000000
1668872.000000
1669686.000000
1670491.000000
1671302.000000
1672119.000000
1672931.000000
1673733.000000
1674533.000000
1675340.000000
1676147.000000
1676943.000000
1677745.000000
1678558.000000
1679367.000000
1680180.000000
1681006.000000
1681844.000000
1682686.000000
1683526.000000
1684362.000000
1685207.000000
1686044.000000
1686879.000000
1687700.000000
1688517.000000
1689338.000000
1690156.000000
1690963.000000
1691769.000000
1692544.000000
1693309.000000
1694093.000000
1694881.000000
1695671.000000
1696467.000000
1697287.000000
1698139.000000
1699004.000000
1699852.000000
1700692.000000
1701528.000000
1702382.000000
1703243.000000
1704089.000000
1704928.000000
1705754.000000
1706583.000000
1707433.000000
1708266.000000
1709083.000000
1709903.000000
1710718.000000
1711531.000000
1712325.000000
1713119.000000
1713918.000000
1714726.000000
1715525.000000
1716322.000000
1717120.000000
1717935.000000
1718749.000000
1719560.000000
1720350.000000
1721128.000000
1721916.000000
1722720.000000
1723550.000000
1724381.000000
1725181.000000
1725948.000000
1726729.000000
1727517.000000
1728299.000000
1729071.000000
1729852.000000
1730657.000000
1731477.000000
1732304.000000
1733132.000000
1733957.000000
1734795.000000
1735641.000000
1736471.000000
1737298.000000
1738134.000000
1738985.000000
1739830.000000
1740672.000000
1741521.000000
1742378.000000
1743229.000000
1744059.000000
1744884.000000
1745706.000000
1746512.000000
1747314.000000
1748135.000000
1748967.000000
1749774.000000
1750582.000000
1751384.000000
1752193.000000
1752968.000000
1753754.000000
1754557.000000
1755360.000000
1756155.000000
1756934.000000
1757703.000000
1758474.000000
1759266.000000
1760078.000000
1760899.000000
1761716.000000
1762537.000000
1763346.000000
1764171.000000
1765005.000000
1765840.000000
1766674.000000
1767522.000000
1768376.000000
1769230.000000
1770082.000000
1770925.000000
1771767.000000
1772612.000000
1773454.000000
1774279.000000
1775107.000000
1775937.000000
1776770.000000
1777603.000000
1778421.000000
1779243.000000
1780093.000000
1780944.000000
1781772.000000
1782589.000000
1783400.000000
1784218.000000
1785038.000000
1785849.000000
1786663.000000
1787492.000000
1788334.000000
1789173.000000
1790000.000000
1790810.000000
1791621.000000
1792429.000000
1793231.000000
1793990.000000
1794763.000000
1795568.000000
1796372.000000
1797183.000000
1798014.000000
1798855.000000
1799686.000000
