ECG (ms)
23.000000
777.000000
1516.000000
2326.000000
3262.000000
4159.000000
5086.000000
5933.000000
6790.000000
7612.000000
8484.000000
9367.000000
10166.000000
10931.000000
11656.000000
12558.000000
13513.000000
14557.000000
15629.000000
16594.000000
17529.000000
18387.000000
19182.000000
19975.000000
20768.000000
21622.000000
22384.000000
26296.000000
27107.000000
28039.000000
29076.000000
30132.000000
31159.000000
32190.000000
33130.000000
34099.000000
35058.000000
36020.000000
37087.000000
38144.000000
39211.000000
40281.000000
41326.000000
42361.000000
43385.000000
44360.000000
45397.000000
46423.000000
47449.000000
48496.000000
49523.000000
50566.000000
51609.000000
52616.000000
53669.000000
54696.000000
55684.000000
56739.000000
57812.000000
58883.000000
59953.000000
60972.000000
61998.000000
63003.000000
63954.000000
64909.000000
65907.000000
66927.000000
67980.000000
68972.000000
69935.000000
70967.000000
72002.000000
72974.000000
73983.000000
74998.000000
75943.000000
76944.000000
77963.000000
78901.000000
79898.000000
80959.000000
81963.000000
82995.000000
84043.000000
85032.000000
86008.000000
86970.000000
87857.000000
88837.000000
89854.000000
90829.000000
91875.000000
92929.000000
93936.000000
94982.000000
95979.000000
96959.000000
97943.000000
98909.000000
99879.000000
100893.000000
101887.000000
102887.000000
103917.000000
104889.000000
105922.000000
106964.000000
107981.000000
109029.000000
110062.000000
111026.000000
112033.000000
113032.000000
113979.000000
114983.000000
115995.000000
116944.000000
117917.000000
118884.000000
119799.000000
120783.000000
121796.000000
122770.000000
123793.000000
124807.000000
125775.000000
126768.000000
127778.000000
128742.000000
129745.000000
130732.000000
131668.000000
132636.000000
133543.000000
134372.000000
135267.000000
136252.000000
137236.000000
138229.000000
139264.000000
140288.000000
141289.000000
142326.000000
143306.000000
144284.000000
145307.000000
146333.000000
147320.000000
148340.000000
149329.000000
150325.000000
151347.000000
152336.000000
153327.000000
154336.000000
155274.000000
156250.000000
157252.000000
158209.000000
159212.000000
160248.000000
161241.000000
162231.000000
163264.000000
164245.000000
165227.000000
166237.000000
167194.000000
168139.000000
169107.000000
170066.000000
171005.000000
172009.000000
173027.000000
174038.000000
175088.000000
176065.000000
177045.000000
178044.000000
179004.000000
180011.000000
181014.000000
181947.000000
182931.000000
183942.000000
184904.000000
185920.000000
186953.000000
187941.000000
188979.000000
189996.000000
190999.000000
192048.000000
193062.000000
194055.000000
195084.000000
196088.000000
197080.000000
198134.000000
199170.000000
200188.000000
201236.000000
202237.000000
203260.000000
204309.000000
205322.000000
206363.000000
207397.000000
208408.000000
209445.000000
210452.000000
211430.000000
212453.000000
213494.000000
214490.000000
215550.000000
216620.000000
217650.000000
218709.000000
219740.000000
220743.000000
221782.000000
222809.000000
223801.000000
224864.000000
225897.000000
226985.000000
228004.000000
229034.000000
230080.000000
231136.000000
232175.000000
233188.000000
234270.000000
235338.000000
236343.000000
237384.000000
238425.000000
239408.000000
240456.000000
241489.000000
242483.000000
243532.000000
244527.000000
245514.000000
246562.000000
247560.000000
248542.000000
249559.000000
250557.000000
251545.000000
252559.000000
253548.000000
254567.000000
255603.000000
256600.000000
257602.000000
258622.000000
259607.000000
260649.000000
261714.000000
262742.000000
263784.000000
264797.000000
265777.000000
266794.000000
267817.000000
268824.000000
269841.000000
270838.000000
271836.000000
272878.000000
273898.000000
274931.000000
276003.000000
277029.000000
278077.000000
279166.000000
280205.000000
281246.000000
282280.000000
283292.000000
284331.000000
285365.000000
286381.000000
287416.000000
288413.000000
289397.000000
290453.000000
291469.000000
292521.000000
293607.000000
294633.000000
295681.000000
296730.000000
297769.000000
298867.000000
299937.000000
300990.000000
302053.000000
303092.000000
304106.000000
305175.000000
306231.000000
307276.000000
308365.000000
309424.000000
310432.000000
311489.000000
312529.000000
313543.000000
314601.000000
315644.000000
316656.000000
317712.000000
318702.000000
319707.000000
320721.000000
321706.000000
322701.000000
323708.000000
324690.000000
325746.000000
326788.000000
327797.000000
328848.000000
329873.000000
330876.000000
331921.000000
332997.000000
334036.000000
335121.000000
336220.000000
337282.000000
338353.000000
339396.000000
340433.000000
341508.000000
342572.000000
343620.000000
344741.000000
345814.000000
346897.000000
347977.000000
349055.000000
350140.000000
351222.000000
352296.000000
353377.000000
354391.000000
355440.000000
356486.000000
357550.000000
358625.000000
359696.000000
360741.000000
361799.000000
362842.000000
363850.000000
364903.000000
365943.000000
366947.000000
367972.000000
368966.000000
369974.000000
371043.000000
372080.000000
373118.000000
374187.000000
375197.000000
376173.000000
377198.000000
378268.000000
379306.000000
380396.000000
381511.000000
382583.000000
383665.000000
384726.000000
385747.000000
386841.000000
387934.000000
389023.000000
390106.000000
391190.000000
392270.000000
393351.000000
394413.000000
395416.000000
396451.000000
397527.000000
398534.000000
399653.000000
400720.000000
401761.000000
402864.000000
403916.000000
405007.000000
406083.000000
407136.000000
408187.000000
409241.000000
410258.000000
411317.000000
412377.000000
413404.000000
414489.000000
415557.000000
416565.000000
417589.000000
418553.000000
419413.000000
420201.000000
421023.000000
421918.000000
422736.000000
423515.000000
424444.000000
425566.000000
426637.000000
427708.000000
428785.000000
429862.000000
430935.000000
432010.000000
433009.000000
434015.000000
434952.000000
435942.000000
436960.000000
438005.000000
439023.000000
440057.000000
441099.000000
442144.000000
443188.000000
444236.000000
445276.000000
446284.000000
447394.000000
448472.000000
449512.000000
450592.000000
451641.000000
452670.000000
453787.000000
454870.000000
455946.000000
457029.000000
458110.000000
459193.000000
460276.000000
461360.000000
462444.000000
463528.000000
464607.000000
465692.000000
466774.000000
467850.000000
468931.000000
470005.000000
471073.000000
472156.000000
473229.000000
474299.000000
475374.000000
476449.000000
477518.000000
478590.000000
479662.000000
480733.000000
481803.000000
482862.000000
483860.000000
484901.000000
485997.000000
487058.000000
488159.000000
489230.000000
490301.000000
491354.000000
492446.000000
493520.000000
494592.000000
495660.000000
496736.000000
497811.000000
498882.000000
499953.000000
501029.000000
502103.000000
503175.000000
504256.000000
505333.000000
506403.000000
507478.000000
508554.000000
509624.000000
510705.000000
511778.000000
512853.000000
513932.000000
515009.000000
516080.000000
517160.000000
518235.000000
519310.000000
520390.000000
521469.000000
522545.000000
523629.000000
524711.000000
525787.000000
526871.000000
527949.000000
529024.000000
530107.000000
531187.000000
532261.000000
533341.000000
534416.000000
535475.000000
536446.000000
537524.000000
538581.000000
539606.000000
540685.000000
541778.000000
542823.000000
543872.000000
544926.000000
545952.000000
547019.000000
548134.000000
549187.000000
550251.000000
551329.000000
552355.000000
553385.000000
554469.000000
555505.000000
556620.000000
557698.000000
558769.000000
559843.000000
560913.000000
561949.000000
563024.000000
564128.000000
565200.000000
566276.000000
567348.000000
568418.000000
569488.000000
570556.000000
571625.000000
572675.000000
573673.000000
574519.000000
575330.000000
576229.000000
577347.000000
578416.000000
579490.000000
580571.000000
581646.000000
582729.000000
583808.000000
584880.000000
585932.000000
586974.000000
588032.000000
589099.000000
590208.000000
591283.000000
592363.000000
593441.000000
594512.000000
595590.000000
596665.000000
597738.000000
598817.000000
599894.000000
600966.000000
602039.000000
603113.000000
604187.000000
605264.000000
606341.000000
607415.000000
608494.000000
609571.000000
610643.000000
611720.000000
612794.000000
613869.000000
614944.000000
616019.000000
617095.000000
618177.000000
619256.000000
620329.000000
621396.000000
622445.000000
623476.000000
624531.000000
625596.000000
626641.000000
627735.000000
628820.000000
629834.000000
630867.000000
631902.000000
632922.000000
634021.000000
635105.000000
636158.000000
637245.000000
638314.000000
639364.000000
640443.000000
641510.000000
642534.000000
643601.000000
644650.000000
645736.000000
646810.000000
647901.000000
648973.000000
650050.000000
651121.000000
652133.000000
653162.000000
654251.000000
655263.000000
656356.000000
657443.000000
658487.000000
659565.000000
660638.000000
661637.000000
662688.000000
663733.000000
664719.000000
665800.000000
666895.000000
667939.000000
669021.000000
670092.000000
671128.000000
672216.000000
673271.000000
674332.000000
675414.000000
676494.000000
677528.000000
678614.000000
679712.000000
680791.000000
681866.000000
682935.000000
684008.000000
685083.000000
686156.000000
687233.000000
688308.000000
689382.000000
690461.000000
691534.000000
692566.000000
693360.000000
694129.000000
695053.000000
696174.000000
697246.000000
698292.000000
699359.000000
700431.000000
701520.000000
702592.000000
703672.000000
704750.000000
705825.000000
706860.000000
707898.000000
708920.000000
709885.000000
710910.000000
711934.000000
712929.000000
713974.000000
715047.000000
716128.000000
717199.000000
718288.000000
719350.000000
720349.000000
721273.000000
722222.000000
723137.000000
724124.000000
725177.000000
726173.000000
727220.000000
728289.000000
729335.000000
730397.000000
731473.000000
732526.000000
733590.000000
734668.000000
735719.000000
736756.000000
737774.000000
738814.000000
739902.000000
741002.000000
742067.000000
743122.000000
744203.000000
745240.000000
746281.000000
747332.000000
748345.000000
749332.000000
750368.000000
751366.000000
752228.000000
753150.000000
754249.000000
755350.000000
756437.000000
757521.000000
758602.000000
759688.000000
760765.000000
761814.000000
762820.000000
763879.000000
764917.000000
765976.000000
767070.000000
768157.000000
769210.000000
770275.000000
771336.000000
772338.000000
773382.000000
774417.000000
775411.000000
776471.000000
777564.000000
778590.000000
779646.000000
780699.000000
781718.000000
782760.000000
783857.000000
784923.000000
785994.000000
787085.000000
788111.000000
789120.000000
790162.000000
791194.000000
792195.000000
793267.000000
794306.000000
795318.000000
796390.000000
797431.000000
798455.000000
799501.000000
800551.000000
801550.000000
802574.000000
803600.000000
804556.000000
805551.000000
806548.000000
807493.000000
808496.000000
809510.000000
810479.000000
811480.000000
812497.000000
813468.000000
814469.000000
815481.000000
816464.000000
817489.000000
818539.000000
819533.000000
820576.000000
821632.000000
822655.000000
823732.000000
824793.000000
825770.000000
826607.000000
827513.000000
828569.000000
829576.000000
830535.000000
831560.000000
832644.000000
833730.000000
834824.000000
835933.000000
837001.000000
838070.000000
839114.000000
840098.000000
841074.000000
842064.000000
843054.000000
844077.000000
845161.000000
846242.000000
847317.000000
848414.000000
849452.000000
850523.000000
851615.000000
852658.000000
853735.000000
854786.000000
855823.000000
856872.000000
857915.000000
858927.000000
859976.000000
861025.000000
862063.000000
863172.000000
864229.000000
865270.000000
866324.000000
867381.000000
868339.000000
869286.000000
870334.000000
871344.000000
872368.000000
873415.000000
874398.000000
875347.000000
876256.000000
877065.000000
877828.000000
878584.000000
879423.000000
880391.000000
881353.000000
882321.000000
883312.000000
884252.000000
885190.000000
886170.000000
887180.000000
888171.000000
889189.000000
890206.000000
891197.000000
892239.000000
893298.000000
894365.000000
895466.000000
896547.000000
897604.000000
898715.000000
899778.000000
900833.000000
901906.000000
902943.000000
904018.000000
905132.000000
906239.000000
907311.000000
908384.000000
909426.000000
910484.000000
911574.000000
912690.000000
913819.000000
914885.000000
915912.000000
917034.000000
918145.000000
919212.000000
920282.000000
921243.000000
922048.000000
922804.000000
923629.000000
924754.000000
925859.000000
926953.000000
928051.000000
929152.000000
930256.000000
931356.000000
932456.000000
933427.000000
934287.000000
935179.000000
936229.000000
937297.000000
938383.000000
939441.000000
940508.000000
941580.000000
942632.000000
943611.000000
944642.000000
945713.000000
946772.000000
947831.000000
948825.000000
949817.000000
950855.000000
951846.000000
952894.000000
953958.000000
954955.000000
956007.000000
957065.000000
958052.000000
959090.000000
960095.000000
960985.000000
961875.000000
962754.000000
963538.000000
964280.000000
965153.000000
966189.000000
967169.000000
968175.000000
969182.000000
970135.000000
971082.000000
972024.000000
972958.000000
973894.000000
974878.000000
975905.000000
976857.000000
977843.000000
978873.000000
979867.000000
980868.000000
981906.000000
982927.000000
984000.000000
985074.000000
986089.000000
987176.000000
988284.000000
989298.000000
990319.000000
991339.000000
992319.000000
993384.000000
994495.000000
995610.000000
996711.000000
997809.000000
998915.000000
1000021.000000
1001092.000000
1002143.000000
1003209.000000
1004282.000000
1005388.000000
1006463.000000
1007483.000000
1008453.000000
1009489.000000
1010575.000000
1011635.000000
1012740.000000
1013851.000000
1014945.000000
1015999.000000
1017080.000000
1018155.000000
1019193.000000
1020246.000000
1021309.000000
1022324.000000
1023382.000000
1024450.000000
1025450.000000
1026456.000000
1027493.000000
1028457.000000
1029462.000000
1030484.000000
1031482.000000
1032533.000000
1033565.000000
1034561.000000
1035602.000000
1036647.000000
1037664.000000
1038728.000000
1039778.000000
1040781.000000
1041831.000000
1042863.000000
1043892.000000
1044946.000000
1045987.000000
1046952.000000
1047972.000000
1049027.000000
1050032.000000
1051070.000000
1052116.000000
1053089.000000
1054031.000000
1055001.000000
1055949.000000
1056761.000000
1057558.000000
1058471.000000
1059579.000000
1060683.000000
1061731.000000
1062780.000000
1063808.000000
1064843.000000
1065881.000000
1066917.000000
1067943.000000
1069001.000000
1070059.000000
1071077.000000
1072094.000000
1073156.000000
1074209.000000
1075289.000000
1076384.000000
1077440.000000
1078448.000000
1079530.000000
1080569.000000
1081561.000000
1082612.000000
1083631.000000
1084553.000000
1085552.000000
1086597.000000
1087621.000000
1088693.000000
1089756.000000
1090787.000000
1091862.000000
1092937.000000
1093965.000000
1095031.000000
1096104.000000
1097173.000000
1098253.000000
1099315.000000
1100315.000000
1101370.000000
1102446.000000
1103500.000000
1104455.000000
1105427.000000
1106501.000000
1107544.000000
1108575.000000
1109640.000000
1110711.000000
1111744.000000
1112791.000000
1113826.000000
1114825.000000
1115847.000000
1116841.000000
1117798.000000
1118789.000000
1119815.000000
1120825.000000
1121859.000000
1122877.000000
1123891.000000
1124923.000000
1125951.000000
1126959.000000
1128006.000000
1129077.000000
1130112.000000
1131182.000000
1132274.000000
1133293.000000
1134291.000000
1135269.000000
1136193.000000
1137252.000000
1138300.000000
1139295.000000
1140357.000000
1141398.000000
1142453.000000
1143528.000000
1144537.000000
1145528.000000
1146579.000000
1147588.000000
1148580.000000
1149622.000000
1150639.000000
1151591.000000
1152579.000000
1153614.000000
1154611.000000
1155653.000000
1156699.000000
1157671.000000
1158682.000000
1159714.000000
1160649.000000
1161555.000000
1162513.000000
1163449.000000
1164412.000000
1165418.000000
1166387.000000
1167434.000000
1168492.000000
1169417.000000
1170379.000000
1171296.000000
1172111.000000
1172840.000000
1173603.000000
1174573.000000
1175631.000000
1176598.000000
1177616.000000
1178653.000000
1179641.000000
1180649.000000
1181678.000000
1182667.000000
1183675.000000
1184724.000000
1185789.000000
1186830.000000
1187883.000000
1188950.000000
1189984.000000
1190987.000000
1192042.000000
1193028.000000
1193914.000000
1194696.000000
1195452.000000
1196319.000000
1197455.000000
1198593.000000
1199709.000000
1200825.000000
1201937.000000
1203033.000000
1204071.000000
1205130.000000
1206187.000000
1207227.000000
1208232.000000
1209254.000000
1210313.000000
1211391.000000
1212451.000000
1213490.000000
1214515.000000
1215563.000000
1216550.000000
1217483.000000
1218547.000000
1219655.000000
1220673.000000
1221717.000000
1222709.000000
1223675.000000
1224666.000000
1225672.000000
1226629.000000
1227668.000000
1228712.000000
1229729.000000
1230805.000000
1231864.000000
1232884.000000
1233898.000000
1234915.000000
1235896.000000
1236936.000000
1237984.000000
1239034.000000
1240117.000000
1241205.000000
1242213.000000
1243244.000000
1244277.000000
1245259.000000
1246321.000000
1247384.000000
1248453.000000
1249451.000000
1250508.000000
1251562.000000
1252555.000000
1253588.000000
1254659.000000
1255691.000000
1256755.000000
1257816.000000
1258852.000000
1259902.000000
1260955.000000
1261946.000000
1263018.000000
1264059.000000
1265073.000000
1266120.000000
1267135.000000
1268165.000000
1269278.000000
1270373.000000
1271430.000000
1272503.000000
1273576.000000
1274575.000000
1275458.000000
1276249.000000
1277081.000000
1277899.000000
1278703.000000
1279649.000000
1280582.000000
1281543.000000
1282513.000000
1283516.000000
1284453.000000
1285377.000000
1286295.000000
1287240.000000
1288159.000000
1289173.000000
1290211.000000
1291245.000000
1292301.000000
1293347.000000
1294402.000000
1295456.000000
1296546.000000
1297613.000000
1298683.000000
