ECG (ms)
711.000000
1647.000000
2538.000000
3380.000000
4286.000000
5210.000000
6146.000000
7014.000000
7915.000000
8831.000000
9761.000000
10658.000000
11522.000000
12462.000000
13415.000000
14331.000000
15176.000000
16083.000000
17021.000000
17964.000000
18833.000000
19700.000000
20596.000000
21531.000000
22417.000000
23284.000000
24203.000000
25170.000000
26113.000000
26981.000000
27866.000000
28770.000000
29670.000000
30513.000000
31401.000000
32322.000000
33218.000000
34046.000000
34908.000000
35811.000000
36746.000000
37616.000000
38438.000000
39299.000000
40184.000000
41069.000000
41905.000000
42743.000000
43642.000000
44560.000000
45411.000000
46216.000000
47088.000000
47991.000000
48885.000000
49714.000000
50535.000000
51396.000000
52256.000000
53081.000000
53895.000000
54779.000000
55706.000000
56599.000000
57431.000000
58301.000000
59183.000000
60073.000000
60912.000000
61830.000000
62750.000000
63612.000000
64429.000000
65315.000000
66197.000000
67042.000000
67836.000000
68678.000000
69543.000000
70375.000000
71142.000000
71952.000000
72803.000000
73700.000000
74475.000000
75244.000000
76034.000000
76872.000000
77658.000000
78416.000000
79274.000000
80141.000000
80930.000000
81697.000000
82538.000000
83433.000000
84273.000000
85019.000000
85765.000000
86608.000000
87368.000000
88058.000000
88733.000000
89422.000000
90138.000000
91070.000000
92021.000000
92963.000000
93841.000000
94665.000000
95571.000000
96534.000000
97402.000000
98171.000000
98947.000000
99820.000000
100783.000000
101649.000000
102458.000000
103581.000000
104542.000000
105405.000000
106259.000000
107191.000000
108136.000000
109044.000000
109864.000000
110725.000000
111601.000000
112464.000000
113267.000000
114070.000000
114923.000000
115817.000000
116656.000000
117472.000000
118342.000000
119212.000000
120020.000000
120786.000000
121539.000000
122339.000000
123156.000000
123931.000000
124763.000000
125735.000000
126639.000000
127416.000000
128229.000000
129114.000000
129975.000000
130743.000000
131540.000000
132394.000000
133229.000000
133984.000000
134725.000000
135540.000000
136389.000000
137180.000000
137917.000000
138735.000000
139585.000000
140411.000000
141164.000000
141887.000000
142646.000000
143447.000000
144240.000000
145020.000000
145884.000000
146914.000000
147775.000000
148516.000000
149312.000000
150212.000000
151111.000000
151894.000000
152682.000000
153573.000000
154493.000000
155291.000000
156065.000000
157066.000000
158088.000000
159014.000000
159911.000000
160863.000000
161806.000000
162695.000000
163545.000000
164461.000000
165423.000000
166328.000000
167140.000000
168002.000000
168936.000000
169925.000000
170846.000000
171705.000000
172651.000000
173624.000000
174566.000000
175449.000000
176281.000000
177146.000000
178072.000000
179024.000000
179934.000000
180749.000000
181588.000000
182450.000000
183363.000000
184262.000000
185112.000000
186040.000000
187031.000000
188025.000000
188913.000000
189787.000000
190716.000000
191644.000000
192499.000000
193332.000000
194240.000000
195160.000000
196050.000000
196871.000000
197713.000000
198587.000000
199475.000000
200332.000000
201151.000000
202075.000000
203031.000000
203996.000000
204859.000000
205696.000000
206568.000000
207459.000000
208297.000000
209079.000000
209915.000000
210786.000000
211661.000000
212435.000000
213186.000000
214119.000000
215213.000000
216093.000000
216959.000000
217859.000000
218793.000000
219600.000000
220360.000000
221191.000000
222200.000000
223128.000000
223924.000000
224724.000000
225648.000000
226611.000000
227541.000000
228341.000000
229169.000000
230013.000000
230879.000000
231679.000000
232436.000000
233298.000000
234363.000000
235363.000000
236244.000000
237154.000000
238146.000000
239068.000000
239875.000000
240742.000000
241666.000000
242687.000000
243617.000000
244482.000000
245512.000000
246584.000000
247542.000000
248341.000000
249198.000000
250119.000000
251122.000000
251992.000000
252803.000000
253700.000000
254657.000000
255618.000000
256459.000000
257280.000000
258220.000000
259229.000000
260161.000000
260960.000000
261758.000000
262633.000000
263578.000000
264448.000000
265242.000000
266151.000000
267232.000000
268225.000000
269101.000000
269994.000000
270907.000000
271786.000000
272567.000000
273356.000000
274295.000000
275269.000000
276161.000000
276931.000000
277733.000000
278607.000000
279552.000000
280389.000000
281181.000000
282105.000000
283077.000000
283964.000000
284759.000000
285594.000000
286504.000000
287420.000000
288250.000000
289056.000000
290091.000000
291117.000000
292018.000000
292788.000000
293541.000000
294363.000000
295265.000000
296151.000000
296948.000000
297837.000000
298683.000000
299452.000000
300157.000000
300848.000000
301856.000000
302817.000000
303781.000000
304668.000000
305510.000000
306422.000000
307354.000000
308272.000000
309132.000000
309962.000000
310815.000000
311681.000000
312559.000000
313407.000000
314238.000000
315123.000000
316043.000000
316981.000000
317867.000000
318730.000000
319611.000000
320502.000000
321378.000000
322213.000000
323111.000000
324022.000000
324959.000000
325852.000000
326732.000000
327629.000000
328495.000000
329298.000000
330074.000000
330873.000000
331760.000000
332644.000000
333488.000000
334412.000000
335345.000000
336295.000000
337178.000000
338082.000000
339013.000000
339951.000000
340816.000000
341656.000000
342547.000000
343469.000000
344425.000000
345302.000000
346224.000000
347183.000000
348119.000000
348964.000000
349831.000000
350704.000000
351593.000000
352434.000000
353282.000000
354207.000000
355152.000000
356097.000000
356950.000000
357848.000000
358770.000000
359704.000000
360565.000000
361388.000000
362248.000000
363115.000000
363922.000000
364725.000000
365586.000000
366479.000000
367360.000000
368169.000000
368967.000000
369815.000000
370692.000000
371558.000000
372351.000000
373091.000000
373874.000000
374730.000000
375658.000000
376475.000000
377227.000000
378069.000000
378911.000000
379735.000000
380490.000000
381223.000000
381996.000000
382847.000000
383695.000000
384467.000000
385280.000000
386187.000000
387099.000000
387883.000000
388615.000000
389366.000000
390199.000000
391098.000000
392006.000000
392894.000000
393910.000000
394907.000000
395757.000000
396524.000000
397351.000000
398281.000000
399215.000000
400021.000000
400775.000000
401665.000000
402613.000000
403538.000000
404353.000000
405134.000000
406024.000000
407014.000000
407967.000000
408796.000000
409538.000000
410318.000000
411313.000000
412319.000000
413248.000000
414088.000000
414994.000000
415857.000000
416746.000000
417548.000000
418298.000000
419183.000000
420144.000000
421020.000000
421826.000000
422610.000000
423528.000000
424534.000000
425491.000000
426343.000000
427119.000000
427971.000000
428926.000000
429861.000000
430627.000000
431351.000000
432097.000000
432939.000000
433832.000000
434699.000000
435843.000000
436848.000000
437773.000000
438653.000000
439610.000000
440580.000000
441491.000000
442337.000000
443239.000000
444189.000000
445116.000000
445973.000000
446861.000000
447751.000000
448656.000000
449540.000000
450438.000000
451381.000000
452320.000000
453214.000000
454061.000000
454966.000000
455887.000000
456727.000000
457517.000000
458330.000000
459211.000000
460120.000000
461052.000000
461913.000000
462736.000000
463620.000000
464521.000000
465427.000000
466284.000000
467080.000000
467886.000000
468725.000000
469620.000000
470490.000000
471286.000000
472120.000000
472954.000000
473813.000000
474591.000000
475339.000000
476172.000000
477073.000000
477961.000000
478745.000000
479550.000000
480385.000000
481282.000000
482105.000000
482884.000000
483769.000000
484718.000000
485677.000000
486523.000000
487289.000000
488090.000000
488937.000000
489737.000000
490485.000000
491265.000000
492233.000000
493200.000000
494109.000000
494897.000000
495651.000000
496396.000000
497117.000000
497801.000000
498471.000000
499178.000000
499925.000000
500815.000000
501724.000000
502527.000000
503406.000000
504321.000000
505259.000000
506118.000000
506861.000000
507589.000000
508391.000000
509220.000000
510109.000000
510935.000000
511706.000000
512612.000000
513579.000000
514538.000000
515358.000000
516155.000000
517058.000000
518004.000000
518852.000000
519624.000000
520455.000000
521401.000000
522382.000000
523207.000000
524103.000000
525227.000000
526258.000000
527154.000000
528047.000000
528938.000000
529769.000000
530712.000000
531657.000000
532542.000000
533354.000000
534288.000000
535269.000000
536174.000000
536960.000000
537799.000000
538696.000000
539567.000000
540330.000000
541154.000000
541943.000000
542696.000000
543574.000000
544527.000000
545307.000000
546035.000000
546822.000000
547564.000000
548414.000000
549369.000000
550304.000000
551135.000000
551896.000000
552704.000000
553618.000000
554567.000000
555391.000000
556258.000000
557176.000000
558114.000000
559003.000000
559764.000000
560579.000000
561448.000000
562394.000000
563199.000000
563974.000000
564834.000000
565687.000000
566575.000000
567386.000000
568156.000000
569009.000000
569922.000000
570786.000000
571542.000000
572353.000000
573227.000000
574106.000000
574900.000000
575674.000000
576560.000000
577469.000000
578361.000000
579160.000000
579910.000000
580723.000000
581605.000000
582494.000000
583304.000000
584133.000000
585075.000000
586053.000000
586916.000000
587703.000000
588562.000000
589516.000000
590425.000000
591231.000000
592101.000000
593047.000000
593950.000000
594749.000000
595634.000000
596477.000000
597262.000000
597996.000000
598741.000000
599843.000000
600811.000000
601687.000000
602613.000000
603572.000000
604520.000000
605391.000000
606285.000000
607200.000000
608118.000000
608952.000000
609805.000000
610678.000000
611548.000000
612377.000000
613234.000000
614138.000000
615080.000000
615969.000000
616811.000000
617722.000000
618679.000000
619578.000000
620460.000000
621437.000000
622419.000000
623328.000000
624212.000000
625159.000000
626132.000000
627074.000000
627941.000000
628816.000000
629776.000000
630762.000000
631687.000000
632526.000000
633426.000000
634338.000000
635233.000000
636065.000000
636953.000000
637839.000000
638738.000000
639576.000000
640427.000000
641340.000000
642270.000000
643164.000000
644012.000000
644840.000000
645717.000000
646631.000000
647549.000000
648403.000000
649285.000000
650180.000000
651082.000000
651978.000000
652844.000000
653707.000000
654541.000000
655425.000000
656334.000000
657262.000000
658158.000000
658993.000000
659864.000000
660777.000000
661685.000000
662583.000000
663411.000000
664258.000000
665125.000000
665946.000000
666732.000000
667489.000000
668262.000000
669183.000000
670207.000000
671082.000000
671858.000000
672704.000000
673548.000000
674403.000000
675184.000000
675977.000000
676882.000000
677824.000000
678787.000000
679692.000000
680503.000000
681274.000000
682179.000000
683175.000000
684112.000000
684952.000000
685714.000000
686530.000000
687433.000000
688333.000000
689161.000000
689918.000000
690670.000000
691510.000000
692387.000000
693231.000000
694046.000000
694898.000000
695794.000000
696691.000000
697539.000000
698309.000000
699092.000000
699953.000000
700871.000000
701748.000000
702532.000000
703347.000000
704240.000000
705193.000000
706064.000000
706849.000000
707682.000000
708564.000000
709433.000000
710241.000000
711012.000000
711908.000000
712912.000000
713890.000000
714735.000000
715618.000000
716545.000000
717439.000000
718236.000000
718975.000000
719756.000000
720804.000000
721797.000000
722679.000000
723521.000000
724414.000000
725324.000000
726256.000000
727120.000000
727978.000000
728895.000000
729826.000000
730713.000000
731574.000000
732500.000000
733411.000000
734250.000000
735065.000000
735926.000000
736851.000000
737812.000000
738699.000000
739583.000000
740525.000000
741486.000000
742410.000000
743297.000000
744246.000000
745182.000000
746047.000000
746945.000000
747866.000000
748738.000000
749579.000000
750505.000000
751458.000000
752428.000000
753334.000000
754173.000000
755065.000000
755949.000000
756800.000000
757606.000000
758443.000000
759341.000000
760244.000000
761105.000000
761946.000000
762839.000000
763758.000000
764634.000000
765454.000000
766307.000000
767122.000000
767915.000000
768676.000000
769442.000000
770332.000000
771202.000000
772131.000000
772973.000000
773783.000000
774678.000000
775567.000000
776355.000000
777251.000000
778249.000000
779179.000000
779999.000000
780823.000000
781750.000000
782657.000000
783456.000000
784253.000000
785130.000000
786084.000000
786949.000000
787743.000000
788690.000000
789697.000000
790656.000000
791524.000000
792279.000000
793051.000000
793835.000000
794731.000000
795555.000000
796365.000000
797228.000000
798112.000000
798932.000000
799713.000000
800591.000000
801498.000000
802396.000000
803182.000000
803956.000000
804801.000000
805781.000000
806777.000000
807711.000000
808514.000000
809271.000000
810085.000000
810934.000000
811668.000000
812381.000000
813167.000000
814272.000000
815219.000000
816143.000000
817036.000000
817873.000000
818755.000000
819651.000000
820561.000000
821408.000000
822219.000000
823074.000000
823954.000000
824842.000000
825686.000000
826507.000000
827399.000000
828338.000000
829289.000000
830225.000000
831144.000000
831986.000000
832756.000000
833517.000000
834341.000000
835083.000000
835798.000000
836834.000000
837718.000000
838606.000000
839579.000000
840582.000000
841530.000000
842442.000000
843396.000000
844315.000000
845146.000000
846001.000000
846835.000000
847727.000000
848559.000000
849368.000000
850332.000000
851358.000000
852322.000000
853148.000000
854005.000000
854883.000000
855724.000000
856503.000000
857271.000000
858129.000000
859111.000000
860030.000000
860796.000000
861562.000000
862350.000000
863194.000000
863954.000000
864657.000000
865399.000000
866203.000000
867018.000000
867806.000000
868557.000000
869421.000000
870330.000000
871219.000000
872012.000000
872865.000000
873778.000000
874731.000000
875591.000000
876359.000000
877161.000000
878000.000000
878906.000000
879692.000000
880457.000000
881332.000000
882258.000000
883085.000000
883826.000000
884615.000000
885446.000000
886306.000000
887053.000000
887869.000000
888775.000000
889596.000000
890340.000000
891156.000000
892030.000000
892898.000000
893684.000000
894456.000000
895340.000000
896208.000000
897081.000000
897857.000000
898604.000000
899375.000000
900201.000000
901034.000000
