ECG (ms)
910.000000
1930.000000
2958.000000
3955.000000
4966.000000
5979.000000
6989.000000
8003.000000
9010.000000
9990.000000
11006.000000
12034.000000
13038.000000
14035.000000
15011.000000
15907.000000
16821.000000
17780.000000
18811.000000
19805.000000
20767.000000
21757.000000
22777.000000
23793.000000
24762.000000
25861.000000
26923.000000
28027.000000
29082.000000
30148.000000
31175.000000
32195.000000
33189.000000
34239.000000
35280.000000
36330.000000
37388.000000
38425.000000
39435.000000
40487.000000
41537.000000
42604.000000
43683.000000
44741.000000
45796.000000
46851.000000
47918.000000
48981.000000
50050.000000
51088.000000
52163.000000
53229.000000
54286.000000
55333.000000
56363.000000
57406.000000
58454.000000
59502.000000
60539.000000
61586.000000
62603.000000
63645.000000
64713.000000
65795.000000
66879.000000
67951.000000
68992.000000
70001.000000
71025.000000
72113.000000
73169.000000
74223.000000
75268.000000
76280.000000
77332.000000
78390.000000
79453.000000
80508.000000
81564.000000
82583.000000
83599.000000
84638.000000
85716.000000
86750.000000
87785.000000
88814.000000
89826.000000
90865.000000
91900.000000
92940.000000
93966.000000
94986.000000
96005.000000
97001.000000
98028.000000
99063.000000
100119.000000
101166.000000
102220.000000
103280.000000
104303.000000
105349.000000
106411.000000
107460.000000
108494.000000
109529.000000
110555.000000
111594.000000
112620.000000
113648.000000
114697.000000
115724.000000
116770.000000
117809.000000
118842.000000
119882.000000
120917.000000
121961.000000
123028.000000
124076.000000
125124.000000
126147.000000
127179.000000
128223.000000
129253.000000
130267.000000
131294.000000
132292.000000
133316.000000
134333.000000
135353.000000
136370.000000
137394.000000
138409.000000
139426.000000
140445.000000
141462.000000
142492.000000
143494.000000
144525.000000
145557.000000
146589.000000
147586.000000
148604.000000
149631.000000
150639.000000
151654.000000
152640.000000
153653.000000
154679.000000
155698.000000
156688.000000
157696.000000
158716.000000
159741.000000
160766.000000
161766.000000
162790.000000
163814.000000
164829.000000
165859.000000
166846.000000
167857.000000
168862.000000
169875.000000
170911.000000
171929.000000
172931.000000
173977.000000
175015.000000
176049.000000
177066.000000
178106.000000
179161.000000
180214.000000
181251.000000
182300.000000
183312.000000
184355.000000
185398.000000
186443.000000
187492.000000
188530.000000
189564.000000
190605.000000
191631.000000
192654.000000
193669.000000
194699.000000
195694.000000
196706.000000
197738.000000
198781.000000
199814.000000
200865.000000
201924.000000
202957.000000
204002.000000
205034.000000
206063.000000
207099.000000
208139.000000
209156.000000
210192.000000
211245.000000
212264.000000
213285.000000
214277.000000
215301.000000
216320.000000
217329.000000
218331.000000
219302.000000
220265.000000
221258.000000
222234.000000
223244.000000
224245.000000
225173.000000
226149.000000
227172.000000
228192.000000
229157.000000
230130.000000
231197.000000
232243.000000
233235.000000
234291.000000
235437.000000
236485.000000
237619.000000
238673.000000
239761.000000
240840.000000
241899.000000
242968.000000
244038.000000
245114.000000
246181.000000
247241.000000
248311.000000
249390.000000
250456.000000
251503.000000
252541.000000
253577.000000
254616.000000
255615.000000
256600.000000
257666.000000
258701.000000
259755.000000
260767.000000
261787.000000
262829.000000
263884.000000
264906.000000
265931.000000
266974.000000
268015.000000
269025.000000
270069.000000
271104.000000
272140.000000
273160.000000
274210.000000
275258.000000
276279.000000
277318.000000
278349.000000
279360.000000
280426.000000
281478.000000
282529.000000
283554.000000
284598.000000
285659.000000
286710.000000
287767.000000
288827.000000
289868.000000
290897.000000
291949.000000
292995.000000
294047.000000
295083.000000
296116.000000
297150.000000
298201.000000
299246.000000
300302.000000
301339.000000
302361.000000
303402.000000
304436.000000
305478.000000
306494.000000
307548.000000
308592.000000
309626.000000
310673.000000
311737.000000
312772.000000
313819.000000
314868.000000
315904.000000
316964.000000
317994.000000
319057.000000
320076.000000
321125.000000
322165.000000
323198.000000
324207.000000
325247.000000
326281.000000
327294.000000
328318.000000
329339.000000
330374.000000
331406.000000
332407.000000
333463.000000
334521.000000
335589.000000
336618.000000
337685.000000
338733.000000
339794.000000
340826.000000
341881.000000
342917.000000
343928.000000
344957.000000
345990.000000
347018.000000
348059.000000
349092.000000
350146.000000
351208.000000
352282.000000
353334.000000
354409.000000
355480.000000
356552.000000
357632.000000
358696.000000
359767.000000
360845.000000
361896.000000
362935.000000
363961.000000
364971.000000
365996.000000
367046.000000
368097.000000
369126.000000
370184.000000
371231.000000
372287.000000
373347.000000
374392.000000
375471.000000
376547.000000
377578.000000
378641.000000
379698.000000
380736.000000
381784.000000
382817.000000
383867.000000
384914.000000
385966.000000
386994.000000
388031.000000
389084.000000
390141.000000
391177.000000
392234.000000
393285.000000
394337.000000
395360.000000
396403.000000
397458.000000
398486.000000
399534.000000
400601.000000
401635.000000
402711.000000
403782.000000
404802.000000
405848.000000
406893.000000
407905.000000
408941.000000
409977.000000
411011.000000
412074.000000
413106.000000
414169.000000
415225.000000
416261.000000
417313.000000
418361.000000
419434.000000
420510.000000
421575.000000
422632.000000
423693.000000
424746.000000
425818.000000
426853.000000
427919.000000
428963.000000
430008.000000
431058.000000
432102.000000
433146.000000
434213.000000
435274.000000
436318.000000
437370.000000
438399.000000
439448.000000
440495.000000
441537.000000
442593.000000
443620.000000
444663.000000
445718.000000
446752.000000
447800.000000
448840.000000
449867.000000
450907.000000
451926.000000
452968.000000
454020.000000
455056.000000
456114.000000
457142.000000
458203.000000
459270.000000
460309.000000
461369.000000
462400.000000
463442.000000
464513.000000
465559.000000
466632.000000
467672.000000
468737.000000
469781.000000
470824.000000
471894.000000
472939.000000
473980.000000
475045.000000
476076.000000
477119.000000
478149.000000
479182.000000
480244.000000
481306.000000
482350.000000
483407.000000
484471.000000
485530.000000
486586.000000
487606.000000
488677.000000
489726.000000
490783.000000
491802.000000
492832.000000
493857.000000
494897.000000
495924.000000
496938.000000
497978.000000
499025.000000
500067.000000
501076.000000
502099.000000
503107.000000
504109.000000
505079.000000
506050.000000
507053.000000
508086.000000
509136.000000
510201.000000
511250.000000
512304.000000
513333.000000
514368.000000
515407.000000
516453.000000
517481.000000
518512.000000
519505.000000
520509.000000
521512.000000
522527.000000
523545.000000
524562.000000
525583.000000
526606.000000
527612.000000
528621.000000
529636.000000
530642.000000
531666.000000
532660.000000
533683.000000
534714.000000
535717.000000
536744.000000
537782.000000
538799.000000
539820.000000
540812.000000
541812.000000
542811.000000
543747.000000
544706.000000
545652.000000
546600.000000
547532.000000
548431.000000
549393.000000
550352.000000
551270.000000
552258.000000
553218.000000
554149.000000
555114.000000
556040.000000
556932.000000
557789.000000
558672.000000
559560.000000
560500.000000
561495.000000
562450.000000
563397.000000
564393.000000
565346.000000
566304.000000
567304.000000
568233.000000
569222.000000
570228.000000
571196.000000
572281.000000
573319.000000
574378.000000
575360.000000
576340.000000
577341.000000
578350.000000
579375.000000
580398.000000
581490.000000
582555.000000
583567.000000
584613.000000
585712.000000
586715.000000
587714.000000
588790.000000
589786.000000
590919.000000
592024.000000
593128.000000
594200.000000
595232.000000
596287.000000
597334.000000
598367.000000
599425.000000
600466.000000
601536.000000
602606.000000
603670.000000
604734.000000
605758.000000
606822.000000
607857.000000
608894.000000
609950.000000
610969.000000
612017.000000
613043.000000
614052.000000
615080.000000
616122.000000
617133.000000
618156.000000
619183.000000
620217.000000
621218.000000
622261.000000
623293.000000
624326.000000
625338.000000
626366.000000
627404.000000
628436.000000
629487.000000
630541.000000
631581.000000
632632.000000
633671.000000
634722.000000
635760.000000
636811.000000
637853.000000
638895.000000
639946.000000
640977.000000
642041.000000
643101.000000
644114.000000
645159.000000
646206.000000
647241.000000
648281.000000
649302.000000
650356.000000
651411.000000
652464.000000
653534.000000
654610.000000
655690.000000
656747.000000
657792.000000
658864.000000
659892.000000
660921.000000
661985.000000
663067.000000
664108.000000
665157.000000
666178.000000
667219.000000
668244.000000
669280.000000
670306.000000
671337.000000
672382.000000
673416.000000
674464.000000
675509.000000
676541.000000
677573.000000
678580.000000
679631.000000
680674.000000
681687.000000
682732.000000
683760.000000
684783.000000
685831.000000
686868.000000
687912.000000
688939.000000
689976.000000
691005.000000
692044.000000
693057.000000
694084.000000
695112.000000
696139.000000
697145.000000
698171.000000
699195.000000
700227.000000
701231.000000
702260.000000
703281.000000
704282.000000
705321.000000
706356.000000
707402.000000
708436.000000
709478.000000
710534.000000
711577.000000
712620.000000
713675.000000
714705.000000
715755.000000
716803.000000
717834.000000
718881.000000
719896.000000
720922.000000
721942.000000
723006.000000
724064.000000
725116.000000
726161.000000
727192.000000
728265.000000
729325.000000
730384.000000
731446.000000
732494.000000
733557.000000
734616.000000
735690.000000
736752.000000
737826.000000
738904.000000
739999.000000
741076.000000
742140.000000
743201.000000
744257.000000
745337.000000
746401.000000
747489.000000
748573.000000
749666.000000
750742.000000
751826.000000
752910.000000
753997.000000
755044.000000
756109.000000
757175.000000
758235.000000
759283.000000
760369.000000
761451.000000
762521.000000
763593.000000
764668.000000
765725.000000
766804.000000
767890.000000
768963.000000
770022.000000
771102.000000
772180.000000
773257.000000
774328.000000
775373.000000
776447.000000
777528.000000
778615.000000
779667.000000
780767.000000
781874.000000
782937.000000
784009.000000
785092.000000
786158.000000
787216.000000
788249.000000
789329.000000
790399.000000
791483.000000
792521.000000
793620.000000
794724.000000
795807.000000
796875.000000
797930.000000
798998.000000
800050.000000
801103.000000
802149.000000
803194.000000
804256.000000
805291.000000
806320.000000
807330.000000
808370.000000
809425.000000
810468.000000
811504.000000
812541.000000
813573.000000
814610.000000
815652.000000
816691.000000
817721.000000
818742.000000
819775.000000
820796.000000
821827.000000
822892.000000
823954.000000
825013.000000
826064.000000
827118.000000
828180.000000
829215.000000
830259.000000
831296.000000
832319.000000
833375.000000
834429.000000
835468.000000
836521.000000
837592.000000
838633.000000
839687.000000
840731.000000
841765.000000
842823.000000
843866.000000
844885.000000
845928.000000
846987.000000
848022.000000
849090.000000
850168.000000
851230.000000
852296.000000
853354.000000
854403.000000
855441.000000
856506.000000
857548.000000
858608.000000
859658.000000
860689.000000
861750.000000
862780.000000
863830.000000
864874.000000
865914.000000
866971.000000
868033.000000
869098.000000
870140.000000
871203.000000
872262.000000
873303.000000
874349.000000
875371.000000
876432.000000
877478.000000
878517.000000
879583.000000
880641.000000
881678.000000
882716.000000
883743.000000
884790.000000
885835.000000
886856.000000
887894.000000
888959.000000
890026.000000
891079.000000
892149.000000
893195.000000
894272.000000
895347.000000
896394.000000
897457.000000
898518.000000
899560.000000
900611.000000
