ECG (ms)
977.000000
2120.000000
3258.000000
4381.000000
5489.000000
6585.000000
7750.000000
8890.000000
10062.000000
11228.000000
12398.000000
13582.000000
14749.000000
15924.000000
17080.000000
18238.000000
19408.000000
20561.000000
21721.000000
22897.000000
24059.000000
25231.000000
26403.000000
27570.000000
28749.000000
29904.000000
31063.000000
32248.000000
33407.000000
34556.000000
35723.000000
36865.000000
37999.000000
39151.000000
40281.000000
41438.000000
42598.000000
43734.000000
44891.000000
46050.000000
47204.000000
48392.000000
49550.000000
50710.000000
51873.000000
53023.000000
54194.000000
55350.000000
56495.000000
57660.000000
58794.000000
59929.000000
61079.000000
62206.000000
63357.000000
64488.000000
65629.000000
66801.000000
67942.000000
69077.000000
70240.000000
71398.000000
72558.000000
73734.000000
74900.000000
76068.000000
77217.000000
78386.000000
79542.000000
80695.000000
81869.000000
83034.000000
84186.000000
85361.000000
86519.000000
87678.000000
88851.000000
89999.000000
91161.000000
92284.000000
93405.000000
94514.000000
95670.000000
96810.000000
97966.000000
99128.000000
100298.000000
101484.000000
102661.000000
103824.000000
104997.000000
106155.000000
107298.000000
108476.000000
109646.000000
110825.000000
111996.000000
113158.000000
114334.000000
115497.000000
116650.000000
117820.000000
118970.000000
120135.000000
121308.000000
122480.000000
123657.000000
124815.000000
125984.000000
127163.000000
128310.000000
129469.000000
130619.000000
131779.000000
132933.000000
134093.000000
135267.000000
136442.000000
137592.000000
138765.000000
139918.000000
141075.000000
142237.000000
143396.000000
144565.000000
145724.000000
146909.000000
148099.000000
149262.000000
150460.000000
151616.000000
152759.000000
153858.000000
154996.000000
156137.000000
157316.000000
158478.000000
159642.000000
160821.000000
161981.000000
163154.000000
164331.000000
165485.000000
166641.000000
167800.000000
168940.000000
170107.000000
171266.000000
172431.000000
173615.000000
174788.000000
175975.000000
177159.000000
178315.000000
179486.000000
180648.000000
181812.000000
183001.000000
184167.000000
185312.000000
186469.000000
187613.000000
188778.000000
189954.000000
191109.000000
192287.000000
193457.000000
194620.000000
195790.000000
196952.000000
198114.000000
199290.000000
200434.000000
201600.000000
202784.000000
203943.000000
205103.000000
206244.000000
207400.000000
208578.000000
209744.000000
210920.000000
212105.000000
213272.000000
214455.000000
215631.000000
216797.000000
217968.000000
219128.000000
220281.000000
221426.000000
222647.000000
223848.000000
225036.000000
226205.000000
227399.000000
228612.000000
229800.000000
231000.000000
232184.000000
233384.000000
234574.000000
235738.000000
236933.000000
238109.000000
239278.000000
240417.000000
241533.000000
242662.000000
243811.000000
244990.000000
246183.000000
247349.000000
248530.000000
249702.000000
250858.000000
252039.000000
253198.000000
254376.000000
255559.000000
256710.000000
257875.000000
259048.000000
260195.000000
261358.000000
262509.000000
263646.000000
264807.000000
265969.000000
267120.000000
268278.000000
269425.000000
270588.000000
271758.000000
272897.000000
274055.000000
275207.000000
276359.000000
277519.000000
278678.000000
279827.000000
280987.000000
282140.000000
283304.000000
284484.000000
285659.000000
286849.000000
288018.000000
289191.000000
290362.000000
291522.000000
292681.000000
293855.000000
295025.000000
296202.000000
297395.000000
298561.000000
299757.000000
300944.000000
302108.000000
303268.000000
304405.000000
305552.000000
306721.000000
307876.000000
309028.000000
310199.000000
311339.000000
312476.000000
313633.000000
314776.000000
315936.000000
317097.000000
318279.000000
319466.000000
320623.000000
321771.000000
322931.000000
324067.000000
325242.000000
326424.000000
327577.000000
328746.000000
329920.000000
331082.000000
332262.000000
333427.000000
334606.000000
335783.000000
336943.000000
338113.000000
339271.000000
340443.000000
341624.000000
342786.000000
343960.000000
345101.000000
346241.000000
347342.000000
348433.000000
349566.000000
350698.000000
351844.000000
353000.000000
354167.000000
355333.000000
356469.000000
357633.000000
358780.000000
359954.000000
361134.000000
362288.000000
363456.000000
364634.000000
365786.000000
366965.000000
368129.000000
369291.000000
370477.000000
371642.000000
372802.000000
373996.000000
375182.000000
376355.000000
377530.000000
378683.000000
379830.000000
381013.000000
382174.000000
383370.000000
384551.000000
385706.000000
386888.000000
388062.000000
389238.000000
390406.000000
391559.000000
392742.000000
393910.000000
395060.000000
396235.000000
397379.000000
398537.000000
399701.000000
400853.000000
402037.000000
403197.000000
404339.000000
405487.000000
406601.000000
407734.000000
408863.000000
410001.000000
411163.000000
412324.000000
413515.000000
414666.000000
415830.000000
416998.000000
418148.000000
419297.000000
420465.000000
421639.000000
422809.000000
423995.000000
425201.000000
426370.000000
427539.000000
428724.000000
429885.000000
431069.000000
432249.000000
433423.000000
434571.000000
435709.000000
436857.000000
438008.000000
439179.000000
440292.000000
441412.000000
442549.000000
443704.000000
444852.000000
445965.000000
447069.000000
448251.000000
449433.000000
450636.000000
451824.000000
453037.000000
454225.000000
455385.000000
456514.000000
457679.000000
458871.000000
460072.000000
461251.000000
462434.000000
463603.000000
464792.000000
465985.000000
467149.000000
468292.000000
469438.000000
470595.000000
471766.000000
472909.000000
474066.000000
475245.000000
476395.000000
477566.000000
478741.000000
479894.000000
481076.000000
482245.000000
483401.000000
484577.000000
485736.000000
486891.000000
488063.000000
489217.000000
490363.000000
491538.000000
492683.000000
493834.000000
495001.000000
496155.000000
497338.000000
498502.000000
499669.000000
500851.000000
501996.000000
503145.000000
504297.000000
505432.000000
506571.000000
507729.000000
508870.000000
510004.000000
511130.000000
512209.000000
513305.000000
514457.000000
515598.000000
516736.000000
517890.000000
519032.000000
520182.000000
521350.000000
522492.000000
523666.000000
524843.000000
525988.000000
527163.000000
528334.000000
529473.000000
530635.000000
531800.000000
532956.000000
534120.000000
535273.000000
536446.000000
537622.000000
538777.000000
539944.000000
541076.000000
542201.000000
543367.000000
544522.000000
545700.000000
546869.000000
548029.000000
549201.000000
550358.000000
551530.000000
552732.000000
553900.000000
555045.000000
556206.000000
557347.000000
558513.000000
559683.000000
560821.000000
561973.000000
563127.000000
564272.000000
565442.000000
566607.000000
567757.000000
568941.000000
570099.000000
571255.000000
572422.000000
573586.000000
574752.000000
575909.000000
577035.000000
578189.000000
579334.000000
580509.000000
581688.000000
582843.000000
584018.000000
585164.000000
586300.000000
587415.000000
588537.000000
589672.000000
590806.000000
591959.000000
593105.000000
594254.000000
595409.000000
596566.000000
597715.000000
598879.000000
600026.000000
601172.000000
602345.000000
603502.000000
604687.000000
605838.000000
606980.000000
608122.000000
609246.000000
610393.000000
611522.000000
612654.000000
613775.000000
614895.000000
616000.000000
617107.000000
618221.000000
619327.000000
620429.000000
621524.000000
622703.000000
623916.000000
625139.000000
626317.000000
627436.000000
628583.000000
629726.000000
630832.000000
632023.000000
633256.000000
634433.000000
635607.000000
636795.000000
638001.000000
639254.000000
640432.000000
641572.000000
642755.000000
643880.000000
645017.000000
646053.000000
647072.000000
648131.000000
649187.000000
650261.000000
651348.000000
652436.000000
653537.000000
654662.000000
655753.000000
656859.000000
657632.000000
659013.000000
660294.000000
661529.000000
662739.000000
663938.000000
665090.000000
666244.000000
667390.000000
668559.000000
669723.000000
670825.000000
671935.000000
673035.000000
674136.000000
675243.000000
676398.000000
677544.000000
678667.000000
679441.000000
680780.000000
682099.000000
683310.000000
684496.000000
685631.000000
686733.000000
687815.000000
688895.000000
689946.000000
691007.000000
692084.000000
693150.000000
694240.000000
695340.000000
696441.000000
697569.000000
698688.000000
699809.000000
700942.000000
702060.000000
703196.000000
703891.000000
705225.000000
706403.000000
707520.000000
708672.000000
709824.000000
710958.000000
712054.000000
713138.000000
714239.000000
715362.000000
716514.000000
717641.000000
718767.000000
719538.000000
720916.000000
722180.000000
723396.000000
724592.000000
725784.000000
726943.000000
728103.000000
729248.000000
730367.000000
731510.000000
732663.000000
733846.000000
735020.000000
736203.000000
737395.000000
738562.000000
739746.000000
740915.000000
742088.000000
743262.000000
744418.000000
745537.000000
746668.000000
747799.000000
748905.000000
750020.000000
751140.000000
752259.000000
753374.000000
754501.000000
755612.000000
756750.000000
757880.000000
758993.000000
760099.000000
761204.000000
762311.000000
763443.000000
764550.000000
765687.000000
766818.000000
767954.000000
769115.000000
770285.000000
771421.000000
772545.000000
773642.000000
774749.000000
775836.000000
776935.000000
778054.000000
779176.000000
780311.000000
781482.000000
782622.000000
783830.000000
785032.000000
786186.000000
787352.000000
788478.000000
789614.000000
790733.000000
791840.000000
792949.000000
794023.000000
795092.000000
796190.000000
797260.000000
798296.000000
799319.000000
800448.000000
801602.000000
802766.000000
803980.000000
805123.000000
806307.000000
807488.000000
808652.000000
809839.000000
811029.000000
812168.000000
813394.000000
814585.000000
815772.000000
816965.000000
818159.000000
819317.000000
820481.000000
821633.000000
822767.000000
823936.000000
825127.000000
826284.000000
827438.000000
828595.000000
829722.000000
830871.000000
832010.000000
833136.000000
834301.000000
835463.000000
836612.000000
837758.000000
838876.000000
839991.000000
841112.000000
842213.000000
843349.000000
844483.000000
845613.000000
846756.000000
847892.000000
849030.000000
850157.000000
851260.000000
852365.000000
853465.000000
854593.000000
855733.000000
856863.000000
857987.000000
859103.000000
860228.000000
861343.000000
862471.000000
863606.000000
864752.000000
865903.000000
867032.000000
868179.000000
869334.000000
870489.000000
871657.000000
872811.000000
873978.000000
875135.000000
876285.000000
877450.000000
878603.000000
879780.000000
880940.000000
882102.000000
883278.000000
884447.000000
885634.000000
886824.000000
887983.000000
889171.000000
890335.000000
891499.000000
892664.000000
893833.000000
894998.000000
896180.000000
897346.000000
898518.000000
899679.000000
900810.000000
901923.000000
903123.000000
904324.000000
905523.000000
906679.000000
907838.000000
908968.000000
910107.000000
911258.000000
912406.000000
913548.000000
914709.000000
915843.000000
917007.000000
918167.000000
919321.000000
920494.000000
921644.000000
922779.000000
923910.000000
925065.000000
926246.000000
927417.000000
928597.000000
929788.000000
930959.000000
932127.000000
933307.000000
934503.000000
935702.000000
936902.000000
938096.000000
939283.000000
940479.000000
941661.000000
942836.000000
944020.000000
945183.000000
946352.000000
947506.000000
948649.000000
949803.000000
950936.000000
952084.000000
953238.000000
954394.000000
955559.000000
956698.000000
957857.000000
959008.000000
960150.000000
961317.000000
962471.000000
963635.000000
964806.000000
965951.000000
967106.000000
968259.000000
969413.000000
970559.000000
971693.000000
972809.000000
974044.000000
975374.000000
