ECG (ms)
133.000000
934.000000
1731.000000
2525.000000
3318.000000
4112.000000
4906.000000
5699.000000
6498.000000
7293.000000
8086.000000
8874.000000
9661.000000
10450.000000
11238.000000
12026.000000
12813.000000
13598.000000
14388.000000
15179.000000
15971.000000
16767.000000
17563.000000
18361.000000
19158.000000
19966.000000
20775.000000
21582.000000
22384.000000
23177.000000
23971.000000
24765.000000
25563.000000
26363.000000
27161.000000
27963.000000
28762.000000
29565.000000
30373.000000
31182.000000
31987.000000
32790.000000
33596.000000
34406.000000
35217.000000
36025.000000
36825.000000
37637.000000
38471.000000
39316.000000
40160.000000
41005.000000
41848.000000
42685.000000
43515.000000
44342.000000
45169.000000
45984.000000
46801.000000
47609.000000
48416.000000
49214.000000
50010.000000
50810.000000
51620.000000
52437.000000
53245.000000
54053.000000
54867.000000
55686.000000
56507.000000
57334.000000
58162.000000
58985.000000
59797.000000
60600.000000
61398.000000
62189.000000
62976.000000
63760.000000
64553.000000
65348.000000
66147.000000
66939.000000
67732.000000
68522.000000
69309.000000
70094.000000
70880.000000
71669.000000
72455.000000
73241.000000
74036.000000
74824.000000
75618.000000
76416.000000
77217.000000
78013.000000
78799.000000
79586.000000
80374.000000
81164.000000
81965.000000
82763.000000
83562.000000
84370.000000
85176.000000
85978.000000
86776.000000
87575.000000
88373.000000
89169.000000
89974.000000
90783.000000
91589.000000
92405.000000
93227.000000
94050.000000
94866.000000
95676.000000
96482.000000
97284.000000
98091.000000
98901.000000
99711.000000
100518.000000
101319.000000
102121.000000
102920.000000
103719.000000
104510.000000
105299.000000
106088.000000
106879.000000
107673.000000
108460.000000
109243.000000
110033.000000
110830.000000
111628.000000
112426.000000
113220.000000
114012.000000
114804.000000
115601.000000
116389.000000
117169.000000
117949.000000
118729.000000
119507.000000
120287.000000
121069.000000
121858.000000
122651.000000
123440.000000
124226.000000
125012.000000
125796.000000
126584.000000
127371.000000
128162.000000
128956.000000
129752.000000
130551.000000
131346.000000
132138.000000
132933.000000
133725.000000
134515.000000
135306.000000
136095.000000
136883.000000
137668.000000
138458.000000
139251.000000
140046.000000
140837.000000
141630.000000
142427.000000
143215.000000
144000.000000
144783.000000
145566.000000
146349.000000
147138.000000
147927.000000
148718.000000
149515.000000
150317.000000
151114.000000
151912.000000
152712.000000
153521.000000
154322.000000
155119.000000
155919.000000
156718.000000
157517.000000
158310.000000
159099.000000
159888.000000
160679.000000
161464.000000
162251.000000
163035.000000
163817.000000
164598.000000
165376.000000
166155.000000
166932.000000
167710.000000
168483.000000
169256.000000
170034.000000
170816.000000
171597.000000
172380.000000
173167.000000
173961.000000
174757.000000
175554.000000
176360.000000
177169.000000
177976.000000
178777.000000
179577.000000
180381.000000
181175.000000
181961.000000
182744.000000
183527.000000
184309.000000
185089.000000
185866.000000
186650.000000
187434.000000
188225.000000
189014.000000
189805.000000
190596.000000
191382.000000
192170.000000
192968.000000
193772.000000
194578.000000
195380.000000
196182.000000
196975.000000
197766.000000
198553.000000
199337.000000
200120.000000
200906.000000
201689.000000
202477.000000
203277.000000
204087.000000
204896.000000
205709.000000
206516.000000
207316.000000
208118.000000
208919.000000
209724.000000
210534.000000
211343.000000
212148.000000
212951.000000
213754.000000
214552.000000
215349.000000
216142.000000
216939.000000
217737.000000
218528.000000
219318.000000
220115.000000
220911.000000
221698.000000
222487.000000
223274.000000
224064.000000
224851.000000
225640.000000
226429.000000
227215.000000
227996.000000
228775.000000
229558.000000
230352.000000
231154.000000
231951.000000
232737.000000
233496.000000
234240.000000
234995.000000
235762.000000
236548.000000
237348.000000
238153.000000
238959.000000
239764.000000
240566.000000
241368.000000
242183.000000
243009.000000
243831.000000
244643.000000
245460.000000
246285.000000
247113.000000
247927.000000
248733.000000
249537.000000
250342.000000
251143.000000
251935.000000
252739.000000
253552.000000
254362.000000
255169.000000
255971.000000
256764.000000
257556.000000
258342.000000
259127.000000
259916.000000
260708.000000
261507.000000
262312.000000
263114.000000
263919.000000
264727.000000
265532.000000
266333.000000
267142.000000
267951.000000
268757.000000
269564.000000
270369.000000
271185.000000
272018.000000
272858.000000
273684.000000
274512.000000
275335.000000
276167.000000
276993.000000
277813.000000
278629.000000
279438.000000
280241.000000
281037.000000
281831.000000
282624.000000
283419.000000
284209.000000
285001.000000
285793.000000
286586.000000
287377.000000
288168.000000
288961.000000
289758.000000
290555.000000
291348.000000
292140.000000
292930.000000
293722.000000
294509.000000
295297.000000
296094.000000
296894.000000
297689.000000
298479.000000
299271.000000
300068.000000
300859.000000
301647.000000
302435.000000
303227.000000
304014.000000
304804.000000
305593.000000
306386.000000
307178.000000
307965.000000
308748.000000
309534.000000
310319.000000
311109.000000
311894.000000
312683.000000
313474.000000
314263.000000
315052.000000
315843.000000
316642.000000
317442.000000
318241.000000
319039.000000
319833.000000
320629.000000
321425.000000
322222.000000
323018.000000
323806.000000
324594.000000
325381.000000
326168.000000
326957.000000
327750.000000
328541.000000
329334.000000
330130.000000
330929.000000
331726.000000
332523.000000
333328.000000
334131.000000
334933.000000
335734.000000
336539.000000
337348.000000
338166.000000
338986.000000
339797.000000
340598.000000
341395.000000
342187.000000
342974.000000
343758.000000
344540.000000
345329.000000
346112.000000
346894.000000
347681.000000
348468.000000
349256.000000
350042.000000
350828.000000
351619.000000
352405.000000
353191.000000
353976.000000
354759.000000
355547.000000
356338.000000
357129.000000
357920.000000
358712.000000
359506.000000
360305.000000
361102.000000
361903.000000
362697.000000
363487.000000
364275.000000
365064.000000
365853.000000
366642.000000
367433.000000
368226.000000
369025.000000
369826.000000
370622.000000
371424.000000
372221.000000
373018.000000
373811.000000
374609.000000
375414.000000
376222.000000
377024.000000
377822.000000
378618.000000
379416.000000
380212.000000
381006.000000
381799.000000
382589.000000
383381.000000
384169.000000
384961.000000
385758.000000
386549.000000
387343.000000
388153.000000
388980.000000
389801.000000
390616.000000
391431.000000
392249.000000
393062.000000
393864.000000
394673.000000
395484.000000
396292.000000
397099.000000
397911.000000
398724.000000
399535.000000
400337.000000
401143.000000
401944.000000
402738.000000
403526.000000
404314.000000
405109.000000
405907.000000
406709.000000
407512.000000
408326.000000
409132.000000
409933.000000
410730.000000
411526.000000
412319.000000
413112.000000
413903.000000
414696.000000
415497.000000
416297.000000
417095.000000
417891.000000
418693.000000
419492.000000
420293.000000
421079.000000
421870.000000
422660.000000
423451.000000
424239.000000
425024.000000
425810.000000
426602.000000
427400.000000
428205.000000
429015.000000
429818.000000
430624.000000
431425.000000
432223.000000
433030.000000
433839.000000
434642.000000
435435.000000
436231.000000
437025.000000
437818.000000
438602.000000
439385.000000
440166.000000
440950.000000
441740.000000
442530.000000
443328.000000
444126.000000
444925.000000
445721.000000
446518.000000
447310.000000
448101.000000
448892.000000
449682.000000
450477.000000
451273.000000
452077.000000
452888.000000
453693.000000
454493.000000
455290.000000
456087.000000
456884.000000
457681.000000
458480.000000
459280.000000
460079.000000
460874.000000
461666.000000
462462.000000
463265.000000
464068.000000
464864.000000
465659.000000
466461.000000
467279.000000
468099.000000
468907.000000
469718.000000
470537.000000
471359.000000
472178.000000
472989.000000
473803.000000
474622.000000
475443.000000
476251.000000
477050.000000
477846.000000
478643.000000
479448.000000
480246.000000
481046.000000
481847.000000
482645.000000
483438.000000
484233.000000
485032.000000
485831.000000
486621.000000
487408.000000
488199.000000
488994.000000
489785.000000
490574.000000
491365.000000
492155.000000
492944.000000
493728.000000
494512.000000
495295.000000
496076.000000
496859.000000
497646.000000
498438.000000
499228.000000
500017.000000
500810.000000
501609.000000
502414.000000
503219.000000
504020.000000
504815.000000
505614.000000
506415.000000
507213.000000
508009.000000
508807.000000
509615.000000
510417.000000
511214.000000
512018.000000
512837.000000
513668.000000
514507.000000
515345.000000
516184.000000
517029.000000
517863.000000
518694.000000
519527.000000
520353.000000
521170.000000
521982.000000
522795.000000
523619.000000
524441.000000
525248.000000
526065.000000
526889.000000
527719.000000
528543.000000
529354.000000
530162.000000
530976.000000
531797.000000
532622.000000
533438.000000
534256.000000
535082.000000
535908.000000
536736.000000
537563.000000
538387.000000
539202.000000
540013.000000
540827.000000
541640.000000
542453.000000
543258.000000
544067.000000
544874.000000
545681.000000
546483.000000
547282.000000
548077.000000
548873.000000
549669.000000
550463.000000
551261.000000
552063.000000
552870.000000
553675.000000
554481.000000
555296.000000
556113.000000
556927.000000
557734.000000
558534.000000
559339.000000
560140.000000
560935.000000
561732.000000
562530.000000
563343.000000
564168.000000
564990.000000
565798.000000
566605.000000
567419.000000
568251.000000
569081.000000
569900.000000
570708.000000
571531.000000
572368.000000
573212.000000
574052.000000
574887.000000
575717.000000
576548.000000
577370.000000
578188.000000
579002.000000
579808.000000
580610.000000
581413.000000
582227.000000
583038.000000
583846.000000
584647.000000
585456.000000
586266.000000
587080.000000
587887.000000
588687.000000
589488.000000
590281.000000
591068.000000
591853.000000
592644.000000
593435.000000
594230.000000
595032.000000
595842.000000
596652.000000
597452.000000
598245.000000
599041.000000
599836.000000
600623.000000
601406.000000
602194.000000
602981.000000
603765.000000
604551.000000
605345.000000
606141.000000
606936.000000
607727.000000
608521.000000
609311.000000
610103.000000
610893.000000
611686.000000
612480.000000
613277.000000
614074.000000
614878.000000
615681.000000
616484.000000
617281.000000
618079.000000
618876.000000
619673.000000
620471.000000
621272.000000
622072.000000
622871.000000
623670.000000
624465.000000
625263.000000
626060.000000
626856.000000
627659.000000
628460.000000
629263.000000
630064.000000
630869.000000
631681.000000
632498.000000
633317.000000
634133.000000
634949.000000
635761.000000
636576.000000
637391.000000
638208.000000
639025.000000
639853.000000
640677.000000
641495.000000
642317.000000
643134.000000
643951.000000
644756.000000
645565.000000
646379.000000
647189.000000
647996.000000
648797.000000
649596.000000
650397.000000
651195.000000
651993.000000
652801.000000
653618.000000
654439.000000
655258.000000
656069.000000
656882.000000
657693.000000
658496.000000
659295.000000
660096.000000
660903.000000
661708.000000
662512.000000
663313.000000
664121.000000
664929.000000
665736.000000
666538.000000
667324.000000
668116.000000
668915.000000
669722.000000
670537.000000
671344.000000
672155.000000
672979.000000
673806.000000
674633.000000
675457.000000
676285.000000
677121.000000
677949.000000
678756.000000
679550.000000
680341.000000
681134.000000
681933.000000
682728.000000
683527.000000
684331.000000
685148.000000
685974.000000
686802.000000
687625.000000
688450.000000
689278.000000
690101.000000
690915.000000
691728.000000
692537.000000
693346.000000
694161.000000
694979.000000
695792.000000
696601.000000
697418.000000
698241.000000
699059.000000
699881.000000
700698.000000
701517.000000
702324.000000
703128.000000
703930.000000
704728.000000
705523.000000
706319.000000
707117.000000
707924.000000
708741.000000
709556.000000
710376.000000
711205.000000
712035.000000
712853.000000
713666.000000
714482.000000
715303.000000
716126.000000
716937.000000
717742.000000
718553.000000
719364.000000
720176.000000
720985.000000
721800.000000
722616.000000
723432.000000
724243.000000
725058.000000
725874.000000
726694.000000
727522.000000
728337.000000
729147.000000
729966.000000
730790.000000
731603.000000
732408.000000
733212.000000
734023.000000
734843.000000
735652.000000
736460.000000
737273.000000
738097.000000
738916.000000
739723.000000
740530.000000
741340.000000
742151.000000
742958.000000
743761.000000
744562.000000
745368.000000
746179.000000
746994.000000
747800.000000
748596.000000
749403.000000
750221.000000
751031.000000
751836.000000
752642.000000
753455.000000
754274.000000
755098.000000
755920.000000
756746.000000
757571.000000
758391.000000
759207.000000
760010.000000
760810.000000
761611.000000
762403.000000
763193.000000
763986.000000
764781.000000
765575.000000
766368.000000
767162.000000
767954.000000
768745.000000
769538.000000
770327.000000
771116.000000
771900.000000
772681.000000
773467.000000
774262.000000
775060.000000
775858.000000
776659.000000
777443.000000
778203.000000
778951.000000
779706.000000
780463.000000
781226.000000
782002.000000
782797.000000
783606.000000
784416.000000
785205.000000
785981.000000
786766.000000
787564.000000
788376.000000
789204.000000
790030.000000
790840.000000
791647.000000
792454.000000
793272.000000
794093.000000
794910.000000
795721.000000
796523.000000
797320.000000
798123.000000
798935.000000
799754.000000
800563.000000
801379.000000
802202.000000
803034.000000
803858.000000
804674.000000
805485.000000
806292.000000
807102.000000
807918.000000
808733.000000
809543.000000
810354.000000
811174.000000
811991.000000
812806.000000
813614.000000
814432.000000
815260.000000
816095.000000
816907.000000
817725.000000
818549.000000
819371.000000
820193.000000
821007.000000
821817.000000
822626.000000
823435.000000
824238.000000
825040.000000
825843.000000
826648.000000
827453.000000
828256.000000
829061.000000
829868.000000
830688.000000
831519.000000
832356.000000
833184.000000
834002.000000
834824.000000
835677.000000
836537.000000
837396.000000
838229.000000
839043.000000
839871.000000
840719.000000
841564.000000
842401.000000
843228.000000
844052.000000
844883.000000
845718.000000
846541.000000
847358.000000
848167.000000
848974.000000
849774.000000
850583.000000
851404.000000
852239.000000
853074.000000
853906.000000
854731.000000
855559.000000
856402.000000
857247.000000
858088.000000
858912.000000
859728.000000
860546.000000
861363.000000
862176.000000
862993.000000
863831.000000
864677.000000
865523.000000
866377.000000
867230.000000
868076.000000
868912.000000
869744.000000
870584.000000
871425.000000
872256.000000
873075.000000
873886.000000
874694.000000
875510.000000
876321.000000
877131.000000
877945.000000
878772.000000
879602.000000
880423.000000
881246.000000
882069.000000
882891.000000
883707.000000
884516.000000
885332.000000
886149.000000
886960.000000
887768.000000
888579.000000
889391.000000
890197.000000
891003.000000
891816.000000
892633.000000
893456.000000
894272.000000
895093.000000
895912.000000
896731.000000
897537.000000
898345.000000
899154.000000
899964.000000
900772.000000
901574.000000
902379.000000
903188.000000
903995.000000
904801.000000
905607.000000
906416.000000
907228.000000
908038.000000
908850.000000
909665.000000
910481.000000
911295.000000
912098.000000
912901.000000
913706.000000
914509.000000
915303.000000
916102.000000
916909.000000
917718.000000
918524.000000
919329.000000
920136.000000
920944.000000
921753.000000
922559.000000
923370.000000
924188.000000
925004.000000
925812.000000
926619.000000
927428.000000
928241.000000
929052.000000
929858.000000
930670.000000
931485.000000
932302.000000
933115.000000
933929.000000
934746.000000
935568.000000
936393.000000
937224.000000
938053.000000
938873.000000
939680.000000
940491.000000
941305.000000
942125.000000
942942.000000
943756.000000
944581.000000
945410.000000
946240.000000
947070.000000
947897.000000
948724.000000
949550.000000
950367.000000
951180.000000
951999.000000
952824.000000
953648.000000
954466.000000
955292.000000
956136.000000
956983.000000
957819.000000
958647.000000
959479.000000
960319.000000
961164.000000
962000.000000
962822.000000
963648.000000
964475.000000
965321.000000
966175.000000
967010.000000
967839.000000
968690.000000
969560.000000
970434.000000
971288.000000
972129.000000
972968.000000
973808.000000
974635.000000
975452.000000
976270.000000
977100.000000
977940.000000
978777.000000
979601.000000
980419.000000
981244.000000
982068.000000
982884.000000
983700.000000
984516.000000
985331.000000
986144.000000
986958.000000
987772.000000
988585.000000
989399.000000
990212.000000
991022.000000
991836.000000
992655.000000
993475.000000
994293.000000
995114.000000
995952.000000
996800.000000
997640.000000
998470.000000
999300.000000
1000140.000000
1000983.000000
1001823.000000
1002659.000000
1003489.000000
1004322.000000
1005165.000000
1006008.000000
1006847.000000
1007686.000000
1008530.000000
1009371.000000
1010213.000000
1011047.000000
1011882.000000
1012723.000000
1013569.000000
1014408.000000
1015247.000000
1016082.000000
1016927.000000
1017783.000000
1018638.000000
1019481.000000
1020326.000000
1021164.000000
1021997.000000
1022825.000000
1023636.000000
1024438.000000
1025245.000000
1026076.000000
1026932.000000
1027788.000000
1028620.000000
1029438.000000
1030260.000000
1031086.000000
1031912.000000
1032733.000000
1033553.000000
1034379.000000
1035211.000000
1036048.000000
1036876.000000
1037702.000000
1038519.000000
1039333.000000
1040146.000000
1040953.000000
1041766.000000
1042596.000000
1043442.000000
1044305.000000
1045149.000000
1045993.000000
1046849.000000
1047712.000000
1048571.000000
1049420.000000
1050264.000000
1051107.000000
1051949.000000
1052783.000000
1053613.000000
1054444.000000
1055274.000000
1056111.000000
1056951.000000
1057797.000000
1058644.000000
1059488.000000
1060317.000000
1061150.000000
1061972.000000
1062785.000000
1063604.000000
1064422.000000
1065234.000000
1066037.000000
1066831.000000
1067626.000000
1068428.000000
1069236.000000
1070045.000000
1070849.000000
1071657.000000
1072465.000000
1073277.000000
1074084.000000
1074893.000000
1075703.000000
1076506.000000
1077314.000000
1078121.000000
1078928.000000
1079737.000000
1080544.000000
1081354.000000
1082169.000000
1082987.000000
1083800.000000
1084613.000000
1085425.000000
1086245.000000
1087057.000000
1087865.000000
1088677.000000
1089488.000000
1090296.000000
1091099.000000
1091903.000000
1092709.000000
1093511.000000
1094316.000000
1095124.000000
1095932.000000
1096736.000000
1097536.000000
1098334.000000
1099131.000000
1099929.000000
1100727.000000
1101529.000000
1102346.000000
1103162.000000
1103975.000000
1104793.000000
1105609.000000
1106426.000000
1107238.000000
1108049.000000
1108857.000000
1109659.000000
1110457.000000
1111252.000000
1112052.000000
1112855.000000
1113659.000000
1114465.000000
1115274.000000
1116083.000000
1116887.000000
1117694.000000
1118500.000000
1119312.000000
1120121.000000
1120929.000000
1121742.000000
1122556.000000
1123363.000000
1124169.000000
1124972.000000
1125781.000000
1126594.000000
1127405.000000
1128221.000000
1129039.000000
1129856.000000
1130673.000000
1131482.000000
1132297.000000
1133118.000000
1133948.000000
1134771.000000
1135599.000000
1136434.000000
1137271.000000
1138103.000000
1138918.000000
1139727.000000
1140544.000000
1141383.000000
1142231.000000
1143072.000000
1143896.000000
1144718.000000
1145547.000000
1146382.000000
1147212.000000
1148038.000000
1148866.000000
1149709.000000
1150558.000000
1151394.000000
1152215.000000
1153033.000000
1153845.000000
1154660.000000
1155471.000000
1156269.000000
1157068.000000
1157876.000000
1158702.000000
1159542.000000
1160389.000000
1161237.000000
1162092.000000
1162922.000000
1163731.000000
1164539.000000
1165348.000000
1166152.000000
1166959.000000
1167766.000000
1168582.000000
1169395.000000
1170199.000000
1170991.000000
1171779.000000
1172567.000000
1173347.000000
1174117.000000
1174894.000000
1175696.000000
1176519.000000
1177352.000000
1178185.000000
1179008.000000
1179818.000000
1180619.000000
1181418.000000
1182215.000000
1183011.000000
1183807.000000
1184608.000000
1185417.000000
1186228.000000
1187044.000000
1187856.000000
1188666.000000
1189476.000000
1190281.000000
1191093.000000
1191904.000000
1192719.000000
1193528.000000
1194337.000000
1195146.000000
1195961.000000
1196775.000000
1197589.000000
1198405.000000
1199225.000000
1200044.000000
1200864.000000
1201681.000000
1202497.000000
1203313.000000
1204133.000000
1204954.000000
1205778.000000
1206609.000000
1207450.000000
