ECG (ms)
337.000000
1560.000000
2800.000000
4011.000000
5280.000000
6381.000000
7629.000000
8844.000000
9999.000000
11260.000000
12401.000000
13579.000000
14716.000000
15877.000000
17142.000000
18271.000000
19444.000000
20582.000000
21632.000000
22805.000000
23907.000000
25018.000000
26225.000000
27360.000000
28489.000000
29662.000000
30710.000000
31770.000000
32964.000000
34039.000000
35068.000000
36279.000000
37405.000000
38442.000000
39588.000000
40730.000000
41780.000000
42784.000000
43977.000000
45229.000000
46302.000000
47334.000000
48543.000000
49789.000000
50957.000000
52058.000000
53371.000000
54575.000000
55678.000000
56830.000000
57926.000000
59133.000000
60360.000000
61437.000000
62555.000000
63762.000000
64881.000000
65980.000000
67240.000000
68322.000000
69468.000000
70666.000000
71698.000000
72832.000000
73987.000000
75039.000000
76073.000000
77160.000000
78268.000000
79298.000000
80495.000000
81653.000000
82671.000000
83773.000000
84920.000000
85990.000000
87055.000000
88179.000000
89322.000000
90372.000000
91564.000000
92719.000000
93786.000000
94927.000000
95960.000000
97055.000000
98201.000000
99248.000000
100439.000000
101573.000000
102612.000000
103725.000000
104910.000000
105963.000000
107046.000000
108190.000000
109284.000000
110292.000000
111435.000000
112569.000000
113599.000000
114767.000000
115905.000000
116940.000000
118053.000000
119207.000000
120240.000000
121386.000000
122494.000000
123541.000000
124650.000000
125762.000000
126739.000000
127778.000000
128845.000000
129836.000000
130814.000000
131934.000000
133027.000000
134010.000000
135051.000000
136137.000000
137105.000000
138103.000000
139119.000000
140091.000000
141034.000000
142032.000000
143085.000000
144070.000000
145121.000000
146168.000000
147118.000000
148144.000000
149173.000000
150119.000000
151211.000000
152355.000000
153382.000000
154499.000000
155618.000000
156607.000000
157637.000000
158739.000000
159739.000000
160801.000000
161925.000000
162957.000000
164041.000000
165135.000000
166106.000000
167135.000000
168187.000000
169134.000000
170194.000000
171291.000000
172267.000000
173340.000000
174447.000000
175441.000000
176532.000000
177660.000000
178656.000000
179712.000000
180740.000000
181684.000000
182726.000000
183794.000000
184790.000000
185920.000000
187072.000000
188131.000000
189268.000000
190363.000000
191386.000000
192470.000000
193535.000000
194507.000000
195526.000000
196766.000000
197842.000000
198823.000000
199898.000000
200962.000000
201931.000000
202969.000000
204123.000000
205267.000000
206305.000000
207274.000000
208398.000000
209491.000000
210461.000000
211487.000000
212531.000000
213499.000000
214612.000000
215749.000000
216792.000000
217873.000000
218950.000000
219934.000000
220965.000000
222073.000000
223134.000000
224199.000000
225366.000000
226439.000000
227495.000000
228623.000000
229753.000000
230744.000000
231794.000000
232837.000000
233793.000000
234890.000000
236073.000000
237105.000000
238241.000000
239367.000000
240392.000000
241527.000000
242734.000000
243774.000000
244808.000000
245944.000000
246978.000000
247989.000000
249054.000000
250104.000000
251091.000000
252141.000000
253196.000000
254157.000000
255230.000000
256299.000000
257261.000000
258281.000000
259333.000000
260299.000000
261404.000000
262538.000000
263559.000000
264621.000000
265748.000000
266783.000000
267793.000000
268899.000000
269991.000000
271014.000000
272134.000000
273264.000000
274288.000000
275340.000000
276365.000000
277316.000000
278339.000000
279429.000000
280400.000000
281461.000000
282494.000000
283458.000000
284524.000000
285600.000000
286592.000000
287672.000000
288733.000000
289697.000000
290726.000000
291827.000000
292822.000000
293929.000000
295066.000000
296051.000000
297057.000000
298138.000000
299149.000000
300156.000000
301265.000000
302405.000000
303506.000000
304650.000000
305665.000000
306713.000000
307884.000000
308922.000000
309958.000000
311092.000000
312225.000000
313258.000000
314453.000000
315560.000000
316612.000000
317710.000000
318706.000000
319758.000000
320871.000000
321914.000000
322881.000000
323942.000000
324996.000000
325997.000000
326944.000000
328039.000000
329202.000000
330239.000000
331337.000000
332469.000000
333513.000000
334541.000000
335616.000000
336698.000000
337695.000000
338778.000000
339882.000000
340944.000000
341918.000000
342945.000000
344093.000000
345218.000000
346212.000000
347270.000000
348337.000000
349294.000000
350283.000000
351370.000000
352458.000000
353443.000000
354395.000000
355444.000000
356520.000000
357500.000000
358427.000000
359414.000000
360453.000000
361460.000000
362395.000000
363376.000000
364585.000000
365676.000000
366689.000000
367595.000000
368507.000000
369459.000000
370437.000000
371380.000000
372432.000000
373525.000000
374548.000000
375583.000000
376619.000000
377592.000000
378536.000000
379511.000000
380514.000000
381434.000000
382404.000000
383441.000000
384371.000000
385304.000000
386241.000000
387118.000000
388008.000000
388946.000000
389910.000000
390820.000000
391791.000000
392827.000000
393810.000000
394814.000000
395908.000000
396991.000000
397967.000000
398977.000000
400003.000000
401046.000000
401981.000000
402917.000000
403980.000000
405073.000000
406172.000000
407176.000000
408189.000000
409275.000000
410327.000000
411292.000000
412344.000000
413377.000000
414320.000000
415341.000000
416401.000000
417399.000000
418350.000000
419430.000000
420592.000000
421700.000000
422710.000000
423832.000000
424934.000000
425950.000000
427001.000000
428140.000000
429185.000000
430242.000000
431364.000000
432361.000000
433373.000000
434485.000000
435577.000000
436593.000000
437686.000000
438739.000000
439773.000000
440867.000000
441901.000000
442868.000000
443923.000000
445000.000000
445977.000000
446971.000000
448016.000000
449019.000000
449980.000000
451035.000000
452063.000000
452997.000000
453950.000000
454947.000000
455892.000000
456847.000000
457883.000000
458821.000000
459769.000000
460759.000000
461690.000000
462707.000000
463760.000000
464737.000000
465703.000000
466692.000000
467625.000000
468549.000000
469507.000000
470468.000000
471380.000000
472354.000000
473334.000000
474264.000000
475242.000000
476250.000000
477164.000000
478103.000000
479053.000000
479948.000000
480858.000000
481795.000000
482708.000000
483600.000000
484521.000000
485463.000000
486350.000000
487303.000000
488322.000000
489334.000000
490266.000000
491210.000000
492206.000000
493231.000000
494205.000000
495227.000000
496260.000000
497298.000000
498271.000000
499276.000000
500295.000000
501237.000000
502213.000000
503232.000000
504170.000000
505151.000000
506242.000000
507215.000000
508264.000000
509398.000000
510429.000000
511513.000000
512626.000000
513657.000000
514646.000000
515741.000000
516858.000000
517850.000000
518970.000000
520144.000000
521200.000000
522268.000000
523401.000000
524438.000000
525441.000000
526599.000000
527766.000000
528825.000000
529989.000000
531116.000000
532128.000000
533188.000000
534356.000000
535403.000000
536450.000000
537640.000000
538776.000000
539833.000000
540978.000000
542068.000000
543221.000000
544526.000000
545612.000000
546709.000000
547953.000000
549131.000000
550247.000000
551439.000000
552534.000000
553557.000000
554694.000000
555864.000000
556926.000000
558069.000000
559190.000000
560167.000000
561185.000000
562246.000000
563275.000000
564244.000000
565322.000000
566420.000000
567408.000000
568459.000000
569579.000000
570583.000000
571636.000000
572735.000000
573770.000000
574791.000000
575836.000000
576860.000000
577810.000000
578838.000000
579892.000000
580844.000000
581859.000000
582885.000000
583856.000000
584888.000000
585952.000000
586924.000000
587937.000000
589009.000000
589981.000000
590941.000000
591966.000000
592975.000000
593905.000000
594886.000000
595984.000000
597019.000000
598102.000000
599174.000000
600135.000000
601091.000000
602068.000000
603046.000000
603979.000000
605008.000000
606075.000000
607039.000000
608013.000000
609029.000000
610034.000000
611006.000000
612167.000000
613293.000000
614356.000000
615443.000000
616518.000000
617531.000000
618523.000000
619597.000000
620668.000000
621664.000000
622652.000000
623799.000000
624866.000000
625866.000000
626914.000000
627982.000000
628956.000000
629975.000000
631011.000000
631999.000000
632993.000000
634086.000000
635125.000000
636090.000000
637141.000000
638234.000000
639286.000000
640305.000000
641395.000000
642435.000000
643408.000000
644482.000000
645542.000000
646488.000000
647431.000000
648423.000000
649400.000000
650306.000000
651208.000000
652156.000000
653091.000000
654016.000000
654998.000000
655949.000000
656831.000000
657740.000000
658673.000000
659545.000000
660435.000000
661337.000000
662198.000000
663062.000000
663966.000000
664935.000000
665892.000000
666888.000000
667966.000000
668958.000000
670001.000000
671116.000000
672177.000000
673185.000000
674300.000000
675460.000000
676465.000000
677506.000000
678648.000000
679748.000000
680870.000000
682094.000000
683295.000000
684384.000000
685543.000000
686703.000000
687750.000000
688929.000000
690103.000000
691218.000000
692254.000000
693386.000000
694475.000000
695507.000000
696585.000000
697733.000000
698836.000000
699826.000000
700894.000000
702012.000000
703077.000000
704066.000000
705197.000000
706307.000000
707301.000000
708274.000000
709476.000000
710626.000000
711696.000000
712676.000000
713693.000000
714753.000000
715785.000000
716752.000000
717895.000000
719071.000000
720169.000000
721194.000000
722273.000000
723470.000000
724617.000000
725644.000000
726633.000000
727752.000000
728898.000000
730014.000000
731038.000000
732069.000000
733210.000000
734390.000000
735493.000000
736571.000000
737746.000000
738894.000000
739907.000000
740928.000000
741982.000000
743013.000000
744084.000000
745259.000000
746274.000000
747337.000000
748449.000000
749459.000000
750505.000000
751601.000000
752667.000000
753681.000000
754821.000000
755976.000000
757025.000000
757991.000000
759006.000000
760062.000000
761067.000000
762042.000000
763166.000000
764441.000000
765552.000000
766625.000000
767786.000000
768920.000000
769916.000000
771005.000000
772162.000000
773240.000000
774357.000000
775587.000000
776647.000000
777747.000000
778888.000000
779959.000000
780975.000000
782136.000000
783333.000000
784394.000000
785454.000000
786672.000000
787786.000000
788781.000000
789780.000000
790870.000000
791926.000000
792908.000000
793945.000000
795079.000000
796170.000000
797257.000000
798405.000000
799458.000000
800585.000000
801698.000000
802721.000000
803763.000000
804822.000000
805828.000000
806809.000000
807849.000000
808924.000000
809944.000000
811056.000000
812221.000000
813314.000000
814379.000000
815413.000000
816384.000000
817369.000000
818431.000000
819446.000000
820403.000000
821471.000000
822547.000000
823519.000000
824580.000000
825676.000000
826679.000000
827773.000000
828884.000000
829871.000000
830836.000000
831877.000000
832920.000000
833864.000000
834855.000000
835899.000000
836838.000000
837864.000000
838953.000000
839967.000000
841006.000000
842207.000000
843305.000000
844305.000000
845368.000000
846473.000000
847459.000000
848480.000000
849568.000000
850608.000000
851554.000000
852544.000000
853604.000000
854644.000000
855621.000000
856743.000000
857890.000000
858931.000000
859927.000000
860929.000000
861901.000000
862857.000000
863915.000000
865020.000000
866021.000000
867120.000000
868334.000000
869402.000000
870456.000000
871522.000000
872530.000000
873503.000000
874554.000000
875593.000000
876564.000000
877727.000000
878914.000000
879964.000000
881061.000000
882201.000000
883232.000000
884330.000000
885465.000000
886541.000000
887607.000000
888815.000000
889953.000000
890955.000000
892016.000000
893139.000000
894148.000000
895204.000000
896408.000000
897488.000000
898535.000000
899738.000000
900838.000000
901843.000000
902922.000000
904005.000000
904978.000000
905939.000000
907059.000000
908170.000000
909160.000000
910246.000000
911371.000000
912406.000000
913490.000000
914602.000000
915603.000000
916619.000000
917703.000000
918703.000000
919668.000000
920727.000000
921804.000000
922772.000000
923839.000000
924952.000000
925943.000000
927002.000000
928171.000000
929244.000000
930260.000000
931317.000000
932377.000000
933376.000000
934453.000000
935493.000000
936428.000000
937369.000000
938320.000000
939244.000000
940196.000000
941185.000000
942123.000000
943059.000000
944035.000000
944980.000000
945884.000000
946810.000000
947745.000000
948640.000000
949561.000000
950574.000000
951574.000000
952536.000000
953531.000000
954545.000000
955485.000000
956431.000000
957384.000000
958327.000000
959284.000000
960313.000000
961331.000000
962251.000000
963151.000000
964055.000000
964934.000000
965808.000000
966754.000000
967717.000000
968622.000000
969623.000000
970725.000000
971691.000000
972678.000000
973682.000000
974614.000000
975574.000000
976589.000000
977549.000000
978487.000000
979496.000000
980627.000000
981615.000000
982646.000000
983613.000000
984523.000000
985465.000000
986469.000000
987398.000000
988375.000000
989415.000000
990357.000000
991318.000000
992308.000000
993248.000000
994224.000000
995316.000000
996309.000000
997260.000000
998283.000000
999314.000000
1000252.000000
1001237.000000
1002245.000000
1003247.000000
1004197.000000
1005229.000000
1006260.000000
1007247.000000
1008300.000000
1009360.000000
1010319.000000
1011308.000000
1012390.000000
1013410.000000
1014354.000000
1015437.000000
1016581.000000
1017572.000000
1018576.000000
1019634.000000
1020612.000000
1021588.000000
1022649.000000
1023677.000000
1024658.000000
1025720.000000
1026731.000000
1027703.000000
1028733.000000
1029756.000000
1030741.000000
1031827.000000
1032881.000000
1033852.000000
1034906.000000
1035968.000000
1036943.000000
1037981.000000
1039022.000000
1039996.000000
1040992.000000
1042010.000000
1042941.000000
1043918.000000
1044957.000000
1045910.000000
1046913.000000
1047939.000000
1048893.000000
1049930.000000
1050964.000000
1051906.000000
1052913.000000
1053925.000000
1054846.000000
1055826.000000
1056863.000000
1057841.000000
1058828.000000
1059877.000000
1060907.000000
1061839.000000
1062847.000000
1063896.000000
1064890.000000
1065851.000000
1066885.000000
1067952.000000
1068925.000000
1069940.000000
1070996.000000
1071977.000000
1072891.000000
1073847.000000
1074828.000000
1075853.000000
1076815.000000
1077781.000000
1078825.000000
1079885.000000
1080869.000000
1081850.000000
1082938.000000
1083958.000000
1084892.000000
1085843.000000
1086841.000000
1087846.000000
1088815.000000
1089851.000000
1090905.000000
1091867.000000
1092858.000000
1093910.000000
1094882.000000
1095749.000000
1096601.000000
1097456.000000
1098368.000000
1099274.000000
1100272.000000
1101423.000000
1102562.000000
1103572.000000
1104619.000000
1105726.000000
1106758.000000
1107733.000000
1108766.000000
1109823.000000
1110804.000000
1111869.000000
1112973.000000
1113967.000000
1114959.000000
1115945.000000
1116900.000000
1117800.000000
1118727.000000
1119691.000000
1120604.000000
1121518.000000
1122518.000000
1123498.000000
1124424.000000
1125411.000000
1126427.000000
1127366.000000
1128347.000000
1129366.000000
1130317.000000
1131314.000000
1132424.000000
1133512.000000
1134482.000000
1135473.000000
1136478.000000
1137441.000000
1138407.000000
1139409.000000
1140387.000000
1141290.000000
1142173.000000
1143053.000000
1143911.000000
1144764.000000
1145663.000000
1146573.000000
1147471.000000
1148447.000000
1149419.000000
1150347.000000
1151334.000000
1152293.000000
1153201.000000
1154162.000000
1155129.000000
1156028.000000
1156955.000000
1157963.000000
1158886.000000
1159797.000000
1160706.000000
1161596.000000
1162456.000000
1163322.000000
1164207.000000
1165057.000000
1165929.000000
1166853.000000
1167741.000000
1168601.000000
1169478.000000
1170380.000000
1171240.000000
1172126.000000
1173025.000000
1173909.000000
1174767.000000
1175644.000000
1176537.000000
1177388.000000
1178244.000000
1179117.000000
1179983.000000
1180822.000000
1181684.000000
1182561.000000
1183414.000000
1184275.000000
1185173.000000
1186119.000000
1187026.000000
1187971.000000
1188919.000000
1189823.000000
1190726.000000
1191700.000000
1192703.000000
1193630.000000
1194552.000000
1195518.000000
1196539.000000
1197493.000000
1198393.000000
1199331.000000
1200322.000000
1201351.000000
1202305.000000
1203298.000000
1204348.000000
1205356.000000
1206307.000000
1207301.000000
1208330.000000
1209287.000000
1210319.000000
1211413.000000
1212416.000000
1213377.000000
1214329.000000
1215279.000000
1216179.000000
