ECG (ms)
79.000000
1156.000000
2258.000000
3319.000000
4312.000000
5335.000000
6290.000000
7201.000000
8172.000000
9074.000000
10008.000000
10991.000000
11926.000000
12808.000000
13732.000000
14651.000000
15519.000000
16401.000000
17351.000000
18300.000000
19252.000000
20143.000000
20989.000000
21788.000000
22531.000000
23299.000000
24284.000000
25309.000000
26319.000000
27336.000000
28321.000000
29252.000000
30092.000000
30872.000000
31636.000000
32450.000000
33395.000000
34352.000000
35286.000000
36145.000000
37003.000000
37930.000000
38869.000000
39787.000000
40646.000000
41498.000000
42380.000000
43314.000000
44283.000000
45247.000000
46161.000000
47005.000000
47854.000000
48835.000000
49854.000000
50843.000000
51872.000000
52848.000000
53738.000000
54651.000000
55643.000000
56622.000000
57585.000000
58545.000000
59516.000000
60471.000000
61381.000000
62309.000000
63283.000000
64266.000000
65251.000000
66248.000000
67266.000000
68264.000000
69205.000000
70037.000000
70870.000000
71865.000000
72907.000000
73959.000000
74991.000000
75973.000000
76887.000000
77824.000000
78783.000000
79778.000000
80800.000000
81820.000000
82774.000000
83610.000000
84393.000000
85255.000000
86279.000000
87268.000000
88252.000000
89224.000000
90070.000000
90856.000000
91698.000000
92744.000000
93750.000000
94739.000000
95788.000000
96835.000000
97860.000000
98807.000000
99668.000000
100521.000000
101449.000000
102447.000000
103452.000000
104438.000000
105337.000000
106186.000000
107067.000000
108014.000000
108945.000000
109870.000000
110856.000000
111872.000000
112878.000000
113822.000000
114669.000000
115537.000000
116501.000000
117482.000000
118472.000000
119468.000000
120387.000000
121292.000000
122284.000000
123276.000000
124243.000000
125146.000000
125933.000000
126649.000000
127358.000000
128482.000000
129571.000000
130627.000000
131645.000000
132587.000000
133489.000000
134416.000000
135385.000000
136346.000000
137214.000000
138144.000000
139132.000000
140081.000000
140994.000000
141998.000000
143036.000000
143963.000000
144915.000000
145885.000000
146866.000000
147794.000000
148682.000000
149644.000000
150610.000000
151610.000000
152609.000000
153546.000000
154369.000000
155165.000000
156030.000000
157065.000000
158068.000000
159054.000000
159980.000000
160929.000000
161960.000000
162996.000000
164008.000000
164981.000000
165911.000000
166762.000000
167562.000000
168352.000000
169273.000000
170284.000000
171273.000000
172236.000000
173159.000000
174026.000000
174864.000000
175672.000000
176508.000000
177473.000000
178482.000000
179440.000000
180329.000000
181192.000000
182079.000000
182942.000000
183783.000000
184591.000000
185459.000000
186345.000000
187231.000000
188175.000000
189172.000000
190143.000000
191095.000000
192051.000000
192998.000000
193933.000000
194850.000000
195758.000000
196580.000000
197368.000000
198241.000000
199271.000000
200304.000000
201312.000000
202221.000000
203017.000000
203859.000000
204836.000000
205812.000000
206741.000000
207592.000000
208411.000000
209370.000000
210392.000000
211399.000000
212348.000000
213166.000000
213944.000000
214782.000000
215787.000000
216795.000000
217803.000000
218726.000000
219568.000000
220448.000000
221423.000000
222430.000000
223411.000000
224319.000000
225126.000000
225944.000000
226925.000000
227952.000000
228934.000000
229842.000000
230762.000000
231731.000000
232707.000000
233660.000000
234501.000000
235350.000000
236342.000000
237324.000000
238311.000000
239220.000000
240031.000000
240835.000000
241770.000000
242853.000000
243924.000000
244932.000000
245858.000000
246763.000000
247759.000000
248790.000000
249748.000000
250580.000000
251362.000000
252244.000000
253359.000000
254457.000000
255480.000000
256400.000000
257276.000000
258225.000000
259226.000000
260235.000000
261238.000000
262166.000000
263042.000000
263937.000000
264881.000000
265851.000000
266829.000000
267803.000000
268752.000000
269623.000000
270458.000000
271377.000000
272392.000000
273401.000000
274321.000000
275130.000000
275961.000000
276925.000000
277871.000000
278780.000000
279651.000000
280610.000000
281640.000000
282642.000000
283618.000000
284478.000000
285239.000000
285990.000000
286863.000000
287941.000000
288971.000000
289944.000000
290804.000000
291650.000000
292667.000000
293691.000000
294692.000000
295651.000000
296574.000000
297408.000000
298164.000000
298926.000000
299818.000000
300908.000000
301912.000000
302884.000000
303902.000000
304918.000000
305887.000000
306754.000000
307558.000000
308373.000000
309339.000000
310389.000000
311460.000000
312484.000000
313416.000000
314245.000000
315077.000000
315976.000000
316932.000000
317852.000000
318681.000000
319448.000000
320226.000000
321180.000000
322180.000000
323169.000000
324075.000000
325000.000000
325975.000000
326943.000000
327885.000000
328776.000000
329562.000000
330342.000000
331186.000000
332060.000000
332911.000000
333785.000000
334734.000000
335685.000000
336539.000000
337330.000000
338162.000000
339048.000000
340016.000000
341002.000000
341955.000000
342844.000000
343643.000000
344463.000000
345374.000000
346342.000000
347273.000000
348096.000000
348888.000000
349759.000000
350781.000000
351786.000000
352702.000000
353508.000000
354317.000000
355219.000000
356188.000000
357148.000000
358062.000000
358892.000000
359733.000000
360668.000000
361574.000000
362478.000000
363428.000000
364399.000000
365374.000000
366323.000000
367216.000000
368006.000000
368798.000000
369671.000000
370670.000000
371692.000000
372690.000000
373631.000000
374496.000000
375358.000000
376314.000000
377301.000000
378269.000000
379231.000000
380219.000000
381161.000000
382010.000000
382843.000000
383804.000000
384900.000000
385953.000000
386999.000000
387956.000000
388878.000000
389832.000000
390800.000000
391754.000000
392689.000000
393749.000000
394766.000000
395762.000000
396749.000000
397695.000000
398569.000000
399303.000000
399999.000000
400710.000000
401598.000000
402461.000000
403253.000000
404132.000000
405123.000000
406027.000000
406882.000000
407784.000000
408696.000000
409608.000000
410516.000000
411362.000000
412199.000000
413126.000000
414130.000000
415146.000000
416171.000000
417100.000000
417979.000000
418898.000000
419855.000000
420824.000000
421736.000000
422679.000000
423735.000000
424769.000000
425778.000000
426736.000000
427572.000000
428424.000000
429433.000000
430426.000000
431419.000000
432464.000000
433421.000000
434378.000000
435384.000000
436390.000000
437316.000000
438143.000000
439017.000000
439980.000000
440930.000000
441833.000000
442751.000000
443640.000000
444552.000000
445605.000000
446664.000000
447693.000000
448671.000000
449675.000000
450673.000000
451664.000000
452636.000000
453606.000000
454510.000000
455465.000000
456478.000000
457443.000000
458368.000000
459239.000000
460074.000000
461033.000000
462114.000000
463160.000000
464180.000000
465115.000000
465940.000000
466800.000000
467738.000000
468730.000000
469712.000000
470663.000000
471552.000000
472377.000000
473297.000000
474389.000000
475468.000000
476482.000000
477412.000000
478308.000000
479238.000000
480197.000000
481172.000000
482112.000000
482959.000000
483743.000000
484565.000000
485684.000000
486779.000000
487847.000000
488861.000000
489898.000000
490928.000000
491889.000000
492728.000000
493571.000000
494445.000000
495319.000000
496169.000000
497132.000000
498203.000000
499227.000000
500225.000000
501230.000000
502237.000000
503224.000000
504208.000000
505108.000000
505896.000000
506658.000000
507462.000000
508659.000000
509815.000000
510921.000000
512004.000000
513032.000000
513924.000000
514755.000000
515614.000000
516544.000000
517499.000000
518434.000000
519281.000000
520046.000000
520808.000000
521676.000000
522664.000000
523656.000000
524561.000000
525401.000000
526274.000000
527189.000000
528097.000000
528963.000000
529729.000000
530451.000000
531195.000000
532148.000000
533136.000000
534118.000000
535134.000000
536142.000000
537140.000000
538083.000000
538919.000000
539674.000000
540419.000000
541324.000000
542407.000000
543443.000000
544423.000000
545395.000000
546414.000000
547455.000000
548457.000000
549453.000000
550417.000000
551285.000000
552062.000000
552828.000000
553755.000000
554865.000000
555963.000000
556999.000000
557905.000000
558755.000000
559674.000000
560683.000000
561691.000000
562628.000000
563509.000000
564485.000000
565506.000000
566488.000000
567373.000000
568236.000000
569156.000000
570078.000000
570920.000000
571718.000000
572576.000000
573552.000000
574596.000000
575596.000000
576555.000000
577569.000000
578563.000000
579475.000000
580411.000000
581328.000000
582223.000000
583107.000000
583962.000000
584865.000000
585931.000000
586990.000000
588018.000000
589041.000000
589961.000000
590774.000000
591567.000000
592500.000000
593506.000000
594501.000000
595474.000000
596343.000000
597137.000000
597913.000000
598753.000000
599696.000000
600649.000000
601587.000000
602456.000000
603223.000000
603982.000000
604804.000000
605786.000000
606724.000000
607643.000000
608655.000000
609666.000000
610664.000000
611542.000000
612307.000000
613044.000000
613821.000000
614938.000000
616042.000000
617096.000000
618208.000000
619253.000000
620206.000000
621166.000000
622122.000000
623032.000000
623897.000000
624687.000000
625553.000000
626514.000000
627424.000000
628295.000000
629247.000000
630217.000000
631162.000000
632073.000000
632898.000000
633662.000000
634469.000000
635436.000000
636425.000000
637409.000000
638313.000000
639098.000000
639865.000000
640719.000000
641691.000000
642742.000000
643791.000000
644802.000000
645715.000000
646619.000000
647611.000000
648604.000000
649554.000000
650469.000000
651300.000000
652120.000000
653090.000000
654217.000000
655268.000000
656323.000000
657376.000000
658340.000000
659205.000000
660007.000000
660781.000000
661659.000000
662688.000000
663712.000000
664699.000000
665655.000000
666572.000000
667381.000000
668145.000000
668958.000000
669923.000000
670815.000000
671643.000000
672526.000000
673494.000000
674408.000000
675325.000000
676270.000000
677128.000000
677959.000000
678879.000000
679840.000000
680797.000000
681724.000000
682596.000000
683411.000000
684214.000000
685074.000000
686088.000000
687127.000000
688097.000000
689033.000000
689880.000000
690655.000000
691476.000000
692401.000000
693360.000000
694220.000000
695034.000000
695920.000000
696848.000000
697697.000000
698513.000000
699371.000000
700266.000000
701172.000000
702009.000000
702873.000000
703811.000000
704835.000000
705788.000000
706672.000000
707651.000000
708675.000000
709630.000000
710567.000000
711502.000000
712376.000000
713304.000000
714278.000000
715175.000000
716088.000000
717048.000000
717954.000000
718897.000000
719877.000000
720793.000000
721761.000000
722713.000000
723615.000000
724531.000000
725483.000000
726409.000000
727334.000000
728245.000000
729159.000000
730006.000000
730774.000000
731531.000000
732370.000000
733389.000000
734385.000000
735372.000000
736336.000000
737223.000000
738070.000000
738967.000000
739861.000000
740729.000000
741522.000000
742275.000000
743069.000000
743970.000000
744947.000000
745840.000000
746801.000000
747775.000000
748671.000000
749458.000000
750256.000000
751138.000000
751981.000000
752784.000000
753637.000000
754603.000000
755505.000000
756307.000000
757114.000000
757995.000000
758909.000000
759807.000000
760689.000000
761556.000000
762346.000000
763130.000000
764026.000000
765056.000000
766070.000000
767070.000000
768014.000000
768834.000000
769640.000000
770526.000000
771486.000000
772446.000000
773416.000000
774366.000000
775296.000000
776132.000000
776925.000000
777797.000000
778910.000000
780031.000000
781099.000000
782116.000000
783018.000000
783837.000000
784658.000000
785608.000000
786666.000000
787718.000000
788725.000000
789718.000000
790742.000000
791696.000000
792600.000000
793498.000000
794438.000000
795388.000000
796356.000000
797351.000000
798299.000000
799260.000000
800254.000000
801238.000000
802190.000000
803070.000000
803941.000000
804858.000000
805739.000000
806581.000000
807465.000000
808380.000000
809272.000000
810195.000000
811143.000000
812070.000000
813009.000000
813973.000000
814902.000000
815832.000000
816793.000000
817743.000000
818702.000000
819633.000000
820455.000000
821241.000000
822093.000000
823079.000000
824012.000000
824844.000000
825771.000000
826788.000000
827709.000000
828623.000000
829614.000000
830530.000000
831406.000000
832312.000000
833246.000000
834108.000000
834934.000000
835866.000000
836808.000000
837762.000000
838776.000000
839785.000000
840718.000000
841669.000000
842619.000000
843531.000000
844437.000000
845344.000000
846258.000000
847194.000000
848120.000000
848973.000000
849849.000000
850840.000000
851834.000000
852800.000000
853747.000000
854691.000000
855652.000000
856593.000000
857437.000000
858365.000000
859364.000000
860350.000000
861273.000000
862117.000000
863033.000000
863945.000000
864787.000000
865652.000000
866595.000000
867601.000000
868553.000000
869393.000000
870244.000000
871137.000000
872029.000000
873009.000000
874001.000000
874918.000000
875876.000000
876808.000000
877675.000000
878550.000000
879438.000000
880272.000000
881088.000000
882028.000000
882965.000000
883863.000000
884749.000000
885688.000000
886610.000000
887467.000000
888346.000000
889291.000000
890232.000000
891153.000000
892054.000000
892889.000000
893657.000000
894440.000000
895385.000000
896385.000000
897340.000000
898353.000000
899355.000000
900313.000000
901296.000000
902295.000000
903296.000000
904209.000000
905031.000000
905873.000000
