ECG (ms)
56.000000
1282.000000
2450.000000
3584.000000
4701.000000
5716.000000
6608.000000
7453.000000
8296.000000
9198.000000
10540.000000
11784.000000
12950.000000
14061.000000
15194.000000
16327.000000
17428.000000
18522.000000
19607.000000
20657.000000
21713.000000
22810.000000
23919.000000
24953.000000
25978.000000
27023.000000
28072.000000
29132.000000
30215.000000
31292.000000
32308.000000
33265.000000
34250.000000
35289.000000
36365.000000
37405.000000
38500.000000
39608.000000
40690.000000
41719.000000
42745.000000
43760.000000
44726.000000
45728.000000
46735.000000
47750.000000
48791.000000
49780.000000
50734.000000
51726.000000
52743.000000
53706.000000
54727.000000
55824.000000
56853.000000
57918.000000
59000.000000
60035.000000
61116.000000
62175.000000
63174.000000
64256.000000
65395.000000
66464.000000
67448.000000
68444.000000
69538.000000
70664.000000
71750.000000
72888.000000
73970.000000
75026.000000
76091.000000
77142.000000
78143.000000
79173.000000
80169.000000
81155.000000
82179.000000
83210.000000
84254.000000
85323.000000
86319.000000
87344.000000
88395.000000
89369.000000
90320.000000
91353.000000
92406.000000
93428.000000
94464.000000
95517.000000
96538.000000
97594.000000
98652.000000
99644.000000
100609.000000
101643.000000
102674.000000
103710.000000
104832.000000
105880.000000
106858.000000
107882.000000
108858.000000
109892.000000
110954.000000
111913.000000
112882.000000
113898.000000
114830.000000
115823.000000
116924.000000
117958.000000
119068.000000
120147.000000
121255.000000
122329.000000
123371.000000
124446.000000
125428.000000
126437.000000
127485.000000
128508.000000
129586.000000
130668.000000
131661.000000
132691.000000
133746.000000
134772.000000
135772.000000
136809.000000
137802.000000
138865.000000
139911.000000
140962.000000
142037.000000
143082.000000
144172.000000
145223.000000
146207.000000
147242.000000
148308.000000
149331.000000
150370.000000
151487.000000
152555.000000
153608.000000
154625.000000
155614.000000
156685.000000
157832.000000
158957.000000
160096.000000
161142.000000
162169.000000
163266.000000
164369.000000
165433.000000
166544.000000
167622.000000
168641.000000
169724.000000
170782.000000
171761.000000
172769.000000
173794.000000
174795.000000
175874.000000
176957.000000
177971.000000
179085.000000
180165.000000
181187.000000
182237.000000
183308.000000
184316.000000
185429.000000
186507.000000
187539.000000
188608.000000
189665.000000
190678.000000
191744.000000
192783.000000
193748.000000
194737.000000
195815.000000
196861.000000
197993.000000
199124.000000
200177.000000
201256.000000
202336.000000
203338.000000
204367.000000
205435.000000
206433.000000
207443.000000
208543.000000
209597.000000
210624.000000
211760.000000
212809.000000
213885.000000
215005.000000
216061.000000
217148.000000
218220.000000
219239.000000
220379.000000
221487.000000
222502.000000
223522.000000
224520.000000
225503.000000
226561.000000
227585.000000
228704.000000
229804.000000
230860.000000
231985.000000
233102.000000
234161.000000
235285.000000
236403.000000
237467.000000
238600.000000
239711.000000
240828.000000
241970.000000
243040.000000
244028.000000
245083.000000
246175.000000
247226.000000
248311.000000
249362.000000
250409.000000
251481.000000
252546.000000
253587.000000
254661.000000
255750.000000
256764.000000
257803.000000
258875.000000
259887.000000
260970.000000
262087.000000
263110.000000
264116.000000
265234.000000
266318.000000
267398.000000
268500.000000
269508.000000
270561.000000
271670.000000
272722.000000
273822.000000
274914.000000
275954.000000
277064.000000
278086.000000
279062.000000
280135.000000
281206.000000
282326.000000
283459.000000
284541.000000
285689.000000
286740.000000
287690.000000
288609.000000
289451.000000
290266.000000
291210.000000
292439.000000
293472.000000
294460.000000
295679.000000
296836.000000
297895.000000
298897.000000
300052.000000
301194.000000
302288.000000
303433.000000
304502.000000
305492.000000
306556.000000
307731.000000
308855.000000
309931.000000
311019.000000
312147.000000
313253.000000
314347.000000
315419.000000
316477.000000
317532.000000
318588.000000
319667.000000
320752.000000
321763.000000
322683.000000
323619.000000
324782.000000
325865.000000
326990.000000
328136.000000
329178.000000
330241.000000
331311.000000
332343.000000
333455.000000
334590.000000
335685.000000
336816.000000
337931.000000
339031.000000
340161.000000
341261.000000
342354.000000
343481.000000
344624.000000
345656.000000
346669.000000
347734.000000
348765.000000
349908.000000
351044.000000
352095.000000
353170.000000
354244.000000
355259.000000
356293.000000
357446.000000
358542.000000
359653.000000
360765.000000
361857.000000
362974.000000
364057.000000
365086.000000
366168.000000
367360.000000
368481.000000
369692.000000
370860.000000
371964.000000
373100.000000
374176.000000
375184.000000
376304.000000
377359.000000
378464.000000
379578.000000
380623.000000
381747.000000
382913.000000
383989.000000
385117.000000
386197.000000
387266.000000
388329.000000
389357.000000
390458.000000
391623.000000
392684.000000
393754.000000
394914.000000
396074.000000
397206.000000
398248.000000
399329.000000
400417.000000
401416.000000
402447.000000
403553.000000
404601.000000
405700.000000
406767.000000
407798.000000
408925.000000
410093.000000
411165.000000
412259.000000
413367.000000
414390.000000
415469.000000
416540.000000
417592.000000
418912.000000
420013.000000
421147.000000
422280.000000
423380.000000
424522.000000
425622.000000
426685.000000
427759.000000
428831.000000
429850.000000
430908.000000
432002.000000
433073.000000
434167.000000
435211.000000
436292.000000
437397.000000
438488.000000
439591.000000
440674.000000
441707.000000
442789.000000
443892.000000
444924.000000
445995.000000
447091.000000
448135.000000
449161.000000
450245.000000
451280.000000
452356.000000
453486.000000
454538.000000
455643.000000
456732.000000
457730.000000
458742.000000
459864.000000
460961.000000
462126.000000
463284.000000
464360.000000
465457.000000
466566.000000
467691.000000
468987.000000
470255.000000
471390.000000
472540.000000
473716.000000
474847.000000
476027.000000
477173.000000
478256.000000
479349.000000
480496.000000
481520.000000
482610.000000
483736.000000
484783.000000
485875.000000
486999.000000
488053.000000
489129.000000
490242.000000
491344.000000
492453.000000
493617.000000
494728.000000
495913.000000
497095.000000
498256.000000
499460.000000
500614.000000
501808.000000
502941.000000
504072.000000
505234.000000
506328.000000
507442.000000
508562.000000
509628.000000
510735.000000
511864.000000
512932.000000
514034.000000
515118.000000
516168.000000
517251.000000
518356.000000
519449.000000
520585.000000
521660.000000
522809.000000
523924.000000
525008.000000
526124.000000
527237.000000
528297.000000
529381.000000
530477.000000
531550.000000
532625.000000
533709.000000
534757.000000
535786.000000
536791.000000
537755.000000
538682.000000
539662.000000
540645.000000
541822.000000
543070.000000
544161.000000
545309.000000
546446.000000
547505.000000
548553.000000
549610.000000
550595.000000
551550.000000
552551.000000
553534.000000
554523.000000
555525.000000
556585.000000
557579.000000
558539.000000
559532.000000
560550.000000
561488.000000
562440.000000
563450.000000
564445.000000
565390.000000
566480.000000
567616.000000
568682.000000
569737.000000
570852.000000
571905.000000
572932.000000
574004.000000
575037.000000
576079.000000
577161.000000
578158.000000
579122.000000
580150.000000
581129.000000
582151.000000
583422.000000
584572.000000
585672.000000
586780.000000
587902.000000
588955.000000
589988.000000
591159.000000
592292.000000
593354.000000
594482.000000
595634.000000
596724.000000
597849.000000
598969.000000
600013.000000
601059.000000
602129.000000
603139.000000
604126.000000
605221.000000
606294.000000
607415.000000
608577.000000
609679.000000
610762.000000
611839.000000
612854.000000
613891.000000
614986.000000
616024.000000
617052.000000
618142.000000
619148.000000
620178.000000
621237.000000
622257.000000
623267.000000
624340.000000
625391.000000
626463.000000
627522.000000
628632.000000
629715.000000
630802.000000
631967.000000
633080.000000
634114.000000
635134.000000
636127.000000
637065.000000
638096.000000
639457.000000
640607.000000
641679.000000
642792.000000
643931.000000
644991.000000
646055.000000
647136.000000
648146.000000
649146.000000
650184.000000
651203.000000
652251.000000
653361.000000
654385.000000
655394.000000
656421.000000
657390.000000
658327.000000
659323.000000
660406.000000
661473.000000
662619.000000
663758.000000
664830.000000
665866.000000
666890.000000
667906.000000
668848.000000
669852.000000
670892.000000
671867.000000
672841.000000
674116.000000
675317.000000
676432.000000
677499.000000
678537.000000
679582.000000
680567.000000
681495.000000
682759.000000
683948.000000
685066.000000
686165.000000
687243.000000
688377.000000
689498.000000
690649.000000
691857.000000
692989.000000
694064.000000
695109.000000
696186.000000
697163.000000
698129.000000
699142.000000
700186.000000
701218.000000
702209.000000
703344.000000
704514.000000
705618.000000
706657.000000
707698.000000
708738.000000
709717.000000
710694.000000
711750.000000
712825.000000
713837.000000
714837.000000
715868.000000
716892.000000
717874.000000
718834.000000
719877.000000
720985.000000
722056.000000
723143.000000
724225.000000
725237.000000
726248.000000
727275.000000
728344.000000
729342.000000
730296.000000
731274.000000
732245.000000
733219.000000
734277.000000
735286.000000
736289.000000
737305.000000
738240.000000
739166.000000
740122.000000
741032.000000
741968.000000
742937.000000
743887.000000
744841.000000
745808.000000
746736.000000
747653.000000
748643.000000
749609.000000
750515.000000
751389.000000
752285.000000
753181.000000
754041.000000
754915.000000
755803.000000
756662.000000
757526.000000
758430.000000
759344.000000
760226.000000
761156.000000
762098.000000
763011.000000
763954.000000
764913.000000
765873.000000
766774.000000
767679.000000
768624.000000
769528.000000
770465.000000
771433.000000
772350.000000
773257.000000
774260.000000
775278.000000
776264.000000
777237.000000
778240.000000
779250.000000
780193.000000
781133.000000
782122.000000
783101.000000
784009.000000
784950.000000
785952.000000
786886.000000
787868.000000
788828.000000
789765.000000
790826.000000
791867.000000
792865.000000
793884.000000
794915.000000
795881.000000
796874.000000
797931.000000
798932.000000
799944.000000
800975.000000
801956.000000
802961.000000
804026.000000
805024.000000
806045.000000
807088.000000
808084.000000
809101.000000
810137.000000
811129.000000
812164.000000
813301.000000
814330.000000
815279.000000
816269.000000
817254.000000
818181.000000
819176.000000
820172.000000
821141.000000
822215.000000
823261.000000
824247.000000
825254.000000
826235.000000
827156.000000
828112.000000
829086.000000
830004.000000
830999.000000
832033.000000
832987.000000
833966.000000
834978.000000
835927.000000
836874.000000
837864.000000
838809.000000
839849.000000
840867.000000
841893.000000
842942.000000
843946.000000
844973.000000
845953.000000
846953.000000
847973.000000
848945.000000
849939.000000
850944.000000
851903.000000
852860.000000
853852.000000
854802.000000
855772.000000
856815.000000
857808.000000
858769.000000
859776.000000
860765.000000
861726.000000
862713.000000
863656.000000
864610.000000
865614.000000
866560.000000
867536.000000
868572.000000
869540.000000
870495.000000
871503.000000
872460.000000
873448.000000
874518.000000
875516.000000
876550.000000
877561.000000
878558.000000
879566.000000
880505.000000
881465.000000
882390.000000
883259.000000
884182.000000
885163.000000
886073.000000
887041.000000
888020.000000
888953.000000
889948.000000
890925.000000
891850.000000
892815.000000
893752.000000
894662.000000
895645.000000
896591.000000
897576.000000
898618.000000
899603.000000
900636.000000
901688.000000
902665.000000
903685.000000
904711.000000
905691.000000
906722.000000
907737.000000
908716.000000
