ECG (ms)
64.000000
691.000000
1337.000000
2106.000000
3294.000000
4357.000000
5373.000000
6365.000000
7348.000000
8343.000000
9220.000000
9919.000000
10573.000000
11211.000000
11849.000000
12530.000000
13352.000000
14535.000000
15595.000000
16630.000000
17624.000000
18642.000000
19613.000000
20410.000000
21135.000000
21842.000000
22603.000000
23770.000000
24821.000000
25841.000000
26802.000000
27712.000000
28530.000000
29302.000000
30037.000000
30772.000000
31575.000000
32704.000000
33771.000000
34778.000000
35645.000000
36429.000000
37179.000000
37911.000000
38655.000000
39501.000000
40687.000000
41703.000000
42658.000000
43492.000000
44246.000000
44974.000000
45694.000000
46445.000000
47377.000000
48434.000000
49434.000000
50303.000000
51103.000000
51887.000000
52645.000000
53380.000000
54118.000000
54835.000000
55625.000000
56743.000000
57605.000000
58404.000000
59261.000000
60060.000000
60853.000000
61605.000000
62348.000000
63124.000000
64269.000000
65341.000000
66317.000000
67153.000000
67953.000000
68719.000000
69467.000000
70246.000000
71177.000000
72121.000000
73030.000000
73935.000000
74762.000000
75521.000000
76246.000000
76953.000000
77719.000000
78883.000000
79888.000000
80782.000000
81549.000000
82296.000000
83020.000000
83739.000000
84470.000000
85314.000000
86184.000000
87144.000000
87970.000000
88730.000000
89469.000000
90219.000000
91041.000000
91874.000000
92642.000000
93384.000000
94131.000000
94955.000000
95774.000000
96534.000000
97259.000000
97974.000000
98731.000000
99594.000000
100432.000000
101257.000000
102018.000000
102737.000000
103470.000000
104246.000000
105032.000000
105779.000000
106492.000000
107185.000000
107902.000000
108642.000000
109392.000000
110159.000000
110898.000000
111605.000000
112387.000000
113270.000000
114123.000000
114967.000000
115801.000000
116558.000000
117271.000000
117982.000000
118718.000000
119479.000000
120235.000000
120982.000000
121698.000000
122392.000000
123085.000000
123798.000000
124543.000000
125328.000000
126112.000000
126884.000000
127590.000000
128274.000000
128943.000000
129627.000000
130342.000000
131082.000000
131831.000000
132570.000000
133334.000000
134084.000000
134803.000000
135510.000000
136248.000000
137067.000000
137916.000000
138732.000000
139534.000000
140295.000000
141028.000000
141776.000000
142565.000000
143420.000000
144267.000000
145064.000000
145821.000000
146540.000000
147281.000000
148098.000000
149050.000000
149971.000000
150832.000000
151615.000000
152345.000000
153090.000000
153900.000000
154751.000000
155514.000000
156236.000000
156955.000000
157691.000000
158456.000000
159217.000000
159938.000000
160676.000000
161392.000000
162062.000000
162707.000000
163333.000000
163966.000000
164638.000000
165311.000000
165997.000000
166702.000000
167449.000000
168180.000000
168871.000000
169556.000000
170309.000000
171093.000000
171854.000000
172577.000000
173267.000000
173981.000000
174735.000000
175577.000000
176356.000000
177070.000000
177805.000000
178616.000000
179507.000000
180353.000000
181136.000000
181926.000000
182813.000000
183675.000000
184513.000000
185267.000000
185984.000000
186702.000000
187488.000000
188347.000000
189245.000000
190155.000000
190949.000000
191681.000000
192438.000000
193359.000000
194341.000000
195274.000000
196058.000000
196815.000000
197623.000000
198547.000000
199452.000000
200342.000000
201124.000000
201863.000000
202664.000000
203742.000000
204602.000000
205325.000000
206012.000000
206696.000000
207436.000000
208329.000000
209275.000000
210135.000000
210906.000000
211687.000000
212539.000000
213375.000000
214140.000000
214867.000000
215601.000000
216383.000000
217148.000000
217896.000000
218606.000000
219355.000000
220152.000000
220935.000000
221647.000000
222357.000000
223099.000000
223861.000000
224644.000000
225413.000000
226155.000000
227006.000000
227875.000000
228700.000000
229486.000000
230209.000000
230901.000000
231595.000000
232331.000000
233202.000000
234047.000000
234831.000000
235567.000000
236326.000000
237108.000000
237904.000000
238685.000000
239416.000000
240114.000000
240835.000000
241574.000000
242317.000000
243073.000000
243784.000000
244497.000000
245254.000000
246047.000000
246785.000000
247495.000000
248211.000000
248926.000000
249655.000000
250358.000000
251047.000000
251748.000000
252467.000000
253154.000000
253828.000000
254462.000000
255081.000000
255689.000000
256318.000000
257003.000000
257736.000000
258458.000000
259246.000000
260046.000000
260859.000000
261579.000000
262254.000000
262918.000000
263604.000000
264306.000000
265028.000000
265726.000000
266397.000000
267082.000000
267793.000000
268579.000000
269359.000000
270094.000000
270843.000000
271640.000000
272492.000000
273231.000000
273944.000000
274717.000000
275484.000000
276259.000000
276960.000000
277648.000000
278350.000000
279039.000000
279694.000000
280333.000000
280956.000000
281578.000000
282291.000000
283104.000000
283894.000000
284609.000000
285327.000000
286097.000000
286924.000000
287704.000000
288420.000000
289193.000000
290006.000000
290831.000000
291616.000000
292343.000000
293085.000000
293970.000000
294829.000000
295589.000000
296318.000000
297078.000000
297903.000000
298705.000000
299420.000000
300145.000000
301005.000000
302030.000000
302987.000000
303757.000000
304515.000000
305399.000000
306259.000000
307058.000000
307886.000000
308616.000000
309342.000000
310097.000000
310887.000000
311698.000000
312443.000000
313210.000000
314029.000000
314881.000000
315738.000000
316495.000000
317255.000000
318046.000000
318879.000000
319674.000000
320427.000000
321172.000000
321942.000000
322708.000000
323513.000000
324247.000000
324960.000000
325697.000000
326483.000000
327339.000000
328197.000000
328951.000000
329718.000000
330559.000000
331395.000000
332176.000000
332906.000000
333647.000000
334428.000000
335220.000000
335972.000000
336702.000000
337473.000000
338271.000000
339161.000000
339992.000000
340737.000000
341471.000000
342217.000000
342976.000000
343736.000000
344467.000000
345186.000000
345962.000000
346802.000000
347620.000000
348399.000000
349132.000000
349919.000000
350695.000000
351426.000000
352128.000000
352852.000000
353622.000000
354403.000000
355141.000000
355886.000000
356669.000000
357442.000000
358198.000000
358916.000000
359655.000000
360473.000000
361306.000000
362061.000000
362794.000000
363559.000000
364332.000000
365091.000000
365814.000000
366519.000000
367264.000000
368084.000000
369168.000000
369962.000000
370692.000000
371448.000000
372211.000000
373018.000000
373830.000000
374586.000000
375316.000000
376085.000000
376894.000000
377727.000000
378485.000000
379210.000000
379959.000000
380731.000000
381519.000000
382249.000000
382974.000000
383760.000000
384586.000000
385391.000000
386137.000000
386859.000000
387599.000000
388362.000000
389180.000000
389960.000000
390689.000000
391437.000000
392248.000000
393095.000000
393851.000000
394572.000000
395309.000000
396056.000000
396822.000000
397545.000000
398254.000000
399008.000000
399801.000000
400617.000000
401390.000000
402157.000000
402968.000000
403792.000000
404589.000000
405320.000000
406051.000000
406786.000000
407542.000000
408339.000000
409071.000000
409808.000000
410567.000000
411405.000000
412246.000000
412978.000000
413722.000000
414478.000000
415221.000000
415923.000000
416591.000000
417232.000000
417858.000000
418506.000000
419252.000000
419973.000000
420657.000000
421350.000000
422094.000000
422890.000000
423686.000000
424415.000000
425109.000000
425833.000000
426598.000000
427355.000000
428101.000000
428819.000000
429555.000000
430301.000000
431055.000000
431779.000000
432471.000000
433185.000000
433913.000000
434679.000000
435438.000000
436149.000000
436877.000000
437654.000000
438442.000000
439214.000000
439929.000000
440640.000000
441370.000000
442131.000000
442918.000000
443660.000000
444389.000000
445215.000000
446251.000000
447157.000000
447953.000000
448696.000000
449411.000000
450158.000000
450956.000000
451796.000000
452631.000000
453383.000000
454160.000000
455047.000000
455968.000000
456782.000000
457531.000000
458301.000000
459137.000000
459987.000000
460763.000000
461497.000000
462266.000000
463083.000000
463900.000000
464661.000000
465570.000000
466536.000000
467322.000000
468054.000000
468790.000000
469563.000000
470391.000000
471189.000000
471976.000000
472724.000000
473552.000000
474551.000000
475384.000000
476144.000000
476925.000000
477712.000000
478513.000000
479288.000000
480039.000000
480786.000000
481589.000000
482457.000000
483263.000000
484026.000000
484740.000000
485487.000000
486265.000000
487105.000000
487895.000000
488644.000000
489407.000000
490197.000000
491020.000000
491845.000000
492598.000000
493341.000000
494118.000000
494979.000000
495771.000000
496509.000000
497247.000000
498054.000000
498911.000000
499737.000000
500508.000000
501275.000000
502160.000000
503135.000000
504031.000000
504788.000000
505514.000000
506244.000000
507001.000000
507818.000000
508669.000000
509459.000000
510243.000000
511266.000000
512256.000000
513039.000000
513833.000000
514733.000000
515609.000000
516393.000000
517156.000000
517960.000000
518811.000000
519790.000000
520655.000000
521432.000000
522220.000000
522990.000000
523726.000000
524499.000000
525485.000000
526365.000000
527296.000000
528100.000000
528853.000000
529576.000000
530341.000000
531561.000000
532580.000000
533471.000000
534233.000000
535001.000000
535917.000000
536771.000000
537632.000000
538441.000000
539205.000000
539982.000000
540772.000000
541596.000000
542458.000000
543217.000000
544044.000000
544942.000000
545807.000000
546563.000000
547291.000000
548049.000000
548823.000000
549603.000000
550310.000000
550999.000000
551697.000000
552433.000000
553223.000000
553976.000000
554714.000000
555494.000000
556232.000000
556926.000000
557589.000000
558231.000000
558882.000000
559641.000000
560382.000000
561093.000000
561786.000000
562517.000000
563326.000000
564120.000000
564943.000000
565707.000000
566426.000000
567144.000000
567900.000000
568718.000000
569475.000000
570208.000000
570953.000000
571735.000000
572565.000000
573351.000000
574079.000000
574800.000000
575557.000000
576361.000000
577188.000000
577943.000000
578715.000000
579614.000000
580588.000000
581387.000000
582133.000000
582955.000000
583846.000000
584734.000000
585614.000000
586382.000000
587137.000000
588245.000000
589237.000000
590195.000000
591006.000000
591720.000000
592431.000000
593210.000000
594198.000000
595288.000000
596141.000000
596926.000000
597855.000000
598914.000000
599771.000000
600539.000000
601265.000000
602009.000000
602893.000000
603898.000000
604845.000000
605641.000000
606382.000000
607178.000000
607955.000000
608728.000000
609467.000000
610217.000000
611022.000000
611838.000000
612640.000000
613386.000000
614103.000000
614907.000000
615754.000000
616579.000000
617325.000000
618042.000000
618774.000000
619518.000000
620296.000000
621060.000000
621778.000000
622484.000000
623220.000000
623981.000000
624721.000000
625428.000000
626121.000000
626851.000000
627648.000000
628472.000000
629226.000000
629970.000000
630759.000000
631568.000000
632340.000000
633047.000000
633728.000000
634420.000000
635146.000000
635999.000000
636805.000000
637532.000000
638245.000000
638972.000000
639753.000000
640566.000000
641316.000000
642034.000000
642789.000000
643590.000000
644402.000000
645141.000000
645851.000000
646569.000000
647292.000000
648036.000000
648741.000000
649443.000000
650159.000000
650935.000000
651833.000000
652697.000000
653459.000000
654199.000000
654976.000000
655807.000000
656638.000000
657376.000000
658084.000000
658822.000000
659601.000000
660461.000000
661229.000000
661980.000000
662797.000000
663735.000000
664541.000000
665261.000000
665997.000000
666757.000000
667525.000000
668259.000000
668977.000000
669725.000000
670497.000000
671219.000000
671931.000000
672678.000000
673463.000000
674228.000000
674950.000000
675673.000000
676432.000000
677227.000000
678011.000000
678730.000000
679451.000000
680183.000000
680942.000000
681713.000000
682437.000000
683138.000000
683865.000000
684622.000000
685371.000000
686089.000000
686798.000000
687528.000000
688258.000000
689015.000000
689756.000000
690496.000000
691330.000000
692237.000000
693062.000000
693820.000000
694558.000000
695311.000000
696090.000000
696889.000000
697640.000000
698363.000000
699174.000000
700017.000000
700876.000000
701670.000000
702400.000000
703147.000000
703937.000000
704744.000000
705531.000000
706283.000000
707032.000000
707829.000000
708681.000000
709545.000000
710296.000000
711012.000000
711756.000000
712540.000000
713347.000000
714184.000000
714963.000000
715766.000000
716690.000000
717583.000000
718379.000000
719128.000000
719885.000000
720662.000000
721471.000000
722330.000000
723105.000000
723831.000000
724591.000000
725400.000000
726231.000000
727012.000000
727732.000000
728456.000000
729229.000000
730025.000000
730784.000000
731499.000000
732210.000000
732963.000000
733754.000000
734566.000000
735306.000000
736020.000000
736768.000000
737560.000000
738354.000000
739117.000000
739832.000000
740584.000000
741376.000000
742204.000000
743031.000000
743840.000000
744607.000000
745301.000000
745951.000000
746593.000000
747252.000000
747952.000000
748608.000000
749238.000000
749862.000000
750519.000000
751254.000000
752072.000000
752911.000000
753856.000000
754730.000000
755475.000000
756181.000000
756913.000000
757684.000000
758427.000000
759150.000000
759905.000000
760709.000000
761552.000000
762374.000000
763113.000000
763859.000000
764619.000000
765412.000000
766199.000000
766923.000000
767633.000000
768378.000000
769143.000000
769902.000000
770629.000000
771369.000000
772158.000000
772968.000000
773735.000000
774461.000000
775205.000000
775978.000000
776766.000000
777557.000000
778279.000000
779021.000000
779820.000000
780635.000000
781488.000000
782244.000000
782959.000000
783684.000000
784445.000000
785186.000000
785886.000000
786601.000000
787344.000000
788135.000000
788897.000000
789606.000000
790325.000000
791075.000000
791851.000000
792610.000000
793343.000000
794057.000000
794796.000000
795583.000000
796369.000000
797126.000000
797867.000000
798642.000000
799450.000000
800251.000000
800998.000000
801777.000000
802685.000000
803632.000000
804522.000000
805324.000000
806052.000000
806750.000000
807441.000000
808146.000000
808897.000000
809741.000000
810496.000000
811223.000000
811992.000000
812872.000000
813775.000000
814539.000000
815260.000000
815991.000000
816731.000000
817478.000000
818227.000000
818929.000000
819624.000000
820333.000000
821111.000000
821894.000000
822635.000000
823356.000000
824096.000000
824842.000000
825558.000000
826249.000000
826932.000000
827649.000000
828380.000000
829086.000000
829776.000000
830464.000000
831171.000000
831890.000000
832604.000000
833291.000000
833971.000000
834672.000000
835399.000000
836101.000000
836789.000000
837491.000000
838196.000000
838943.000000
839700.000000
840408.000000
841085.000000
841768.000000
842475.000000
843201.000000
843888.000000
844560.000000
845262.000000
845986.000000
846731.000000
847451.000000
848144.000000
848840.000000
849584.000000
850374.000000
851133.000000
851832.000000
852536.000000
853262.000000
854002.000000
854745.000000
855470.000000
856192.000000
856994.000000
858066.000000
858978.000000
859811.000000
860574.000000
861294.000000
862028.000000
862823.000000
863627.000000
864402.000000
865127.000000
865823.000000
866492.000000
867134.000000
867759.000000
868381.000000
869075.000000
869957.000000
870696.000000
871392.000000
872137.000000
872959.000000
873810.000000
874581.000000
875291.000000
876004.000000
876744.000000
877541.000000
878327.000000
879067.000000
879801.000000
880579.000000
881464.000000
882329.000000
883073.000000
883817.000000
884600.000000
885381.000000
886140.000000
886849.000000
887557.000000
888286.000000
889120.000000
889886.000000
890606.000000
891350.000000
892142.000000
892931.000000
893665.000000
894392.000000
895142.000000
895900.000000
896676.000000
897398.000000
898120.000000
898878.000000
899693.000000
900468.000000
901189.000000
901887.000000
902613.000000
903372.000000
904184.000000
905000.000000
905737.000000
906471.000000
907311.000000
908139.000000
908908.000000
909633.000000
910385.000000
911208.000000
912014.000000
912758.000000
913498.000000
914295.000000
915115.000000
915899.000000
916622.000000
